Eigenstate,Energy
1,0.5000000000000308
2,1.8462309376513153
3,3.9363376097055656
4,6.799665277815471
5,10.448046575287828
6,14.887065996873584
7,20.119720824009175
8,26.147783843070638
9,32.97238355306372
10,40.594280208136695
11,49.014009378430366
12,58.231962159249214
13,68.24843268065894
14,79.06364764034258
15,90.67778541941472
16,103.09098888729196
17,116.30337423515432
18,130.3150372269515
19,145.12605772250683
20,160.7365030151513
21,177.14643033780513
22,194.35588877413647
23,212.36492073649825
24,231.1735631233281
25,250.78184823594472
26,271.1898045123552
27,292.3974571202177
28,314.4048284402005
29,337.2119384631839
30,360.81880511910214
31,385.2254445510759
32,410.4318713454094
33,436.43809872571416
34,463.2441387176741
35,490.850002289624
36,519.2556994730832
37,548.4612394665784
38,578.4666307254648
39,609.2718810399505
40,640.8769976031358
41,673.2819870705672
42,706.4868556125405
43,740.4916089601913
44,775.2962524462373
45,810.9007910410986
46,847.3052293850151
47,884.5095718166784
48,922.5138223988263
49,961.3179849411736
50,1000.9220630210121
51,1041.3260600017516
52,1082.5299790496488
53,1124.533823148931
54,1167.337595115497
55,1210.9412976093483
56,1255.3449331458996
57,1300.548504106274
58,1346.5520127467037
59,1393.3554612071175
60,1440.9588515190053
61,1489.362185612625
62,1538.5654653236256
63,1588.5686923991314
64,1639.3718685033489
65,1690.9749952227332
66,1743.3780740707616
67,1796.5811064923428
68,1850.5840938679005
69,1905.3870375171543
70,1960.9899387026323
71,2017.3927986329284
72,2074.595618465732
73,2132.5983993106497
74,2191.4011422318335
75,2251.0038482504287
76,2311.4065183468642
77,2372.6091534629886
78,2434.6117545040684
79,2497.41432234066
80,2561.0168578103626
81,2625.419361719461
82,2690.621834844468
83,2756.6242779335744
84,2823.426691708009
85,2891.029076863318
86,2959.431434070574
87,3028.633763977508
88,3098.636067209581
89,3169.4383443709958
90,3241.040596045645
91,3313.442822798017
92,3386.6450251740434
93,3460.6472037019043
94,3535.4493588927903
95,3611.051491241624
96,3687.453601227743
97,3764.655689315548
98,3842.657755955114
99,3921.459801582781
100,4001.0618266216984
101,4081.46383148236
102,4162.665816563096
103,4244.667782250557
104,4327.469728920159
105,4411.071656936519
106,4495.473566653864
107,4580.675458416423
108,4666.677332558797
109,4753.479189406323
110,4841.081029275399
111,4929.4828524738205
112,5018.684659301087
113,5108.6864500486945
114,5199.488225000421
115,5291.089984432593
116,5383.491728614352
117,5476.693457807891
118,5570.6951722687
119,5665.496872245789
120,5761.098557981906
121,5857.500229713747
122,5954.70188767215
123,6052.703532082295
124,6151.50516316388
125,6251.106781131302
126,6351.508386193826
127,6452.709978555742
128,6554.711558416532
129,6657.51312597101
130,6761.114681409469
131,6865.516224917825
132,6970.717756677744
133,7076.719276866771
134,7183.520785658459
135,7291.122283222483
136,7399.523769724757
137,7508.725245327542
138,7618.726710189553
139,7729.528164466067
140,7841.129608309013
141,7953.531041867072
142,8066.7324652857715
143,8180.733878707568
144,8295.535282271938
145,8411.136676115459
146,8527.538060371886
147,8644.739435172238
148,8762.740800644857
149,8881.542156915499
150,9001.143504107384
151,9121.544842341276
152,9242.746171735553
153,9364.74749240625
154,9487.548804467135
155,9611.150108029768
156,9735.55140320355
157,9860.75269009579
158,9986.753968811736
159,10113.55523945466
160,10241.156502125876
161,10369.557756924807
162,10498.75900394903
163,10628.760243294311
164,10759.561475054668
165,10891.162699322393
166,11023.563916188104
167,11156.76512574079
168,11290.766328067843
169,11425.567523255097
170,11561.16871138686
171,11697.569892545964
172,11834.771066813788
173,11972.772234270287
174,12111.573394994048
175,12251.174549062285
176,12391.575696550908
177,12532.77683753453
178,12674.7779720865
179,12817.57910027893
180,12961.180222182737
181,13105.581337867647
182,13250.782447402236
183,13396.783550853956
184,13543.584648289148
185,13691.185739773084
186,13839.586825369965
187,13988.787905142968
188,14138.78897915426
189,14289.590047465012
190,14441.191110135427
191,14593.592167224764
192,14746.793218791345
193,14900.794264892585
194,15055.595305585017
195,15211.196340924287
196,15367.5973709652
197,15524.798395761713
198,15682.799415366964
199,15841.600429833294
200,16001.201439212255
201,16161.60244355462
202,16322.80344291041
203,16484.80443732891
204,16647.605426858667
205,16811.20641154752
206,16975.607391442616
207,17140.808366590405
208,17306.809337036673
209,17473.610302826542
210,17641.211264004494
211,17809.61222061437
212,17978.81317269939
213,18148.81412030216
214,18319.6150634647
215,18491.21600222843
216,18663.616936634193
217,18836.81786672227
218,19010.81879253239
219,19185.619714103723
220,19361.22063147492
221,19537.621544684087
222,19714.822453768837
223,19892.82335876625
224,20071.624259712928
225,20251.22515664497
226,20431.62604959801
227,20612.826938607184
228,20794.827823707197
229,20977.62870493227
230,21161.229582316195
231,21345.630455892315
232,21530.831325693543
233,21716.832191752364
234,21903.633054100846
235,22091.23391277066
236,22279.634767793046
237,22468.835619198875
238,22658.836467018617
239,22849.637311282346
240,23041.23815201978
241,23233.638989260256
242,23426.839823032744
243,23620.84065336586
244,23815.641480287868
245,24011.24230382668
246,24207.643124009872
247,24404.84394086468
248,24602.844754418016
249,24801.645564696457
250,25001.246371726265
251,25201.64717553339
252,25402.847976143476
253,25604.84877358185
254,25807.649567873545
255,26011.250359043304
256,26215.65114711557
257,26420.85193211451
258,26626.852714064
259,26833.653492987647
260,27041.254268908775
261,27249.65504185045
262,27458.855811835463
263,27668.856578886356
264,27879.657343025403
265,28091.258104274635
266,28303.658862655822
267,28516.859618190505
268,28730.86037089997
269,28945.661120805264
270,29161.261867927213
271,29377.6626122864
272,29594.863353903183
273,29812.8640927977
274,30031.664828989866
275,30251.265562499368
276,30471.666293345705
277,30692.867021548132
278,30914.867747125714
279,31137.668470097316
280,31361.269190481584
281,31585.669908296975
282,31810.870623561743
283,32036.87133629396
284,32263.67204651149
285,32491.272754232017
286,32719.673459473044
287,32948.87416225189
288,33178.874862585675
289,33409.67556049136
290,33641.27625598574
291,33873.6769490854
292,34106.877639806786
293,34340.87832816616
294,34575.67901417963
295,34811.27969786313
296,35047.680379232435
297,35284.88105830315
298,35522.88173509075
299,35761.68240961053
300,36001.28308187763
301,36241.683751907054
302,36482.88441971366
303,36724.885085312126
304,36967.685748717035
305,37211.286409942775
306,37455.68706900363
307,37700.88772591373
308,37946.88838068706
309,38193.68903333748
310,38441.28968387872
311,38689.69033232437
312,38938.89097868787
313,39188.89162298257
314,39439.69226522165
315,39691.292905418224
316,39943.6935435852
317,40196.89417973544
318,40450.894813881634
319,40705.69544603637
320,40961.29607621212
321,41217.69670442125
322,41474.89733067597
323,41732.89795498843
324,41991.698577370626
325,42251.299197834465
326,42511.69981639174
327,42772.900433054114
328,43034.901047833184
329,43297.70166074041
330,43561.30227178716
331,43825.70288098469
332,44090.90348834417
333,44356.90409387664
334,44623.70469759308
335,44891.30529950433
336,45159.705899621185
337,45428.90649795428
338,45698.90709451421
339,45969.70768931144
340,46241.30828235637
341,46513.70887365928
342,46786.90946323038
343,47060.9100510798
344,47335.71063721755
345,47611.31122165357
346,47887.71180439772
347,48164.91238545977
348,48442.91296484939
349,48721.713542576195
350,49001.314118649694
351,49281.71469307933
352,49562.91526587446
353,49844.91583704435
354,50127.71640659819
355,50411.31697454513
356,50695.717540894184
357,50980.91810565433
358,51266.918668834456
359,51553.719230443385
360,51841.31979048985
361,52129.720348982526
362,52418.92090593002
363,52708.92146134084
364,52999.72201522346
365,53291.322567586256
366,53583.72311843755
367,53876.923667785595
368,54170.92421563857
369,54465.7247620046
370,54761.32530689172
371,55057.72585030793
372,55354.926392261135
373,55652.926932759205
374,55951.72747180993
375,56251.32800942104
376,56551.7285456002
377,56852.92908035503
378,57154.929613693064
379,57457.7301456218
380,57761.33067614867
381,58065.731205281016
382,58370.931733026184
383,58676.93225939142
384,58983.73278438391
385,59291.333308010806
386,59599.7338302792
387,59908.934351196105
388,60218.93487076851
389,60529.73538900334
390,60841.33590590746
391,61153.73642148769
392,61466.93693575078
393,61780.937448703466
394,62095.737960352395
395,62411.338470704184
396,62727.73897976538
397,63044.93948754252
398,63362.93999404204
399,63681.74049927037
400,64001.34100323387
401,64321.74150593886
402,64642.9420073916
403,64964.94250759832
404,65287.74300656521
405,65611.34350429838
406,65935.74400080393
407,66260.94449608789
408,66586.94499015626
409,66913.74548301501
410,67241.34597467002
411,67569.74646512719
412,67898.9469543923
413,68228.94744247117
414,68559.74792936952
415,68891.34841509305
416,69223.74889964741
417,69556.94938303823
418,69890.94986527106
419,70225.75034635146
420,70561.35082628492
421,70897.75130507689
422,71234.9517827328
423,71572.952259258
424,71911.75273465786
425,72251.35320893767
426,72591.7536821027
427,72932.95415415817
428,73274.95462510928
429,73617.75509496119
430,73961.35556371901
431,74305.7560313878
432,74650.95649797267
433,74996.95696347859
434,75343.75742791055
435,75691.35789127347
436,76039.75835357231
437,76388.9588148119
438,76738.95927499709
439,77089.75973413272
440,77441.36019222354
441,77793.7606492743
442,78146.96110528971
443,78500.96156027446
444,78855.7620142332
445,79211.36246717055
446,79567.76291909105
447,79924.96336999933
448,80282.96381989986
449,80641.76426879715
450,81001.36471669567
451,81361.76516359983
452,81722.96560951408
453,82084.96605444278
454,82447.76649839024
455,82811.36694136081
456,83175.7673833588
457,83540.96782438843
458,83906.96826445397
459,84273.7687035596
460,84641.36914170951
461,85009.76957890784
462,85378.97001515873
463,85748.97045046627
464,86119.77088483452
465,86491.37131826757
466,86863.77175076937
467,87236.97218234399
468,87610.97261299533
469,87985.77304272736
470,88361.37347154398
471,88737.77389944912
472,89114.97432644661
473,89492.97475254032
474,89871.77517773405
475,90251.37560203158
476,90631.77602543672
477,91012.97644795319
478,91394.9768695847
479,91777.77729033498
480,92161.37771020769
481,92545.77812920649
482,92930.978547335
483,93316.97896459684
484,93703.77938099559
485,94091.3797965348
486,94479.78021121805
487,94868.98062504882
488,95258.9810380306
489,95649.78145016689
490,96041.38186146117
491,96433.78227191685
492,96826.98268153731
493,97220.98309032599
494,97615.78349828623
495,98011.3839054214
496,98407.78431173484
497,98804.9847172298
498,99202.98512190966
499,99601.78552577765
500,100001.385928837
501,100401.78633109096
502,100802.98673254272
503,101204.98713319552
504,101607.78753305251
505,102011.38793211684
506,102415.78833039166
507,102820.98872788007
508,103226.98912458518
509,103633.78952051008
510,104041.3899156578
511,104449.79031003141
512,104858.99070363396
513,105268.9910964684
514,105679.7914885378
515,106091.39187984506
516,106503.79227039315
517,106916.99266018507
518,107330.99304922367
519,107745.79343751192
520,108161.39382505264
521,108577.79421184876
522,108994.99459790312
523,109412.99498321854
524,109831.79536779788
525,110251.39575164388
526,110671.79613475942
527,111092.9965171472
528,111514.99689881004
529,111937.79727975064
530,112361.39765997174
531,112785.79803947607
532,113210.99841826627
533,113636.99879634511
534,114063.7991737152
535,114491.3995503792
536,114919.79992633977
537,115349.00030159952
538,115779.00067616101
539,116209.80105002692
540,116641.40142319976
541,117073.80179568214
542,117507.00216747657
543,117941.00253858564
544,118375.8029090118
545,118811.40327875764
546,119247.80364782558
547,119685.00401621815
548,120123.0043839378
549,120561.80475098698
550,121001.40511736814
551,121441.8054830837
552,121883.00584813608
553,122325.00621252767
554,122767.80657626087
555,123211.40693933808
556,123655.8073017616
557,124101.00766353383
558,124547.00802465709
559,124993.80838513369
560,125441.40874496596
561,125889.8091041562
562,126339.00946270669
563,126789.0098206197
564,127239.81017789753
565,127691.41053454236
566,128143.81089055647
567,128597.01124594212
568,129051.01160070147
569,129505.81195483675
570,129961.41230835016
571,130417.81266124384
572,130875.01301352
573,131333.0133651808
574,131791.81371622835
575,132251.41406666482
576,132711.81441649233
577,133173.01476571293
578,133635.01511432882
579,134097.81546234203
580,134561.41580975463
581,135025.81615656876
582,135491.01650278643
583,135957.01684840966
584,136423.81719344054
585,136891.4175378811
586,137359.81788173327
587,137829.01822499916
588,138299.01856768073
589,138769.81890977992
590,139241.4192512988
591,139713.81959223925
592,140187.01993260326
593,140661.02027239278
594,141135.82061160976
595,141611.42095025608
596,142087.8212883337
597,142565.0216258445
598,143043.0219627904
599,143521.82229917328
600,144001.422634995
601,144481.82297025743
602,144963.02330496247
603,145445.02363911195
604,145927.82397270773
605,146411.42430575157
606,146895.82463824537
607,147381.0249701909
608,147867.02530158995
609,148353.8256324444
610,148841.42596275595
611,149329.82629252644
612,149819.0266217576
613,150309.0269504512
614,150799.827278609
615,151291.42760623273
616,151783.82793332415
617,152277.02825988497
618,152771.02858591688
619,153265.82891142165
620,153761.42923640096
621,154257.8295608565
622,154755.02988478995
623,155253.03020820298
624,155751.83053109728
625,156251.43085347448
626,156751.8311753363
627,157253.0314966843
628,157755.03181752015
629,158257.83213784554
630,158761.432457662
631,159265.8327769712
632,159771.03309577474
633,160277.0334140742
634,160783.8337318712
635,161291.4340491673
636,161799.83436596405
637,162309.03468226307
638,162819.0349980659
639,163329.83531337412
640,163841.43562818924
641,164353.8359425128
642,164867.03625634636
643,165381.03656969144
644,165895.83688254957
645,166411.4371949222
646,166927.8375068109
647,167445.03781821713
648,167963.03812914243
649,168481.8384395882
650,169001.438749556
651,169521.83905904723
652,170043.03936806344
653,170565.039676606
654,171087.8399846764
655,171611.44029227606
656,172135.84059940645
657,172661.04090606896
658,173187.0412122651
659,173713.84151799613
660,174241.4418232636
661,174769.84212806888
662,175299.04243241332
663,175829.04273629838
664,176359.8430397254
665,176891.44334269577
666,177423.84364521084
667,177957.043947272
668,178491.04424888064
669,179025.84455003805
670,179561.4448507456
671,180097.84515100467
672,180635.04545081657
673,181173.04575018265
674,181711.84604910415
675,182251.44634758247
676,182791.84664561893
677,183333.0469432148
678,183875.04724037135
679,184417.84753708995
680,184961.44783337187
681,185505.84812921836
682,186051.04842463072
683,186597.0487196102
684,187143.84901415807
685,187691.44930827565
686,188239.84960196412
687,188789.0498952248
688,189339.05018805884
689,189889.85048046755
690,190441.45077245217
691,190993.85106401393
692,191547.051355154
693,192101.0516458736
694,192655.851936174
695,193211.4522260564
696,193767.85251552192
697,194325.05280457187
698,194883.05309320736
699,195441.85338142965
700,196001.45366923985
701,196561.85395663916
702,197123.05424362875
703,197685.0545302098
704,198247.85481638345
705,198811.45510215088
706,199375.8553875133
707,199941.05567247167
708,200507.05595702733
709,201073.85624118132
710,201641.4565249348
711,202209.85680828884
712,202779.05709124464
713,203349.0573738033
714,203919.85765596593
715,204491.4579377336
716,205063.85821910747
717,205637.0585000886
718,206211.0587806781
719,206785.8590608771
720,207361.4593406866
721,207937.85962010772
722,208515.05989914155
723,209093.06017778916
724,209671.86045605165
725,210251.46073393
726,210831.86101142532
727,211413.06128853865
728,211995.06156527108
729,212577.8618416236
730,213161.4621175973
731,213745.86239319315
732,214331.06266841228
733,214917.06294325565
734,215503.86321772428
735,216091.4634918192
736,216679.8637655415
737,217269.06403889207
738,217859.064311872
739,218449.86458448227
740,219041.46485672388
741,219633.86512859783
742,220227.06540010512
743,220821.06567124673
744,221415.8659420236
745,222011.46621243676
746,222607.8664824872
747,223205.06675217583
748,223803.06702150367
749,224401.8672904717
750,225001.46755908083
751,225601.86782733203
752,226203.06809522628
753,226805.06836276452
754,227407.86862994765
755,228011.46889677664
756,228615.86916325244
757,229221.069429376
758,229827.0696951482
759,230433.86996057
760,231041.47022564232
761,231649.87049036604
762,232259.07075474216
763,232869.07101877153
764,233479.87128245505
765,234091.47154579364
766,234703.8718087882
767,235317.07207143967
768,235931.0723337489
769,236545.87259571676
770,237161.4728573442
771,237777.87311863204
772,238395.0733795812
773,239013.07364019257
774,239631.87390046695
775,240251.4741604053
776,240871.87442000845
777,241493.07467927723
778,242115.07493821255
779,242737.8751968153
780,243361.4754550862
781,243985.8757130262
782,244611.07597063616
783,245237.07622791684
784,245863.87648486916
785,246491.47674149397
786,247119.876997792
787,247749.07725376415
788,248379.0775094113
789,249009.87776473415
790,249641.47801973365
791,250273.87827441053
792,250907.0785287656
793,251541.0787827997
794,252175.87903651368
795,252811.4792899083
796,253447.8795429844
797,254085.07979574273
798,254723.08004818409
799,255361.88030030933
800,256001.48055211917
801,256641.8808036144
802,257283.0810547959
803,257925.08130566435
804,258567.8815562206
805,259211.48180646537
806,259855.88205639948
807,260501.08230602363
808,261147.08255533868
809,261793.88280434537
810,262441.4830530444
811,263089.88330143655
812,263739.0835495226
813,264389.0837973034
814,265039.88404477946
815,265691.48429195175
816,266343.88453882094
817,266997.08478538773
818,267651.08503165294
819,268305.88527761726
820,268961.4855232814
821,269617.88576864614
822,270275.08601371216
823,270933.08625848027
824,271591.8865029511
825,272251.48674712545
826,272911.88699100394
827,273573.08723458735
828,274235.08747787646
829,274897.88772087183
830,275561.4879635743
831,276225.8882059845
832,276891.0884481031
833,277557.0886899309
834,278223.8889314686
835,278891.4891727168
836,279559.8894136762
837,280229.0896543476
838,280899.08989473165
839,281569.890134829
840,282241.4903746402
841,282913.8906141662
842,283587.0908534075
843,284261.09109236486
844,284935.8913310389
845,285611.49156943033
846,286287.89180753974
847,286965.0920453679
848,287643.09228291543
849,288321.89252018294
850,289001.4927571712
851,289681.8929938808
852,290363.09323031234
853,291045.0934664666
854,291727.8937023441
855,292411.4939379455
856,293095.8941732716
857,293781.0944083229
858,294467.0946431001
859,295153.89487760374
860,295841.4951118346
861,296529.8953457932
862,297219.09557948034
863,297909.0958128964
864,298599.89604604215
865,299291.49627891823
866,299983.89651152526
867,300677.0967438638
868,301371.0969759345
869,302065.897207738
870,302761.4974392749
871,303457.89767054585
872,304155.09790155134
873,304853.0981322921
874,305551.8983627687
875,306251.4985929817
876,306951.89882293175
877,307653.0990526195
878,308355.09928204544
879,309057.8995112102
880,309761.4997401144
881,310465.89996875863
882,311171.1001971435
883,311877.1004252695
884,312583.9006531373
885,313291.5008807475
886,313999.90110810066
887,314709.10133519734
888,315419.10156203806
889,316129.90178862354
890,316841.5020149543
891,317553.9022410308
892,318267.10246685374
893,318981.1026924237
894,319695.9029177411
895,320411.5031428067
896,321127.9033676209
