Eigenstate,Potential Energy
1,0.500000000000030689828436286854532810
2,0.64623093765131520967594916235360147
3,0.73633760970556589167263549498642586
4,0.79966527781547135606476808385020286
5,0.8480465752878278125809600409357374
6,0.8870659968735847230937604460240200
7,0.9197208240091743710359572245702272
8,0.9477838430706350697886085237085983
9,0.9723835530637258816629045583843710
10,0.9942802081366955061603380124271915
11,1.0140093784303671693959126648900799
12,1.0319621592492171444553999981086236
13,1.0484326806589376362932270571668866
14,1.0636476403425816706426125846561791
15,1.0777854194147379409275201766195127
16,1.090988887291969635455005070571392
17,1.103374235154314814933440022921391
18,1.115037226951483309064007474824889
19,1.126057722506832634184803694698771
20,1.136503015151303282587791753922947
21,1.146430337805115099657533244416346
22,1.155888774136506848048669343844370
23,1.164920736498260450651905352509171
24,1.173563123328122845887629353750061
25,1.181848235944732151982561877072000
26,1.189804512355205245306867786017463
27,1.197457120217713463836120363239697
28,1.204828440200522342538298742545926
29,1.211938463183943469329372475832343
30,1.218805119102158983287097200428481
31,1.225444551075940738400306851525513
32,1.231871345409386572610444600586638
33,1.238098725714148318658194052185446
34,1.244138717674079927756629488521574
35,1.250002289624039011921044293714237
36,1.255699473083096232630932668737215
37,1.261239466578322415292372095046994
38,1.266630725464904526071725428051302
39,1.271881039950492998346376101517321
40,1.276997603135862112626109322606499
41,1.281987070567214860200164524676905
42,1.286855612540471119357881485629994
43,1.291608960191391628194123490904918
44,1.296252446237296222571402477235778
45,1.300791041098565238866775152728893
46,1.305229385014976698581963059346990
47,1.309571816678455279600081180120631
48,1.313822398826222714654394634571122
49,1.317984941173676713703222148813404
50,1.32206302101220279327284065868978
51,1.32606000175165643337528235934769
52,1.32997904964890776832329040352195
53,1.33382314893139089923106033888144
54,1.33759511549703878454367790618560
55,1.34129760934850917243520053552173
56,1.34493314589953246879764651490761
57,1.34850410627401346943059595169203
58,1.35201274670372169875551409171417
59,1.35546120711765115010861289018902
60,1.35885151900510571496768779972377
61,1.36218561262500236096732850173240
62,1.36546532362558311344637216423190
63,1.36869239913148500625354582970571
64,1.37186850334880468761739363222079
65,1.37499522273325952691559831056985
66,1.37807407076169972912656547453174
67,1.38110649234296367242167734897505
68,1.38409386790031252354940487783343
69,1.38703751715436751493668050654498
70,1.38993870263254499917011857061856
71,1.39279863292838569278902970492772
72,1.39561846573187627894345145886727
73,1.39839931064980853206724614161706
74,1.40114223183340227916434182905878
75,1.40384825042878741120349487651378
76,1.40651834686449060136228347217420
77,1.40915346298876998844316027482331
78,1.41175450406847528560459414302422
79,1.41432234066006395455833070223153
80,1.41685781036246595973967627660419
81,1.41936171946064027548116479465625
82,1.42183484446790486866676976174587
83,1.42427793357443314555427088409233
84,1.42669170800868555973738234771948
85,1.42907686331798580204568505742220
86,1.43143407057393512779126230267540
87,1.43376397750790090597102467636418
88,1.43606720958139209729823345028026
89,1.43834437099575086577523733953052
90,1.44059604564524631179022633878537
91,1.44282279801733486267016462971665
92,1.44502517404356355908303371415980
93,1.44720370190433022062686605473073
94,1.44935889279047154520503212354893
95,1.45149124162442904275822701220206
96,1.45360122774354088180730479534613
97,1.45568931554782338515133808046059
98,1.45775595511443303677086769126460
99,1.45980158278084638979690342508727
100,1.46182662169864892499047427994855
101,1.46383148235969460502283369543969
102,1.46581656309627229512550929526895
103,1.46778225055680730706650731726394
104,1.46972892015851905869841244870837
105,1.47165693651836276756754293522384
106,1.47356665386349233282933191643272
107,1.47545841642240347775985889912831
108,1.47733255879783698559905615620871
109,1.47918940632245326792688202037452
110,1.48102927539822708464883894210047
111,1.48285247382044537346856339583928
112,1.48465930108714171309181457979388
113,1.48645004869474540861214261492304
114,1.48822500042067442977210112903465
115,1.48998443259356098429136404619305
116,1.49172861435175017680488354372771
117,1.49345780789068049094745350695796
118,1.49517226869971380101543914034842
119,1.49687224578894890592024570870276
120,1.49855798190652673591298092514036
121,1.50022971374689711531564341286272
122,1.50188767215049805136135543641527
123,1.50353208229526632631413664750519
124,1.50516316388038049023010628993701
125,1.50678113130260778545883037235348
126,1.50838619382561133668603860510163
127,1.50997855574255336243249446156689
128,1.51155841653230757673391423841032
129,1.51312597100958187648877316357155
130,1.51468140946923402809351729809617
131,1.51622491782504766286663888470990
132,1.51775667774322091356222371201965
133,1.51927686677080824268986229171048
134,1.52078565845934473739853927138631
135,1.52228322248386403733997445867025
136,1.52376972475751737439651510072525
137,1.52524532754198789521478515613514
138,1.52671018955388082549605681735317
139,1.52816446606726792908849647299209
140,1.52960830901254926895815042665526
141,1.53104186707179071962578931433317
142,1.53246528577068760738933432570888
143,1.53387870756729620448256427989424
144,1.53528227193766762368365469753038
145,1.53667611545851447212815264891901
146,1.53806037188703275432986420870847
147,1.53943517223799331144728999406304
148,1.54080064485821812579992009081182
149,1.54215691549854329156417996087948
150,1.54350410738337229250205085406367
151,1.54484234127791550095104418288290
152,1.54617173555320619722014309872193
153,1.54749240624898205905920425468586
154,1.54880446713451602041763472346465
155,1.55010802976747473545812372547260
156,1.55140320355088251416125177880820
157,1.55269009578826177609691820937836
158,1.55396881173702184043570330490131
159,1.5552394546601597250056324437023
160,1.5565021258763392919038349910544
161,1.5577569248084072357539975530346
162,1.5590039490304053756807696192379
163,1.5602432943131341042704745175120
164,1.5614750546683216300827911735761
165,1.5626993223914476139008804562978
166,1.5639161881032717142787347071154
167,1.5651257407901142746748622593144
168,1.5663280678429318410555632954182
169,1.5675232550952325720284624163007
170,1.5687113868598712845914825577804
171,1.5698925459647643299281025404901
172,1.5710668137875621658763553008916
173,1.5722342702893150283722760944778
174,1.5733949940471675453513606085194
175,1.5745490622861162780108178756547
176,1.5756965509098598957551199949348
177,1.5768375345307752453319767751496
178,1.5779720864990484685245751609533
179,1.5791002789309876133155037267283
180,1.5802221827365476848908331276223
181,1.5813378676460907850400846195493
182,1.5824474022364090353069873906737
183,1.5835508539560333331343456290130
184,1.5846482891498521825085623115511
185,1.5857397730830624071962762495879
186,1.5868253699644727151620072908358
187,1.5879051429691839146329919585882
188,1.5889791542606612180948566945530
189,1.5900474650122223652745979686729
190,1.5911101354279572161542897830763
191,1.5921672247630980365327673443671
192,1.5932187913438568583028662420472
193,1.5942648925867482182563319016140
194,1.5953055850174106161623460655356
195,1.5963409242889446244414129687177
196,1.5973709651997813412967238715933
197,1.5983957617110955625858183242944
198,1.5994153669637778343732816771405
199,1.6004298332949782199793235252719
200,1.6014392122542357216849265011620
201,1.6024435546192043334718356751944
202,1.6034429104109891009080170143480
203,1.6044373289091028428604298303344
204,1.6054268586660551498958002213308
205,1.6064115475215836246812320635095
206,1.6073914426165403830807210398477
207,1.6083665904064396865727753923464
208,1.6093370366746809273931295003979
209,1.6103028265454527092296378248987
210,1.6112640044963295190678202875324
211,1.6122206143705683491429486714134
212,1.6131726993891154961202716778187
213,1.6141203021623279153905104293369
214,1.6150634647014241061639488200679
215,1.6160022284296637335869258502040
216,1.6169366341932699423307855869029
217,1.6178667222720983206881198615623
218,1.6187925323900614876186167306130
219,1.6197141037253125756726252831651
220,1.6206314749202001179126447809112
221,1.6215446840909922411145096407089
222,1.6224537688373873626057436610249
223,1.6233587662518049515642090510681
224,1.6242597129284714140669639525428
225,1.6251566449723036584233950731680
226,1.6260495980075938787252300421019
227,1.6269386071865041994512098803508
228,1.6278237071973729913171662574837
229,1.6287049322728400105062449079310
230,1.6295823161977950475068904959282
231,1.6304558923171518748124392558797
232,1.6313256935434579023861217787924
233,1.6321917523643345263790424780883
234,1.6330541008497643171497996693136
235,1.6339127706592182176685705970434
236,1.6347677930486324510564349501144
237,1.6356191988772387573689944025867
238,1.6364670186142496906175289282843
239,1.6373112823454044115889913249637
240,1.6381520197793771298627009317955
241,1.6389892602540524763529891935068
242,1.6398230327426706623080146259366
243,1.6406533658598464555171643774717
244,1.6414802878674636619427774491175
245,1.6423038266804494858656708445964
246,1.6431240098724312870906025568368
247,1.6439408646812771169757804970728
248,1.6447544180145276138185514979418
249,1.6455646964547142260909470962728
250,1.6463717262645741476235376536170
251,1.6471755333921598641423497124568
252,1.6479761434758461090516921685235
253,1.6487735818492393000586175945540
254,1.6495678735459891128886604943139
255,1.6503590433045060715152262084623
256,1.6511471155725852396616362091781
257,1.6519321145119424043130973680163
258,1.6527140640026591952897363607421
259,1.6534929876475439437237276857799
260,1.6542689087764086651373584422394
261,1.6550418504502624801718166660147
262,1.6558118354654261976908485569359
263,1.6565788863575669101388796874804
264,1.6573430254056580513034770910420
265,1.6581042746358634410070603636903
266,1.6588626558253474837572308264235
267,1.6596181905060147338848116942669
268,1.6603708999681788601654067241187
269,1.6611208052641652791206759196216
270,1.6618679272118431804202956098435
271,1.6626122863980962276178136667840
272,1.6633539031822259130608814395031
273,1.6640927976992950093669973534429
274,1.6648289898634083257583781224556
275,1.6655624993709346441118283920372
276,1.6662933457036681123516992569399
277,1.6670215481319365784760511738844
278,1.6677471257176486191395343251063
279,1.6684700973172907652371126141128
280,1.6691904815848670173342242319778
281,1.6699082969747885397461008736293
282,1.6706235617447110295141028471074
283,1.6713362939583229727050450290210
284,1.6720465114880819445481973283640
285,1.6727542320179057606499211188708
286,1.6734594730458145040110176770253
287,1.6741622518865284871170529869454
288,1.6748625856740185508572565624275
289,1.6755604913640133483156130663513
290,1.6762559857364643459406758337420
291,1.6769490853979663830139259839210
292,1.6776398067841366743023079991084
293,1.6783281661619561616491448953252
294,1.6790141796320682513968036153066
295,1.6796978631310370247658795010162
296,1.6803792324335725067294786666216
297,1.6810583031547129250868549308527
298,1.6817350907519732764669243053590
299,1.6824096105274570020958562828953
300,1.6830818776299325239110685904986
301,1.6837519070568750524358300112709
302,1.6844197136564757593237242711009
303,1.6850853121296154876781211422965
304,1.6857487170318065776522713891812
305,1.6864099427751042358327479048717
306,1.6870690036299867116024781853324
307,1.6877259137272014624326314759627
308,1.6883806870595847865283229974106
309,1.6890333374838510120895013243227
310,1.6896838787223515783297674981002
311,1.6903323243648076031520281827293
312,1.6909786878700134506091093787190
313,1.6916229825675126908949745849629
314,1.6922652216592482571357446956024
315,1.6929054182211861186196080623537
316,1.6935435852049138461039676978624
317,1.6941797354392116078006684722245
318,1.6948138816316009472803638970406
319,1.6954460363698684848540648067520
320,1.6960762121235645436862012754463
321,1.6967044212454806195696319242970
322,1.6973306759731018087891902530034
323,1.6979549884300377081094886824005
324,1.6985773706274307640220552909362
325,1.6991978344653438332291007897591
326,1.6998163917341251915860457052790
327,1.7004330541157538122546994329572
328,1.7010478331851621022570821691007
329,1.7016607404115410722845821464374
330,1.7022717871596243714241968926548
331,1.7028809846909526253738687371313
332,1.7034883441651191393667326090596
333,1.7040938766409973443372872736974
334,1.7046975930779481703310056150565
335,1.7052995043370116620675596139507
336,1.7058996211820788946870405459612
337,1.7064979542810470619024785742657
338,1.7070945142069587953886083760677
339,1.7076893114391217798913213504788
340,1.7082823563642147553754403795134
341,1.7088736592773756197658996673241
342,1.7094632303832741294092124308158
343,1.7100510797971688350218512340798
344,1.7106372175459482468098788338798
345,1.7112216535691580480712451129295
346,1.7118043977200118320530028761027
347,1.7123854597663889273993439081165
348,1.7129648493918161238916161166220
349,1.7135425761964368433822842631586
350,1.7141186496979652982403336309946
351,1.7146930793326277248897523449094
352,1.7152658744560903747833098215516
353,1.7158370443443735471674680605348
354,1.7164065981947530780926887534153
355,1.7169745451266496509306743797417
356,1.7175408941825041381654569998907
357,1.7181056543286422134808741018945
358,1.7186688344561274781304685045526
359,1.7192304433815988467131546340803
360,1.7197904898481011302586532819764
361,1.7203489825259005614772731636640
362,1.7209059300132917437591716053463
363,1.7214613408373906195222731861724
364,1.7220152234549184818886186694933
365,1.7225675862529752660423902212874
366,1.7231184375498009979261153004090
367,1.7236677855955282922721495021170
368,1.7242156385729226886853109399422
369,1.7247620045981154583097495580458
370,1.7253068917213245942427944739477
371,1.7258503079275668389929226081149
372,1.7263922611373597054488711559742
373,1.7269327592074134580639660972829
374,1.7274718099313173627233295086195
375,1.7280094210402108968522327804598
376,1.7285456002034513759697768552424
377,1.7290803550292697858866207032764
378,1.7296136930654179879473967545198
379,1.7301456217998091371075376700491
380,1.7306761486611480695979640269471
381,1.7312052810195545356017680221778
382,1.7317330261871763951014379179585
383,1.7322593914187974515461602751213
384,1.7327843839124348870283963621705
385,1.7333080108099299202120698179256
386,1.7338302791975323456528114762997
387,1.7343511961064747038332645210072
388,1.7348707685135400186980826210456
389,1.7353890033416237773600448239410
390,1.7359059074602873410678208156348
391,1.7364214876863031043604867958173
392,1.7369357507841950107689920885101
393,1.7374487034667718985344094752879
394,1.7379603523956522574223307036441
395,1.7384707041817832534883806877664
396,1.7389797653859536726442356915947
397,1.7394875425193004129137833407230
398,1.7399940420438085334953187338058
399,1.7404992703728034264019373575280
400,1.7410032338714394106187265766191
401,1.7415059388571807976772730380893
402,1.7420073916002761738443106574518
403,1.7425075983242287196451193926951
404,1.7430065652062604597914392498899
405,1.7435042983777679089393365882942
406,1.7440008039247752222916869436207
407,1.7444960878883819677452093275190
408,1.7449901562652030227560926403879
409,1.7454830150078034569808389838239
410,1.7459746700251309151502042945811
411,1.7464651271829397601741022416991
412,1.7469543923042105590460132424318
413,1.7474424711695659905859488572319
414,1.7479293695176795988468390732423
415,1.7484150930456816761261004296925
416,1.7488996474095587051948002983549
417,1.7493830382245492092103718580997
418,1.7498652710655331725281520149375
419,1.7503463514674193109026496371388
420,1.7508262849255251729796669629342
421,1.7513050768959540252416296124011
422,1.7517827327959678019875915245919
423,1.7522592580043539564668748224691
424,1.7527346578617898268691803035728
425,1.7532089376712008965097562578980
426,1.7536821026981165550275499026476
427,1.7541541581710208452037604127149
428,1.7546251092816982090657257882712
429,1.7550949611855781456409612241713
430,1.7555637190020716424434647950644
431,1.7560313878149068843227480530769
432,1.7564979726724613891653784920617
433,1.7569634785880859083215986807506
434,1.7574279105404311896689328074767
435,1.7578912734737654269616558063993
436,1.7583535722982902964299515848742
437,1.7588148118904537419726758277584
438,1.7592749970932584909801304373336
439,1.7597341327165669820644410918665
440,1.7601922235374037758830204289925
441,1.7606492743002526088793193068239
442,1.7611052897173516535585372479321
443,1.7615602744689866329642934963487
444,1.7620142332037764086975738875764
445,1.7624671705389603731060402939493
446,1.7629190910606786699623907959501
447,1.7633699993242524127689925774575
448,1.7638198998544571188580880648532
449,1.7642687971457971997603125876800
450,1.7647166956627736602495742006171
451,1.7651635998401525091252991340674
452,1.7656095140832267230465719975151
453,1.7660544427680775064553012202018
454,1.7664983902418312365030794926245
455,1.7669413608229157168180927931808
456,1.7673833588013110370760192495477
457,1.7678243884387997340452620990116
458,1.7682644539692126499664224592410
459,1.7687035595986730021537036081322
460,1.7691417095058383061234954893857
461,1.7695789078421380019369497579220
462,1.7700151587320099967683752686695
463,1.7704504662731347274311115823158
464,1.7708848345366649037278266092458
465,1.7713182675674549013205247270420
466,1.7717507693842869347767801219604
467,1.7721823439800932912678659678755
468,1.7726129953221796405180119357237
469,1.7730427273524418976602687465908
470,1.7734715439875841634973492133247
471,1.7738994491193320092315995840026
472,1.7743264466146454032327736074062
473,1.7747525403159266307023428898937
474,1.7751777340412307101837882047794
475,1.7756020315844672296290080696021
476,1.7760254367156061157807677282411
477,1.7764479531808776698217113179724
478,1.7768695847029715452313852510049
479,1.7772903349812335571882096511932
480,1.7777102076918607180487318705521
481,1.7781292064880930497301510236405
482,1.7785473350004057417332787402368
483,1.7789645968366970347517344643309
484,1.7793809955824746495709404472019
485,1.7797965348010422380798046794669
486,1.7802112180336804411352221930449
487,1.7806250487998294020062485346191
488,1.7810380305972673318293682391428
489,1.7814501669022883551176528740208
490,1.7818614611698774983104130913870
491,1.7822719168338849555051392395090
492,1.7826815373071982194148607521082
493,1.7830903259819120524142922694514
494,1.7834982862294973915662116973360
495,1.7839054214009673799733188988362
496,1.7843117348270437687232104616721
497,1.7847172298183193747918072530971
498,1.7851219096654205400002578268221
499,1.7855257776391670881853456299596
500,1.785928836990731910892008504278
501,1.786331090951795927431914637946
502,1.786732542734705874292028663108
503,1.787133195532626391816929257520
504,1.787533052519694251797803797541
505,1.787932116851167573223681260512
506,1.788330391663575756069285946439
507,1.788727880074867980929252221463
508,1.789124585184559914236429266231
509,1.789520510073876849728637777084
510,1.789915657805899339172321601703
511,1.790310031425704543186784178088
512,1.790703633960507202131600170681
513,1.791096468419798842558664089144
514,1.791488537795485895456456708455
515,1.791879845062027100349184157405
516,1.792270393176568405403550698535
517,1.792660185079076438098179005137
518,1.793049223692472331657700917783
519,1.793437511922762689011821167953
520,1.793825052659170541099141143160
521,1.794211848774263094560764424271
522,1.794597903124080544841355132817
523,1.794983218548262391671529864934
