Eigenstate,Energy,Diagonal Energy,Residual Energy
1,0.500000000000142182794064083967802649,0.536844929114528343918880273712156099,-0.036844929114386161124816189744353450
2,1.84623093765204297406313320586063826,1.87489076802969273945125057243700050,-0.02865983037764976538811736657636224
3,3.93633760970770362446736521970640466,3.95623090880462126828114393420265306,-0.01989329909691764381377871449624840
4,6.79966527781992396267260763190926069,6.81404497809387814347479438770497591,-0.01437970027395418080218675579571522
5,10.4480465752955405353011176328884417,10.4589205604037613019573308558617471,-0.0108739851082207666562132229733054
6,14.8870659968855192817186002280635050,14.8955994064923315731409527566250607,-0.0085334096068122914223525285615557
7,20.1197208240263001593080144948608074,20.1266171135078377374844725488408885,-0.0068962894815375781764580539800811
8,26.1477838430939254724402960538705630,26.1534892178572856918972045498453335,-0.0057053747633602194569084959747705
9,32.9723835530941565512574158415279521,32.9771940588831219579913553382310225,-0.0048105057889654067339394967030704
10,40.5942802081752434787681939624808042,40.5983999916340077251454415544766917,-0.0041197834587642463772475919958875
11,49.0140093784780103751520576834629164,49.0175839000481967961866582146988277,-0.0035745215701864210346005312359113
12,58.2319621593069341193368693658261374,58.2350979899342027116710280813451923,-0.0031358306272685923341587155190549
13,68.2484326807277073434376945824354343,68.2512097825246746433708230672610958,-0.0027771017969672999331284848256615
14,79.0636476404233833847036506911698802,79.0661272573988691307691123566637355,-0.0024796169754857460654616654938553
15,90.6777854195085511704545539546385162,90.6800153064125366839088072862919660,-0.0022298869039855134542533316534498
16,103.090988887399774069154404842910425,103.093006869880569662333591700522130,-0.002017982480795593179186857611705
17,116.303374235277090283459940241267589,116.305210692609005460118978413410298,-0.001836457331915176659038172142709
18,130.315037227090209757223141802792930,130.316716860716175406879466435057939,-0.001679633625965649656324632265009
19,145.126057722662490100303054734033783,145.127600840100963072626022049245840,-0.001543117438472972322967315212057
20,160.736503015324871882935140038486787,160.737926478224652085852001631018433,-0.001423462899780202916861592531646
21,177.146430337997575016506733227957943,177.147748273000955453977286302779321,-0.001317935003380437470553074821378
22,194.355888774348838320401737738399578,194.357113113549403638498165500224013,-0.001224339200565318096427761824435
23,212.364920736731443766955978404525806,212.366061633790230971324794508877277,-0.001140897058787204368816104351471
24,231.173563123583138338257340600617356,231.174629277820242129573093367686383,-0.001066154237103791315752767069027
25,250.781848236222560191579124438686202,250.782847147712966790853848986364826,-0.000998911490406599274724547678624
26,271.189804512656826238616492740164364,271.190742684976690991560729478464572,-0.000938172319864752944236738300208
27,292.397457120544107849655736434140714,292.398340223359353240361538697763530,-0.000883102815245390705802263622816
28,314.404828440552670589523427569699557,314.405661441088413290542690310243762,-0.000833000535742701019262740544205
29,337.211938463562826073993145053521988,337.212725733730089550598322393748976,-0.000787270167263476605177340226988
30,360.818805119508756468364568397995572,360.819550523822258708435284858398332,-0.000745404313502240070716460402760
31,385.225444551511233651511013726538321,385.226151519725501387219549567223435,-0.000706968214267735708535840685114
32,410.431871345874355485166336720135083,410.432542933369762541150065205031277,-0.000671587495407055983728484896194
33,436.438098726209773824974881374719672,436.438737664488605813394503726828983,-0.000638938278831988419622352109311
34,463.244138718201342644334224383294063,463.244747457345861167116743447238563,-0.000608739144518522782519063944500
35,490.850002290183919576867348784128369,490.850583034740531445477080908826363,-0.000580744556611868609732124697994
36,519.255699473676575305204796209331346,519.256254213131713040822378061515802,-0.000554739455137735617581852184456
37,548.461239467206380675549054046843536,548.461770001988202746931066084489366,-0.000530534781822071382012037645830
38,578.466630726128522674595286900812205,578.467138689887699084412114231054487,-0.000507963759176409816827330242282
39,609.271881040650651756056683068421668,609.272367919431256112867642669181995,-0.000486878780604356810959600760327
40,640.876997603873542220650092119624295,640.877464752672458999533370374659484,-0.000467148798916778883278255035189
41,673.281987071343397079798653920335519,673.282435728466950062725271658598540,-0.000448657123552982926617738263021
42,706.486855613356136231900709293942856,706.487286912910772048806728651756538,-0.000431299554635816906019357813682
43,740.491608961047520435177299304602828,740.492023943843475756105601853036496,-0.000414982795955320928302548433668
44,775.296252447134869545671105314606973,775.296652070234851170656859800206882,-0.000399623099981624985754485599909
45,810.900791042038563920025668398571766,810.901176187145294551282256135266549,-0.000385145106730631256587736694783
46,847.305229385998381600123982708515708,847.305600866843638955377946547047275,-0.000371480845257355253963838531567
47,884.509571817706247284370384544590740,884.509930386578368047585985116017724,-0.000358568872120763215600571426984
48,922.513822399899382726181608722118155,922.514168753425029746317317723944632,-0.000346353525647020135709001826477
49,961.317984942293185656381512544117877,961.318319726571630723057408988409933,-0.000334784278445066675896444292056
50,1000.92206302217904161256164531631367,1000.92238683735261726772529674372990,-0.00032381517357565516365142741623
51,1041.32606000296680609601483032633587,1041.32637340729898653651066319998071,-0.00031340433218044049583287364484
52,1082.52997905091334926256426068573184,1082.53028256443569891327643712636656,-0.00030351352234965071217644063472
53,1124.53382315024610523507693772369435,1124.53411725802673457604546367054229,-0.00029410778062934096852594684794
54,1167.33759511686300699400453610744881,1167.33788027194191663856739171183504,-0.00028515507890964456285560438623
55,1210.94129761076671230979179256868576,1210.94157423679725934533532956400984,-0.00027662603054703554353699532408
56,1255.34493314737095161087481169280614,1255.34520164100145011051365740725509,-0.00026849363049849963884571444895
57,1300.54850410779962971587910504671270,1300.54876484082464770774899131408246,-0.00026073302501799186988626736976
58,1346.55201274828451617234157243391699,1346.55226606959162844675967169588956,-0.00025332130711227441809926197257
59,1393.35546120875460499701032591295641,1393.35570744608910263284004085506355,-0.00024623733449763582971494210714
60,1440.95885152069920010507786859093744,1440.95909098226645710737722216823696,-0.00023946156725700229935357729952
61,1489.36218561437721848820209210067784,1489.36241859030000338049379162558284,-0.00023297592278489229169952490500
62,1538.56546532543690219605901917364365,1538.56569208908283847589758209778101,-0.00022676364593627983856292413736
63,1588.56869240100288828715328841691767,1588.56891321019546346682133112406597,-0.00022080919257517966804270714830
64,1639.37186850528127343469252168123935,1639.37208360340623048775825799736617,-0.00021509812495705306573631612682
65,1690.97499522472777503336072349290648,1690.97520484174535774846262282024818,-0.00020961701758271510189932734170
66,1743.37807407281924331377361584094925,1743.37827842619157971590514419262218,-0.00020435337233640213152835167293
67,1796.58110649446451668007434635704530,1796.58130579000638710842655434693056,-0.00019929554187042835220798988526
68,1850.58409387008685632532078659406729,1850.58428830274718446002723182080930,-0.00019443266032813470644522674201
69,1905.38703751940688350858984783461238,1905.38722727398749168299259576497816,-0.00018975458060817440274793036578
70,1960.98993870495201460946142287866482,1960.99012395676948467544060351113374,-0.00018525181747006597918063246892
71,2017.39279863531579037181392091527383,2017.39297955081165423008405686450602,-0.00018091549586385827013594923219
72,2074.59561846818819750648463467992292,2074.59579520549213762639781315148793,-0.00017673730394011991317847156501
73,2132.59839931317602781594500759179044,2132.59857202262628682800084369565818,-0.00017270945025901205583610386774
74,2191.40114223443050115558889074082150,2191.40131105905527400819417364108445,-0.00016882462477285260528290026295
75,2251.00384825309774744512918143860354,2251.00401332906095180583879687140860,-0.00016507596320436070961543280506
76,2311.40651834960629338684356413085934,2311.40667980662077869500708244953676,-0.00016145701448530816351831867742
77,2372.60915346580439714899219268331744,2372.60931142751535408926203830075868,-0.00015796171095694026984561744124
78,2434.61175450695890847455035352749870,2434.61190909129997471235762001233192,-0.00015458434106623780726648483322
79,2497.41432234362628485540714812935401,2497.41447366315060547108203893870108,-0.00015131952432061567489080934707
80,2561.01685781340545628653710697422881,2561.01700597559374526501015936678031,-0.00014816218828897847305239255150
81,2625.41936172258138177317510221788737,2625.41950683012884083589918718133906,-0.00014510754745906272408496345169
82,2690.62183484766737931347172740258213,2690.62197699875116025396450285040399,-0.00014215108378094049277544782186
83,2756.62427793685362234531675975094275,2756.62441722538236622444501438059539,-0.00013928852874387912825462965264
84,2823.42669171136857135430231756119485,2823.42682822721542056588802912439906,-0.00013651584684921158571156320421
85,2891.02907686675955006362376003107826,2891.02921069597990567667348810283317,-0.00013382922035561304972807175491
86,2959.43143407409815976132723318007265,2959.43156529913334529062811870124914,-0.00013122503518552930088552117649
87,3028.63376398111576784951285235214543,3028.63389268098365998818462472575644,-0.00012869986789213867177237361101
88,3098.63606721327388332236703392108840,3098.63619346374747953173300958091069,-0.00012625047359620936597565982229
89,3169.43834437477384837773599475428741,3169.43846824854865913913836677790990,-0.00012387377481076140237202362249
90,3241.04059604950993215022322626096515,3241.04071761636101137069365382789202,-0.00012156685107922047042756692687
91,3313.44282280196959110174310815129687,3313.44294212889895078628794098317340,-0.00011932692935968454483283187653
92,3386.64502517808437230792379555097898,3386.64514232945946655364361390659905,-0.00011715137509424571981835562007
93,3460.64720370603467362369686239293266,3460.64731874371858142409351741412573,-0.00011503768390780039665502119307
94,3535.44935889701133178267316623364316,3535.44947188048521768134624590819690,-0.00011298347388589867307967455374
95,3611.05149124593678833087538290999027,3611.05160223241517395668807844171265,-0.00011098647838562581269553172238
96,3687.45360123214838147328136082000189,3687.45371027668771922423533936895526,-0.00010904453933775095397854895337
97,3764.65568932004612756952267473358947,3764.65579647564712933890731523465176,-0.00010715560100176938464050106229
98,3842.65775595970718314078834492932544,3842.65786127741132232999470718010856,-0.00010531770413918920636225078312
99,3921.45980158746902477779428496636929,3921.45990511644959775154203603311770,-0.00010352898057297374775106674841
100,4001.06182662648323799926327737044923,4001.06192841413134216773290747120333,-0.00010178764810416846963010075410
101,4081.46383148724167680620558439218374,4081.46393157924743572091276068830656,-0.00010009200575891470717629612282
102,4162.66581656807663010256938448548197,4162.66591500850597153304560634650593,-0.00009844042934143047622186102396
103,4244.66778225563652323921734566691876,4244.66787908700379383867532977157448,-0.00009683136727059945798410465572
104,4327.46972892533857567347507813458939,4327.46982418867525507354148581524218,-0.00009526333667940006640768065279
105,4411.07165694179974266274062626753633,4411.07175067671950113111184579384102,-0.00009373491975846837121952630469
106,4495.47356665924717814640017239455377,4495.47365890400750441784853319474322,-0.00009224476032627144836080018945
107,4580.67545842190937788833987697997141,4580.67554921346998780936462206468536,-0.00009079156060992102474508471395
108,4666.67733256438908271278938064717361,4666.67742193846730465052586692191226,-0.00008937407822193773648627473865
109,4753.47918941201895307269826119938247,4753.47927740314227235415628459987634,-0.00008799112331928145802340049387
110,4841.08102928120096376972182365207641,4841.08111592275689600160045032318294,-0.00008664155593223187862667110653
111,4929.48285247973040178369395150412137,4929.48293780401385326327334589836135,-0.00008532428345147957939439423998
112,5018.68465930710530073583134655938998,5018.68474334536356350109764016225374,-0.00008403825826276526629360286376
113,5108.68645005482208997411943862157834,5108.68653283729760920031251405073684,-0.00008278247551922619307542915850
114,5199.48822500665818751157383051441224,5199.48830656262922977951774548443651,-0.00008155597104226794391497002427
115,5291.08998443894222559956863873788883,5291.09006479676156813304454558451639,-0.00008035781934253347590684662756
116,5383.49172862081254938677486730558542,5383.49180780794430251873480113925279,-0.00007918713175313195993383366737
117,5476.69345781446459740124517921119594,5476.69353585751926529209160832797526,-0.00007804305466789084642911677932
118,5570.69517227538773156207582715806077,5570.69524920015560939896535759108999,-0.00007692476787783688953043302922
119,5665.49687225259205071336031625011047,5665.49694808407505045996277646527630,-0.00007583148299974660246021516583
120,5761.09855798882569583091425410508866,5761.09863275126768671061125618155651,-0.00007476244199087969700207646785
121,5857.50022972078311678500672084991050,5857.50030343769886133339664729589775,-0.00007371691574454838992644598725
122,5954.70188767930475162920067763883215,5954.70196037350751312204355978823837,-0.00007269420276149284288214940622
123,6052.70353208956853719247291068253280,6052.70360378319642959106731200429415,-0.00007169362789239859440132176135
124,6151.50516317127365207197539849421056,6151.50523388581479929951448498874517,-0.00007071454114722753908649453461
125,6251.10678113881686355753681929604231,6251.10685089513343083374307171295294,-0.00006975631656727620625241691063
126,6351.50838620146183482170542347636660,6351.50845501981299105325494689071550,-0.00006881835115623154952341434890
127,6452.70997856350172813124805473131701,6452.71004646356559481979143037319777,-0.00006790006386668854337564188076
128,6554.71155842441541724883021613115000,6554.71162542531005607924268125634814,-0.00006700089463883041246512519814
129,6657.51312597901761012036401915322174,6657.51319209932109836477316090112947,-0.00006612030348824440914174790773
130,6761.11468141760316456164353470450857,6761.11474667537280455142681380692824,-0.00006525776963998978327910241967
131,6865.51622492608586425376900409049398,6865.51628933887657049402679089510196,-0.00006441279070624025778680460798
132,6970.71775668613190737966051888951406,6970.71782027101381233934627595008606,-0.00006358488190495968575706057200
133,7076.71927687528834845237806072276061,7076.71933964886366585998903760618732,-0.00006277357531740761097688342671
134,7183.52078566710672261000551684699198,7183.52084764552590471388039090902473,-0.00006197841918210387487406203275
135,7291.12228323126206354351414440490639,7291.12234443023928683154650408112709,-0.00006119897722328803235967622070
136,7399.52376973366752253649058266432025,7399.52383016849553455725438038393202,-0.00006043482801202076379771961177
137,7508.72524533658478278767062020316021,7508.72530502214914075968882345377563,-0.00005968556435797201820325061542
138,7618.72671019873044957522968159203394,7618.72676914952317989625195326152460,-0.00005895079273032102227166949066
139,7729.52816447537859471587518610519867,7729.52822270551130086940747640323012,-0.00005823013270615353229029803145
140,7841.12960831845961832581764431162793,7841.12966584167606313623780975892331,-0.00005752321644481042016544729538
141,7953.53104187665558633320761070373061,7953.53109870634377324105542967199407,-0.00005682968818690784781896826346
142,8066.73246529549219411835821644054815,8066.73252144469597071586692560589567,-0.00005614920377659750870916534752
143,8180.73387871742749800790398102860119,8180.73393419885770388964006375235762,-0.00005548143020588173608272375643
144,8295.53528228193754916940945412470145,8295.53533710798272899511295459079363,-0.00005482604517982570350046609218
145,8411.13667612559906026518229115523404,8411.13673030833576184936297180071450,-0.00005418273670158418068064548046
146,8527.53806038216922735529424027424204,8527.53811393337190351692073730703561,-0.00005355120267616162649703279357
147,8644.73943518266282133684767568882216,8644.73948811381335331797687432930512,-0.00005293115053198112919864048296
148,8762.74080065542666424849198867473379,8762.74085297772352361706091202705951,-0.00005232229685936856892335232572
149,8881.54215692621159224111962867853880,8881.54220865057865723837042353195856,-0.00005172436706499725079485341976
150,9001.14350411824200885559481675637548,9001.14355525533705049959184259969499,-0.00005113709504164399702584331951
151,9121.54484235228312452174361264607173,9121.54489291250597680981679120582536,-0.00005056022285228807317855975363
152,9242.74617174670597257774994714874102,9242.74622174020640059180462209068856,-0.00004999350042801405467494194754
153,9364.74749241755029075962511393390690,9364.74754185423556967959435767678009,-0.00004943668527891996924374287319
154,9487.54880447858535205996653512691721,9487.54885336812756951472663903665387,-0.00004888954221745476010390973666
155,9611.15010804136882319197158073318848,9611.15015639321191674256732940984206,-0.00004835184309355059574867665358
156,9735.55140321530372852504226492311446,9735.55145103867026945261385619351728,-0.00004782336654092757159127040282
157,9860.75269010769359053855675905037059,9860.75273741159132469087000471774193,-0.00004730389773415231324566737134
158,9986.75396882379581861188083903772761,9986.75401561702397440879071797667985,-0.00004679322815579690987893895224
159,10113.5552394668734098234247334460907,10113.5552857580287831458661238652524,-0.0000462911553733224413904191617
160,10241.1565021382450280962548658974303,10241.1565479357278532461879354867245,-0.0000457974828251499330695892942
161,10369.5577569373335201863513908534192,10369.5578022493531357207143177616750,-0.0000453120196155343629269082558
162,10498.7590039617129279745826813897559,10498.7590487962932457609757150030687,-0.0000448345803177863930336133128
163,10628.7602433071540519156661210556186,10628.7602876721388374398321269505915,-0.0000443649847855241660058949729
164,10759.5614750676686202806798663650617,10759.5615189707265917772817601837069,-0.0000439030579714966018938186452
165,10891.1626993355521127933130534191381,10891.1627427841818664487467323663836,-0.0000434486297536554336789472455
166,11023.5639162014252891754132266547125,11023.5639592029600573801195899319498,-0.0000430015347682047063632772373
167,11156.7651257542744698341201021949758,11156.7651683158867190765540743661524,-0.0000425616122492424339721711766
168,11290.7663280814906113794689225206993,11290.7663702101964860618515650748917,-0.0000421287058746823826425541924
169,11425.5675232689072220345240665439758,11425.5675649715708403085685508392331,-0.0000417026636182740444842952573
170,11561.1687114008371566811281014653499,11561.1687526841747639960067929674798,-0.0000412833376073148786915021299
171,11697.5698925601083317356971172178902,11697.5699334306923176484689644016138,-0.0000408705839859127718471837236
172,11834.7710668280983977216898015914270,11834.7711072923611812028886250193008,-0.0000404642627834811988234278738
