Eigenstate,Energy,Diagonal Energy,Residual Energy
1,0.500000000000059968134956424638208322,0.536844929114528343918880273712156099,-0.036844929114468375783923849073947777
2,1.84623093765150632225316901684968663,1.87489076802969273945125057243700050,-0.02865983037818641719808155558731387
3,3.93633760970612726511602685065152736,3.95623090880462126828114393420265306,-0.01989329909849400316511708355112570
4,6.79966527781664062048837343954913352,6.81404497809387814347479438770497591,-0.01437970027723752298642094815584239
5,10.4480465752898531905591100357467691,10.4589205604037613019573308558617471,-0.0108739851139081113982208201149780
6,14.8870659968767187640938616163732224,14.8955994064923315731409527566250607,-0.0085334096156128090470911402518383
7,20.1197208240136716395537049529238120,20.1266171135078377374844725488408885,-0.0068962894941660979307675959170765
8,26.1477838430767511781598498573232977,26.1534892178572856918972045498453335,-0.0057053747805345137373546925220358
9,32.9723835530717170375237407312931156,32.9771940588831219579913553382310225,-0.0048105058114049204676146069379069
10,40.5942802081468182801873648840919162,40.5983999916340077251454415544766917,-0.0041197834871894449580766703847755
11,49.0140093784428783667429838654165774,49.0175839000481967961866582146988277,-0.0035745216053184294436743492822503
12,58.2319621592643737290313637641927836,58.2350979899342027116710280813451923,-0.0031358306698289826396643171524087
13,68.2484326806769966838053426902292225,68.2512097825246746433708230672610958,-0.0027771018476779595654803770318733
14,79.0636476403638003381935471672777101,79.0661272573988691307691123566637355,-0.0024796170350687925755651893860254
15,90.6777854194393734465977132788700421,90.6800153064125366839088072862919660,-0.0022298869731632373110940074219239
16,103.090988887320279244156272088509059,103.093006869880569662333591700522130,-0.002017982560290418177319612013071
17,116.303374235186555828340872221078113,116.305210692609005460118978413410298,-0.001836457422449631778106192332185
18,130.315037226987913058281826494705346,130.316716860716175406879466435057939,-0.001679633728262348597639940352593
19,145.126057722547708474294472347013806,145.127600840100963072626022049245840,-0.001543117553254598331549702232034
20,160.736503015196882588522894604271519,160.737926478224652085852001631018433,-0.001423463027769497329107026746914
21,177.146430337855655263033668335553787,177.147748273000955453977286302779321,-0.001317935145300190943617967225534
22,194.355888774192265274693754342404690,194.357113113549403638498165500224013,-0.001224339357138363804411157819323
23,212.364920736559494558658894986087673,212.366061633790230971324794508877277,-0.001140897230736412665899522789604
24,231.173563123395090064062847033983431,231.174629277820242129573093367686383,-0.001066154425152065510246333702952
25,250.781848236017689918597783061795237,250.782847147712966790853848986364826,-0.000998911695276872256065924569589
26,271.189804512434411007087569564512174,271.190742684976690991560729478464572,-0.000938172542279984473159913952398
27,292.397457120303424675135468467506730,292.398340223359353240361538697763530,-0.000883103055928565226070230256800
28,314.404828440292996464658756393739660,314.405661441088413290542690310243762,-0.000833000795416825883933916504102
29,337.211938463283437969962778406686663,337.212725733730089550598322393748976,-0.000787270446651580635543987062313
30,360.818805119208931336050670239497813,360.819550523822258708435284858398332,-0.000745404613327372384614618900519
31,385.225444551190248422450968433864245,385.226151519725501387219549567223435,-0.000706968535252964768581133359190
32,410.431871345531487072323574937131581,410.432542933369762541150065205031277,-0.000671587838275468826490267899696
33,436.438098725844299123359778321846842,436.438737664488605813394503726828983,-0.000638938644306690034725404982141
34,463.244138717812538531499938177053214,463.244747457345861167116743447238563,-0.000608739533322635616805270185349
35,490.850002289771062913300692015361206,490.850583034740531445477080908826363,-0.000580744969468532176388893465157
36,519.255699473238942934628492320360945,519.256254213131713040822378061515802,-0.000554739892770106193885741154857
37,548.461239466743249425148773895284148,548.461770001988202746931066084489366,-0.000530535244953321782292189205218
38,578.466630725639169355182508267476946,578.467138689887699084412114231054487,-0.000507964248529729229605963577541
39,609.271881040134353162176530135123729,609.272367919431256112867642669181995,-0.000486879296902950691112534058266
40,640.876997603329575130641790529060320,640.877464752672458999533370374659484,-0.000467149342883868891579845599164
41,673.281987070771038255815001903952433,673.282435728466950062725271658598540,-0.000448657695911806910269754646107
42,706.486855612754662419891956616582034,706.487286912910772048806728651756538,-0.000431300156109628914772035174504
43,740.491608960416208364843997391167701,740.492023943843475756105601853036496,-0.000414983427267391261604461868795
44,775.296252446472995930389808073533888,775.296652070234851170656859800206882,-0.000399623761855240267051726672994
45,810.900791041345405456750795810008007,810.901176187145294551282256135266549,-0.000385145799889094531460325258542
46,847.305229385273214969268686123406795,847.305600866843638955377946547047275,-0.000371481570423986109260423640480
47,884.509571816948349149668856524060199,884.509930386578368047585985116017724,-0.000358569630018897917128591957525
48,922.513822399108029734534946892386755,922.514168753425029746317317723944632,-0.000346354317000011782370831557877
49,961.317984941467654437688965607198050,961.318319726571630723057408988409933,-0.000334785103976285368443381211883
50,1000.92206302131860877953883062358952,1000.92238683735261726772529674372990,-0.00032381603400848818646612014038
51,1041.32606000207074824400030933802328,1041.32637340729898653651066319998071,-0.00031340522823829251035386195743
52,1082.52997904998094296931568508295090,1082.53028256443569891327643712636656,-0.00030351445475594396075204341566
53,1124.53382314927662706055783035259332,1124.53411725802673457604546367054229,-0.00029410875010751548763331794897
54,1167.33759511585573348016264290793911,1167.33788027194191663856739171183504,-0.00028515608618315840474880389593
55,1210.94129760972091998032983143565644,1210.94157423679725934533532956400984,-0.00027662707633936500549812835340
56,1255.34493314628591697101434866516631,1255.34520164100145011051365740725509,-0.00026849471553313949930874208878
57,1300.54850410667462925211820554723699,1300.54876484082464770774899131408246,-0.00026073415001845563078576684547
58,1346.55201274711882635220680287762692,1346.55226606959162844675967169588956,-0.00025332247280209455286881826264
59,1393.35546120754750226880361844821565,1393.35570744608910263284004085506355,-0.00024623854160036403642240684790
60,1440.95885151944996089761870649015716,1440.95909098226645710737722216823696,-0.00023946281649620975851567807980
61,1489.36218561308511921056542514733524,1489.36241859030000338049379162558284,-0.00023297721488416992836647824760
62,1538.56546532410121923730927584280749,1538.56569208908283847589758209778101,-0.00022676498161923858830625497352
63,1588.56869239962289801607481434364366,1588.56891321019546346682133112406597,-0.00022081057256545074651678042231
64,1639.37186850385625219951674098218001,1639.37208360340623048775825799736617,-0.00021509954997828824151701518616
65,1690.97499522325699916149028999789475,1690.97520484174535774846262282024818,-0.00020961848835858697233282235343
66,1743.37807407130198911150379562907710,1743.37827842619157971590514419262218,-0.00020435488959060440134856354508
67,1796.58110649290006043231184986228906,1796.58130579000638710842655434693056,-0.00019929710632667611470448464150
68,1850.58409386847447429530024804039259,1850.58428830274718446002723182080930,-0.00019443427271016472698378041671
69,1905.38703751774585193758813127654689,1905.38722727398749168299259576497816,-0.00018975624163974540446448843127
70,1960.98993870324160971650991821203910,1960.99012395676948467544060351113374,-0.00018525352787495893068529909464
71,2017.39279863355528835340897796585192,2017.39297955081165423008405686450602,-0.00018091725636587667507889865410
72,2074.59561846637687453629627098109678,2074.59579520549213762639781315148793,-0.00017673911526309010154217039115
73,2132.59839931131316004452401309270639,2132.59857202262628682800084369565818,-0.00017271131312678347683060295179
74,2191.40114223251536471007244246933348,2191.40131105905527400819417364108445,-0.00016882653990929812173117175097
75,2251.00384825112961842894507126876849,2251.00401332906095180583879687140860,-0.00016507793133337689372560264011
76,2311.40651834758444787941313447463084,2311.40667980662077869500708244953676,-0.00016145903633081559394797490592
77,2372.60915346372811120543206688425439,2372.60931142751535408926203830075868,-0.00015796378724288382997141650429
78,2434.61175450482745812537304069004939,2434.61190909129997471235762001233192,-0.00015458647251658698457932228253
79,2497.41432234143894610622059574038728,2497.41447366315060547108203893870108,-0.00015132171165936486144319831380
80,2561.01685781116150511774326897914021,2561.01700597559374526501015936678031,-0.00014816443224014726689038764010
81,2625.41936172028009413966758468200184,2625.41950683012884083589918718133906,-0.00014510984874669623160249933722
82,2690.62183484530803114433256922631216,2690.62197699875116025396450285040399,-0.00014215344312910963193362409183
83,2756.62427793443548954351240154536454,2756.62441722538236622444501438059539,-0.00013929094687668093261283523085
84,2823.42669170889092979637880767572462,2823.42682822721542056588802912439906,-0.00013651832449076950922144867444
85,2891.02907686422167559940124311776932,2891.02921069597990567667348810283317,-0.00013383175823007727224498506385
86,2959.43143407149932821359376346019594,2959.43156529913334529062811870124914,-0.00013122763401707703435524105320
87,3028.63376397845525501371757042706478,3028.63389268098365998818462472575644,-0.00012870252840497446705429869166
88,3098.63606721055096496631274334774679,3098.63619346374747953173300958091069,-0.00012625319651456542026623316390
89,3169.43834437198780024127117203731545,3169.43846824854865913913836677790990,-0.00012387656085889786719474059445
90,3241.04059604666002994493349550185290,3241.04071761636101137069365382789202,-0.00012156970098142576015832603912
91,3313.44282279905511051064220935217605,3313.44294212889895078628794098317340,-0.00011932984384027564573163099735
92,3386.64502517510458898514407370680865,3386.64514232945946655364361390659905,-0.00011715435487756849954019979040
93,3460.64720370298886319417930256340330,3460.64731874371858142409351741412573,-0.00011504072971822991421485072243
94,3535.44935889389876984185699812333018,3535.44947188048521768134624590819690,-0.00011298658644783948924778486672
95,3611.05149124275675044438727684606384,3611.05160223241517395668807844171265,-0.00011098965842351230080159564881
96,3687.45360122890014317662423579062529,3687.45371027668771922423533936895526,-0.00010904778757604761110357832997
97,3764.65568931672896436776413739208562,3764.65579647564712933890731523465176,-0.00010715891816497114317784256614
98,3842.65775595632037050824877776493249,3842.65786127741132232999470718010856,-0.00010532109095182174592941517607
99,3921.45980158401183815773460020243878,3921.45990511644959775154203603311770,-0.00010353243775959380743583067892
100,4001.06182662295495280357235235030427,4001.06192841413134216773290747120333,-0.00010179117638936416055512089906
101,4081.46383148364156841508739319966323,4081.46393157924743572091276068830656,-0.00010009560586730582536748864333
102,4162.66581656440397386422983953135294,4162.66591500850597153304560634650593,-0.00009844410199766881576681515299
103,4244.66778225189059446955086236049289,4244.66787908700379383867532977157448,-0.00009683511319936912446741108159
104,4327.46972892151864965575087447946934,4327.46982418867525507354148581524218,-0.00009526715660541779061133577284
105,4411.07165693790509464728876906428009,4411.07175067671950113111184579384102,-0.00009373881440648382307672956093
106,4495.47356665527708335029738064870733,4495.47365890400750441784853319474322,-0.00009224873042106755115254603589
107,4580.67545841786311149509509260389529,4580.67554921346998780936462206468536,-0.00009079560687631426952946079007
108,4666.67733256026591987202911602911258,4666.67742193846730465052586692191226,-0.00008937820138477849675089279968
109,4753.47918940781816889985173239703708,4753.47927740314227235415628459987634,-0.00008799532410345430455220283926
110,4841.08102927692183334570587780837586,4841.08111592275689600160045032318294,-0.00008664583506265589457251480708
111,4929.48285247537220015459779624735627,4929.48293780401385326327334589836135,-0.00008532864165310867554965100508
112,5018.68465930266730291260108892935968,5018.68474334536356350109764016225374,-0.00008404269626058849655123289406
113,5108.68645005030357093224244053861845,5108.68653283729760920031251405073684,-0.00008278699403826807007351211839
114,5199.48822500205842219076288742725950,5199.48830656262922977951774548443651,-0.00008156057080758875485805717701
115,5291.08998443426048890344598774379016,5291.09006479676156813304454558451639,-0.00008036250107922959855784072623
116,5383.49172861604811618255603054545995,5383.49180780794430251873480113925279,-0.00007919189618633617877059379284
117,5476.69345780961674251942264832182960,5476.69353585751926529209160832797526,-0.00007804790252277266896000614566
118,5570.69517227045572979610259381701534,5570.69524920015560939896535759108999,-0.00007692969987960286276377407465
119,5665.49687224757517681933325402325098,5665.49694808407505045996277646527630,-0.00007583649987364062952244202532
120,5761.09855798372322452725735616519554,5761.09863275126768671061125618155651,-0.00007476754446218335390001636097
121,5857.50022971559432275215419806676710,5857.50030343769886133339664729589775,-0.00007372210453858124244922913065
122,5954.70188767402890950927992124093009,5954.70196037350751312204355978823837,-0.00007269947860361276363854730828
123,6052.70353208420492158898732348004017,6052.70360378319642959106731200429415,-0.00007169899150800207998852425398
124,6151.50516316582153754948709851384767,6151.50523388581479929951448498874517,-0.00007071999326175002738647489750
125,6251.10678113327552464134921928484670,6251.10685089513343083374307171295294,-0.00006976185790619239385242810624
126,6351.50838619583054599754568972085388,6351.50845501981299105325494689071550,-0.00006882398244505570925716986162
127,6452.70997855777976384494944843032322,6452.71004646356559481979143037319777,-0.00006790578583097484198194287455
128,6554.71155841860205190601432023667368,6554.71162542531005607924268125634814,-0.00006700670800417322836101967446
129,6657.51312597311211808612285368764188,6657.51319209932109836477316090112947,-0.00006612620898027865030721348759
130,6761.11468141160482016022156327389483,6761.11474667537280455142681380692824,-0.00006526376798439120525053303341
131,6865.51622491999394176824503413380911,6865.51628933887657049402679089510196,-0.00006441888262872578175676129285
132,6970.71775667994568105162949794122489,6970.71782027101381233934627595008606,-0.00006359106813128771677800886117
133,7076.71927686900709248163277146951906,7076.71933964886366585998903760618732,-0.00006277985657337835626613666826
134,7183.52078566072971115421817275550728,7183.52084764552590471388039090902473,-0.00006198479619355966221815351745
135,7291.12228322478857071791788803286352,7291.12234443023928683154650408112709,-0.00006120545071611362861604826357
136,7399.52376972709682241356088900411495,7399.52383016849553455725438038393202,-0.00006044139871214369349137981707
137,7508.72524532991614939680660653540415,7508.72530502214914075968882345377563,-0.00005969223299136288221691837148
138,7618.72671019196315690243532582804178,7618.72676914952317989625195326152460,-0.00005895756002299381662743348282
139,7729.52816446851191670344045533912366,7729.52822270551130086940747640323012,-0.00005823699938416596702106410646
140,7841.12960831149282887199953490991144,7841.12966584167606313623780975892331,-0.00005753018323426423827484901187
141,7953.53104186958795929191110186484473,7953.53109870634377324105542967199407,-0.00005683675581394914432780714934
142,8066.73246528832300329881713840699657,8066.73252144469597071586692560589567,-0.00005615637296741704978719889910
143,8180.73387871015601717436179931393871,8180.73393419885770388964006375235762,-0.00005548870168671527826443841891
144,8295.53528227456305204079997110990203,8295.53533710798272899511295459079363,-0.00005483341967695431298348089160
145,8411.13667611812082051481026640789456,8411.13673030833576184936297180071450,-0.00005419021494133455270539281994
146,8527.53806037458651861051593052329219,8527.53811393337190351692073730703561,-0.00005355878538490640480678374342
147,8644.73943517497491717875129563569897,8644.73948811381335331797687432930512,-0.00005293883843613922557869360615
148,8762.74080064763283821157809386247896,8762.74085297772352361706091202705951,-0.00005233009068540548281816458055
149,8881.54215691831111781298142103566938,8881.54220865057865723837042353195856,-0.00005173226753942538900249628918
150,9001.14350411023415947659837431670647,9001.14355525533705049959184259969499,-0.00005114510289102299346828298852
151,9121.54484234416717358470804371368313,9121.54489291250597680981679120582536,-0.00005056833880322510874749214223
152,9242.74617173848119342762747018763440,9242.74622174020640059180462209068856,-0.00005000172520716417715190305416
153,9364.74749240921595669318106372534321,9364.74754185423556967959435767678009,-0.00004944501961298641329395143688
154,9487.54880447014073632545929615792073,9487.54885336812756951472663903665387,-0.00004889798683318926734287873314
155,9611.15010803281319898883244848537914,9611.15015639321191674256732940984206,-0.00004836039871775373488092446292
156,9735.55140320663636900355523541171734,9735.55145103867026945261385619351728,-0.00004783203390044905862078179994
157,9860.75269009891376879953824776937403,9860.75273741159132469087000471774193,-0.00004731267755589133175694836790
158,9986.75396881490280770635932948999169,9986.75401561702397440879071797667985,-0.00004680212116670243138848668816
159,10113.5552394578664827523203560934500,10113.5552857580287831458661238652524,-0.0000463001623003935457677718024
160,10241.1565021291234578100589078841407,10241.1565479357278532461879354867245,-0.0000458066043954361290276025838
161,10369.5577569280965795848057371039975,10369.5578022493531357207143177616750,-0.0000453212565561359085806576775
162,10498.7590039523598899063591873753268,10498.7590487962932457609757150030687,-0.0000448439333558546165276277419
163,10628.7602432976841891780459180570171,10628.7602876721388374398321269505915,-0.0000443744546482617862088935744
164,10759.5614750580812056192325993227022,10759.5615189707265917772817601837069,-0.0000439126453861580491608610047
165,10891.1626993258464189015760516487601,10891.1627427841818664487467323663836,-0.0000434583354475471706807176235
166,11023.5639161916005886945706081656139,11023.5639592029600573801195899319498,-0.0000430113594686855489817663359
167,11156.7651257443300353526818118400024,11156.7651683158867190765540743661524,-0.0000425715566837238722625261500
168,11290.7663280714257154329497039608806,11290.7663702101964860618515650748917,-0.0000421387707706289018611140111
169,11425.5675232587211371051223688941533,11425.5675649715708403085685508392331,-0.0000417128497032034461819450798
170,11561.1687113905291551974049203105579,11561.1687526841747639960067929674798,-0.0000412936456087986018726569219
171,11697.5698925496776860722547706915695,11697.5699334306923176484689644016138,-0.0000408810146315762141937100443
172,11834.7710668175443801988506414551555,11834.7711072923611812028886250193008,-0.0000404748168010040379835641453
