Eigenstate,Energy,Kinetic Energy,Potential Energy
1,0.500000000135850820013265008150250331,0.0,0.500000000135850820013265008150250331
2,1.84623093853788180646963574083933274,1.2,0.64623093853788180646963574083933274
3,3.93633761230980000543942792470714343,3.2,0.73633761230980000543942792470714343
4,6.79966528323984009008446202814961342,6.0,0.79966528323984009008446202814961342
5,10.4480465846840469851286663843039886,9.6,0.8480465846840469851286663843039886
6,14.8870660114135915289014718302716994,14.0,0.8870660114135915289014718302716994
7,20.1197208448744410418292103861893297,19.2,0.9197208448744410418292103861893297
8,26.1477838714477204363109415950327176,25.2,0.9477838714477204363109415950327176
9,32.9723835901422143888525960495226618,32.0,0.9723835901422143888525960495226618
10,40.5942802551081581259969319663936048,39.6,0.9942802551081581259969319663936048
11,49.0140094364878033874245301236111612,48.0,1.0140094364878033874245301236111612
12,58.2319622295867421050877175663053180,57.2,1.0319622295867421050877175663053180
13,68.2484327644716027645028688007471560,67.2,1.0484327644716027645028688007471560
14,79.0636477388262721207243791938305546,78.0,1.0636477388262721207243791938305546
15,90.6777855337661164049341351662857249,89.6,1.0777855337661164049341351662857249
16,103.090989018708449284052414547342410,102.0,1.090989018708449284052414547342410
17,116.303374384834051200262442317240200,115.2,1.103374384834051200262442317240200
18,130.315037396093378995908432119707569,129.2,1.115037396093378995908432119707569
19,145.126057912310550611174157812343835,144.0,1.126057912310550611174157812343835
20,160.736503226817286579332870330318184,159.6,1.136503226817286579332870330318184
21,177.146430572534610888068496017718429,176.0,1.146430572534610888068496017718429
22,194.355889033131593849631631914561600,193.2,1.155889033131593849631631914561600
23,212.364921020961878826924873144637760,211.2,1.164921020961878826924873144637760
24,231.173563434464105986625901824851963,230.0,1.173563434464105986625901824851963
25,250.781848574957839938087020472190710,249.6,1.181848574957839938087020472190710
26,271.189804880451158475728579267140168,270.0,1.189804880451158475728579267140168
27,292.397457518603229215599078371638384,291.2,1.197457518603229215599078371638384
28,314.404828870083350090039787181176119,313.2,1.204828870083350090039787181176119
29,337.211938925772901830692874240678141,336.0,1.211938925772901830692874240678141
30,360.818805615607172992222244159939685,359.6,1.218805615607172992222244159939685
31,385.225445082708079562928518455523053,384.0,1.225445082708079562928518455523053
32,410.431871913380901619307252452404454,409.2,1.231871913380901619307252452404454
33,436.438099331238511674256185844684600,435.2,1.238099331238511674256185844684600
34,463.244139361966023100116978454615995,462.0,1.244139361966023100116978454615995
35,490.850002973899591940284048342081936,489.6,1.250002973899591940284048342081936
36,519.255700198559626543252896914287221,518.0,1.255700198559626543252896914287221
37,548.461240234474574903475379635151561,547.2,1.261240234474574903475379635151561
38,578.466631537001040849495336064984075,577.2,1.266631537001040849495336064984075
39,609.271881896348131569741677408418156,608.0,1.271881896348131569741677408418156
40,640.876998505618118182362546402391425,639.6,1.276998505618118182362546402391425
41,673.281988020358740781412734715713033,672.0,1.281988020358740781412734715713033
42,706.486856610867496789925987172380357,705.2,1.286856610867496789925987172380357
43,740.491610008281765105269516930230153,739.2,1.291610008281765105269516930230153
44,775.296253545320524506500236465907914,774.0,1.296253545320524506500236465907914
45,810.900792192405855224306745455793152,809.6,1.300792192405855224306745455793152
46,847.305230589779276291415944120157569,846.0,1.305230589779276291415944120157569
47,884.509573076134494678921248352588386,883.2,1.309573076134494678921248352588386
48,922.513823714210555859668334399715522,921.2,1.313823714210555859668334399715522
49,961.317986313724722895877590408730709,960.0,1.317986313724722895877590408730709
50,1000.92206445197028843447995083016764,999.6,1.32206445197028843447995083016764
51,1041.32606149235905703112997792685022,1040.0,1.32606149235905703112997792685022
52,1082.52998060114989000952656433864278,1081.2,1.32998060114989000952656433864278
53,1124.53382476257225494409766233467336,1123.2,1.33382476257225494409766233467336
54,1167.33759679252616072262604157659507,1166.0,1.33759679252616072262604157659507
55,1210.94129935101638365286133796098276,1209.6,1.34129935101638365286133796098276
56,1255.34493495345881550702213776183762,1254.0,1.34493495345881550702213776183762
57,1300.54850598097956543295863917691305,1299.2,1.34850598097956543295863917691305
58,1346.55201468981265047444444079797844,1345.2,1.35201468981265047444444079797844
59,1393.35546321988935549577982078594078,1392.0,1.35546321988935549577982078594078
60,1440.95885360270131879817920179078127,1439.6,1.35885360270131879817920179078127
61,1489.36218776850983548790313892137530,1488.0,1.36218776850983548790313892137530
62,1538.56546755296556965097604460110249,1537.2,1.36546755296556965097604460110249
63,1588.56869470319562450030472137399802,1587.2,1.36869470319562450030472137399802
64,1639.37187088340860718108641364187323,1638.0,1.37187088340860718108641364187323
65,1690.97499768006279008041897899660000,1689.6,1.37499768006279008041897899660000
66,1743.37807660663762314796774003190410,1742.0,1.37807660663762314796774003190410
67,1796.58110910804458944321563866939738,1795.2,1.38110910804458944321563866939738
68,1850.58409656470963996401225737217056,1849.2,1.38409656470963996401225737217056
69,1905.38704029635613114040886708444052,1904.0,1.38704029635613114040886708444052
70,1960.98994156551426010950014945943896,1959.6,1.38994156551426010950014945943896
71,2017.39280158078039418326220817363144,2016.0,1.39280158078039418326220817363144
72,2074.59562149984739267899381252072842,2073.2,1.39562149984739267899381252072842
73,2132.59840243232496627556508101619995,2131.2,1.39840243232496627556508101619995
74,2191.40114544236730021012297813340020,2190.0,1.40114544236730021012297813340020
75,2251.00385155112353652880040345817257,2249.6,1.40385155112353652880040345817257
76,2311.40652173902526104821903161396521,2310.0,1.40652173902526104821903161396521
77,2372.60915694792383828615849607278721,2371.2,1.40915694792383828615849607278721
78,2434.61175808308927182158365577819840,2433.2,1.41175808308927182158365577819840
79,2497.41432601508122072422952374097508,2496.0,1.41432601508122072422952374097508
80,2561.01686158150186456829837053784296,2559.6,1.41686158150186456829837053784296
81,2625.41936558863946020334827095772674,2624.0,1.41936558863946020334827095772674
82,2690.62183881301067200489738036565099,2689.2,1.42183881301067200489738036565099
83,2756.62428200280906859348009127240370,2755.2,1.42428200280906859348009127240370
84,2823.42669587926655471917451880485336,2822.0,1.42669587926655471917451880485336
85,2891.02908113793394773244792548930031,2889.6,1.42908113793394773244792548930031
86,2959.43143844988639219677713880377089,2958.0,1.43143844988639219677713880377089
87,3028.63376846285884872770245977560902,3027.2,1.43376846285884872770245977560902
88,3098.63607180231646976523732499701684,3097.2,1.43607180231646976523732499701684
89,3169.43834907246429148439569893489054,3168.0,1.43834907246429148439569893489054
90,3241.04060085720032783186994441783941,3239.6,1.44060085720032783186994441783941
91,3313.44282772101583122484252778511301,3312.0,1.44282772101583122484252778511301
92,3386.64503020984619615037527961181526,3385.2,1.44503020984619615037527961181526
93,3460.64720885187571964876609518538728,3459.2,1.44720885187571964876609518538728
94,3535.44936415829918973552481830197534,3534.0,1.44936415829918973552481830197534
95,3611.05149662404305166259192549976852,3609.6,1.45149662404305166259192549976852
96,3687.45360672844870009730779079871631,3686.0,1.45360672844870009730779079871631
97,3764.65569493592026095553216384365242,3763.2,1.45569493592026095553216384365242
98,3842.65776169653905375101820149345514,3841.2,1.45776169653905375101820149345514
99,3921.45980744664677185095877284781651,3920.0,1.45980744664677185095877284781651
100,4001.06183260939927168720591011710708,3999.6,1.46183260939927168720591011710708
101,4081.46383759529273266851197461597982,4080.0,1.46383759529273266851197461597982
102,4162.66582280266382396441993040710464,4161.2,1.46582280266382396441993040710464
103,4244.66778861816540641781848751479340,4243.2,1.46778861816540641781848751479340
104,4327.46973541721919057846911441915126,4326.0,1.46973541721919057846911441915126
105,4411.07166356444667877605448190850013,4409.6,1.47166356444667877605448190850013
106,4495.47357341407962838705636101272095,4494.0,1.47357341407962838705636101272095
107,4580.67546531035119536781634703310326,4579.2,1.47546531035119536781634703310326
108,4666.67733958786883788657882682314866,4665.2,1.47733958786883788657882682314866
109,4753.47919657196999129378333329690131,4752.0,1.47919657196999129378333329690131
110,4841.08103657906146324974885149064795,4839.6,1.48103657906146324974885149064795
111,4929.48285991694343196769510490758440,4928.0,1.48285991694343196769510490758440
112,5018.68466688511888109641431626126694,5017.2,1.48466688511888109641431626126694
113,5108.68645777508924923111277357176994,5107.2,1.48645777508924923111277357176994
114,5199.48823287063702328318723820379116,5198.0,1.48823287063702328318723820379116
115,5291.08999244809596449119965464393448,5289.6,1.48999244809596449119965464393448
116,5383.49173677660960752366643016470963,5382.0,1.49173677660960752366643016470963
117,5476.69346611837864141127275527484474,5475.2,1.49346611837864141127275527484474
118,5570.69518072889774001501888171338173,5569.2,1.49518072889774001501888171338173
119,5665.49688085718237602308925604422947,5664.0,1.49688085718237602308925604422947
120,5761.09856674598612662700264527466499,5759.6,1.49856674598612662700264527466499
121,5857.50023863200894076035781478263514,5856.0,1.50023863200894076035781478263514
122,5954.70189674609681887035800306419247,5953.2,1.50189674609681887035800306419247
123,6052.70354131343332399936707019557105,6051.2,1.50354131343332399936707019557105
124,6151.50517255372332527394229550579129,6150.0,1.50517255372332527394229550579129
125,6251.10679068136934533252798637912493,6249.6,1.50679068136934533252798637912493
126,6351.50839590564086802569730932427137,6350.0,1.50839590564086802569730932427137
127,6452.70998843083694214494450251502983,6451.2,1.50998843083694214494450251502983
128,6554.71156845644239434884241237910314,6553.2,1.51156845644239434884241237910314
129,6657.51313617727795238214220937456253,6656.0,1.51313617727795238214220937456253
130,6761.11469178364456130152757220171634,6759.6,1.51469178364456130152757220171634
131,6865.51623546146216001761836402892390,6864.0,1.51623546146216001761836402892390
132,6970.71776739240317048562065804466143,6969.2,1.51776739240317048562065804466143
133,7076.71928775402094009543550883614615,7075.2,1.51928775402094009543550883614615
134,7183.52079671987336653608444890711336,7182.0,1.52079671987336653608444890711336
135,7291.12229445964191630096693266263063,7289.6,1.52229445964191630096693266263063
136,7399.52378113924624431293617062126174,7398.0,1.52378113924624431293617062126174
137,7508.72525692095460884023980171846997,7507.2,1.52525692095460884023980171846997
138,7618.72672196349026226238093044871366,7617.2,1.52672196349026226238093044871366
139,7729.52817642213399613905241469306982,7728.0,1.52817642213399613905241469306982
140,7841.12962044882300358933073568135221,7839.6,1.52962044882300358933073568135221
141,7953.53105419224621743082694449996044,7952.0,1.53105419224621743082694449996044
142,8066.73247779793627445522824219580849,8065.2,1.53247779793627445522824219580849
143,8180.73389140835824756649531012837892,8179.2,1.53389140835824756649531012837892
144,8295.53529516299528032834613610007872,8294.0,1.53529516299528032834613610007872
145,8411.13668919843125427989931128245497,8409.6,1.53668919843125427989931128245497
146,8527.53807364843061150960187158590231,8526.0,1.53807364843061150960187158590231
147,8644.73944864401544677460214811253334,8643.2,1.53944864401544677460214811253334
148,8762.74081431353998449469646026289768,8761.2,1.54081431353998449469646026289768
149,8881.54217078276254242190806570825546,8880.0,1.54217078276254242190806570825546
150,9001.14351817491508562667883407209790,8999.6,1.54351817491508562667883407209790
151,9121.54485661077046671503673369252910,9120.0,1.54485661077046671503673369252910
152,9242.74618620870744257601516648040226,9241.2,1.54618620870744257601516648040226
153,9364.74750708477355660912956745559421,9363.2,1.54750708477355660912956745559421
154,9487.54881935274597033126517913001916,9486.0,1.54881935274597033126517913001916
155,9611.15012312419032259908289202693404,9609.6,1.55012312419032259908289202693404
156,9735.55141850851769431342290110853100,9734.0,1.55141850851769431342290110853100
157,9860.75270561303974965242752276483375,9859.2,1.55270561303974965242752276483375
158,9986.75398454302212565160566125191773,9985.2,1.55398454302212565160566125191773
159,10113.5552554017361338037945608656766,10112.0,1.5552554017361338037945608656766
160,10241.1565182905088400166833019411483,10239.6,1.5565182905088400166833019411483
161,10369.5577733087715814241446543693086,10368.0,1.5577733087715814241446543693086
162,10498.7590205541069795126062456856198,10497.2,1.5590205541069795126062456856198
163,10628.7602601222945044158918313259615,10627.2,1.5602601222945044158918313259615
164,10759.5614921073546450152624756373457,10758.0,1.5614921073546450152624756373457
165,10891.1627166015917334450140242649499,10889.6,1.5627166015917334450140242649499
166,11023.5639336956354745193586355228423,11022.0,1.5639336956354745193586355228423
167,11156.7651434784812273130538941091423,11155.2,1.5651434784812273130538941091423
168,11290.7663460375290815848408423957593,11289.2,1.5663460375290815848408423957593
169,11425.5675414586217741059298417271282,11424.0,1.5675414586217741059298417271282
170,11561.1687298260814846368036336962459,11559.6,1.5687298260814846368036336962459
171,11697.5699112227455517469550905410580,11696.0,1.5699112227455517469550905410580
172,11834.7710857300011463443760831121387,11833.2,1.5710857300011463443760831121387
173,11972.7722534278189383172915279816949,11971.2,1.5722534278189383172915279816949
174,12111.5734143947857921318198501546431,12110.0,1.5734143947857921318198501546431
175,12251.1745687081365253706613845868419,12249.6,1.5745687081365253706613845868419
176,12391.5757164437847599193418806889298,12390.0,1.5757164437847599193418806889298
177,12532.7768576763528990607251164360825,12531.2,1.5768576763528990607251164360825
178,12674.7779924792012596323717957986346,12673.2,1.5779924792012596323717957986346
179,12817.5791209244563856918750679026859,12816.0,1.5791209244563856918750679026859
180,12961.1802430830385746367604352276789,12959.6,1.5802430830385746367604352276789
181,13105.5813590246886384277273646389053,13104.0,1.5813590246886384277273646389053
182,13250.7824688179939276108153710645835,13249.2,1.5824688179939276108153710645835
183,13396.7835725304136411879686478529194,13395.2,1.5835725304136411879686478529194
184,13543.5846702283034465777392901086804,13542.0,1.5846702283034465777392901086804
185,13691.1857619769394314744628520702093,13689.6,1.5857619769394314744628520702093
186,13839.5868478405414085747356244749799,13838.0,1.5868478405414085747356244749799
187,13988.7879278822955969719115404893067,13987.2,1.5879278822955969719115404893067
188,14138.7890021643766956551530718762935,14137.2,1.5890021643766956551530718762935
189,14289.5900707479693728443507964286824,14288.0,1.5900707479693728443507964286824
190,14441.1911336932891868122169907602840,14439.6,1.5911336932891868122169907602840
191,14593.5921910596029574163378801014403,14592.0,1.5921910596029574163378801014403
192,14746.7932429052486047236236906109955,14745.2,1.5932429052486047236236906109955
193,14900.7942892876544730312461359110028,14899.2,1.5942892876544730312461359110028
194,15055.5953302633581536250907481162177,15054.0,1.5953302633581536250907481162177
195,15211.1963658880248242083340619381959,15209.6,1.5963658880248242083340619381959
196,15367.5973962164651186922995724399443,15366.0,1.5973962164651186922995724399443
197,15524.7984213026525417251746201841437,15523.2,1.5984213026525417251746201841437
198,15682.7994411997404421208311830936307,15681.2,1.5994411997404421208311830936307
199,15841.6004559600785580218773229666842,15840.0,1.6004559600785580218773229666842
200,16001.2014656352291477374129614197653,15999.6,1.6014656352291477374129614197653
201,16161.6024702759827172321897850112204,16160.0,1.6024702759827172321897850112204
202,16322.8034699323733576436159432377405,16321.2,1.6034699323733576436159432377405
203,16484.8044646536937034816167424478588,16483.2,1.6044646536937034816167424478588
204,16647.6054544885095231265553407632724,16646.0,1.6054544885095231265553407632724
205,16811.2064394846739515908694809074386,16809.6,1.6064394846739515908694809074386
206,16975.6074196893413785634745270455121,16974.0,1.6074196893413785634745270455121
207,17140.8083951489809976079166222484883,17139.2,1.6083951489809976079166222484883
208,17306.8093659093900307360470035840604,17305.2,1.6093659093900307360470035840604
209,17473.6103320157066341004184047000382,17472.0,1.6103320157066341004184047000382
210,17641.2112935124224963013821352094808,17639.6,1.6112935124224963013821352094808
211,17809.6122504433951366682293512784624,17808.0,1.6122504433951366682293512784624
212,17978.8132028518599137418948859949705,17977.2,1.6132028518599137418948859949705
213,18148.8141507804417483375133857931450,18147.2,1.6141507804417483375133857931450
214,18319.6150942711665761629212663781887,18318.0,1.6150942711665761629212663781887
215,18491.2160333654725291997485687605717,18489.6,1.6160333654725291997485687605717
216,18663.6169681042208598019773994001000,18662.0,1.6169681042208598019773994001000
217,18836.8178985277066114714365168111798,18835.2,1.6178985277066114714365168111798
218,19010.8188246756690452831191645279591,19009.2,1.6188246756690452831191645279591
219,19185.6197465873018252337055404675287,19184.0,1.6197465873018252337055404675287
220,19361.2206643012629750218700110508489,19359.6,1.6206643012629750218700110508489
221,19537.6215778556846041631269591805866,19536.0,1.6215778556846041631269591805866
222,19714.8224872881824206370522333849740,19713.2,1.6224872881824206370522333849740
223,19892.8233926358650236281925134775037,19891.2,1.6233926358650236281925134775037
224,20071.6242939353429914204520833231305,20070.0,1.6242939353429914204520833231305
225,20251.2251912227377670020003999184661,20249.6,1.6251912227377670020003999184661
226,20431.6260845336903449191521598783057,20430.0,1.6260845336903449191521598783057
227,20612.8269739033697680225862124989663,20611.2,1.6269739033697680225862124989663
228,20794.8278593664814359166364688136733,20793.2,1.6278593664814359166364688136733
229,20977.6287409572752322643393761821626,20976.0,1.6287409572752322643393761821626
230,21161.2296187095534756350269692728929,21159.6,1.6296187095534756350269692728929
231,21345.6304926566786956842950460624258,21344.0,1.6304926566786956842950460624258
232,21530.8313628315812450758337177082450,21529.2,1.6313628315812450758337177082450
233,21716.8322292667667421312055588630390,21715.2,1.6322292667667421312055588630390
234,21903.6330919943233603542296125419802,21902.0,1.6330919943233603542296125419802
235,22091.2339510459289580016746536895653,22089.6,1.6339510459289580016746536895653
236,22279.6348064528580573996474214496225,22278.0,1.6348064528580573996474214496225
237,22468.8356582459886776264327656147804,22467.2,1.6356582459886776264327656147804
238,22658.8365064558090222934383649022900,22657.2,1.6365064558090222934383649022900
