Eigenstate,Energy,Kinetic Energy,Potential Energy
1,0.500000000014137905055931835318038486,0.0,0.500000000014137905055931835318038486
2,1.84623093774339947970377151695280280,1.2,0.64623093774339947970377151695280280
3,3.93633760997605473136140864296986072,3.2,0.73633760997605473136140864296986072
4,6.79966527837886509054464394261100329,6.0,0.79966527837886509054464394261100329
5,10.4480465762637330330903519799037121,9.6,0.8480465762637330330903519799037121
6,14.8870659983836961930288207197206873,14.0,0.8870659983836961930288207197206873
7,20.1197208261761619515997723327607953,19.2,0.9197208261761619515997723327607953
8,26.1477838460176785539665229874852691,25.2,0.9477838460176785539665229874852691
9,32.9723835569142978024704478229822488,32.0,0.9723835569142978024704478229822488
10,40.5942802130144500832108318892090214,39.6,0.9942802130144500832108318892090214
11,49.0140093844590792200526779869733561,48.0,1.0140093844590792200526779869733561
12,58.2319621665527464557180623794767524,57.2,1.0319621665527464557180623794767524
13,68.2484326893612071971577134488996012,67.2,1.0484326893612071971577134488996012
14,79.0636476505675638807479110714817870,78.0,1.0636476505675638807479110714817870
15,90.6777854312864456307129516883069549,89.6,1.0777854312864456307129516883069549
16,103.090988900934450108244229508550789,102.0,1.090988900934450108244229508550789
17,116.303374250691645854321130657534505,115.2,1.103374250691645854321130657534505
18,130.315037244507770503865777316585383,129.2,1.115037244507770503865777316585383
19,145.126057742206207610584224532369984,144.0,1.126057742206207610584224532369984
20,160.736503037117922575839818554413013,159.6,1.136503037117922575839818554413013
21,177.146430362163159486234489846183256,176.0,1.146430362163159486234489846183256
22,194.355888801010181015568041992147619,193.2,1.155888801010181015568041992147619
23,212.364920766011792919830922389411019,211.2,1.164920766011792919830922389411019
24,231.173563155605766083442768420428800,230.0,1.173563155605766083442768420428800
25,250.781848271110762830225086021761129,249.6,1.181848271110762830225086021761129
26,271.189804550533924615883142751282665,270.0,1.189804550533924615883142751282665
27,292.397457161533447821328374850761004,291.2,1.197457161533447821328374850761004
28,314.404828484777623559574532753294421,313.2,1.204828484777623559574532753294421
29,337.211938511146789589169918747276496,336.0,1.211938511146789589169918747276496
30,360.818805170575154859040383573914000,359.6,1.218805170575154859040383573914000
31,385.225444606183518710397834563944780,384.0,1.225444606183518710397834563944780
32,410.431871404276007177265591360364773,409.2,1.231871404276007177265591360364773
33,436.438098788464301023502256464706409,435.2,1.238098788464301023502256464706409
34,463.244138784432283888399710910035831,462.0,1.244138784432283888399710910035831
35,490.850002360514843847504672479958217,489.6,1.250002360514843847504672479958217
36,519.255699548231082816981391521683002,518.0,1.255699548231082816981391521683002
37,548.461239546108103681491025290555293,547.2,1.261239546108103681491025290555293
38,578.466630809501126282562343088211892,577.2,1.266630809501126282562343088211892
39,609.271881128617834755023085510993429,608.0,1.271881128617834755023085510993429
40,640.876997696559037915606698542789355,639.6,1.276997696559037915606698542789355
41,673.281987168870974134201428708436673,672.0,1.281987168870974134201428708436673
42,706.486855715849599516762830324275145,705.2,1.286855715849599516762830324275145
43,740.491609068630711884043046300279619,739.2,1.291609068630711884043046300279619
44,775.296252559931669014826156948584500,774.0,1.296252559931669014826156948584500
45,810.900791160172890053395061347299719,809.6,1.300791160172890053395061347299719
46,847.305229509594192698389566049820980,846.0,1.305229509594192698389566049820980
47,884.509571946887542177907057540270111,883.2,1.309571946887542177907057540270111
48,922.513822534790201651468405921206869,921.2,1.313822534790201651468405921206869
49,961.317985083017611135591531993947732,960.0,1.317985083017611135591531993947732
50,1000.92206316886119933607546383970671,999.6,1.32206316886119933607546383970671
51,1041.32606015573086580763667401020599,1040.0,1.32606015573086580763667401020599
52,1082.52997920988352564724975025958751,1081.2,1.32997920988352564724975025958751
53,1124.53382331554665880900656370735090,1123.2,1.33382331554665880900656370735090
54,1167.33759528861824499685883513589876,1166.0,1.33759528861824499685883513589876
55,1210.94129778910098959910298740225417,1209.6,1.34129778910098959910298740225417
56,1255.34493333240867155834597136043938,1254.0,1.34493333240867155834597136043938
57,1300.54850429966524510557597991524476,1299.2,1.34850429966524510557597991524476
58,1346.55201294710253010067461871198790,1345.2,1.35201294710253010067461871198790
59,1393.35546141464957177443510739187457,1392.0,1.35546141464957177443510739187457
60,1440.95885173379572615945145726430567,1439.6,1.35885173379572615945145726430567
61,1489.36218583479996326974132138389022,1488.0,1.36218583479996326974132138389022
62,1538.56546555331057908385371451227046,1537.2,1.36546555331057908385371451227046
63,1588.56869263645226549719398047028939,1587.2,1.36869263645226549719398047028939
64,1639.37186874843117492937778069537494,1638.0,1.37186874843117492937778069537494
65,1690.97499547570308143245431272398811,1689.6,1.37499547570308143245431272398811
66,1743.37807433174489280678605602046785,1742.0,1.37807433174489280678605602046785
67,1796.58110676146550594004745680922503,1795.2,1.38110676146550594004745680922503
68,1850.58409414528824142399728260197640,1849.2,1.38409414528824142399728260197640
69,1905.38703780293378083295326521855975,1904.0,1.38703780293378083295326521855975
70,1960.98993899692960177963437257034736,1959.6,1.38993899692960177963437257034736
71,2017.39279893586930716030530395132534,2016.0,1.39279893586930716030530395132534
72,2074.59561877744294675877862334711238,2073.2,1.39561877744294675877862334711238
73,2132.59839963125737637242672037003977,2131.2,1.39839963125737637242672037003977
74,2191.40114256146388077480347436418114,2190.0,1.40114256146388077480347436418114
75,2251.00384858920865572837272704475165,2249.6,1.40384858920865572837272704475165
76,2311.40651869492029470408573072394267,2310.0,1.40651869492029470408573072394267
77,2372.60915382044712356613182853072024,2371.2,1.40915382044712356613182853072024
78,2434.61175487105606068200662686481831,2433.2,1.41175487105606068200662686481831
79,2497.41432271730363309804983723519438,2496.0,1.41432271730363309804983723519438
80,2561.01685819678884129496068673006322,2559.6,1.41685819678884129496068673006322
81,2625.41936211579671569632226519925095,2624.0,1.41936211579671569632226519925095
82,2690.62183525084064665261278953187904,2689.2,1.42183525084064665261278953187904
83,2756.62427835011088088939219825811604,2755.2,1.42427835011088088939219825811604
84,2823.42669213483595311663641646173894,2822.0,1.42669213483595311663641646173894
85,2891.02907730056326222001800029232575,2889.6,1.42907730056326222001800029232575
86,2959.43143451836448558954264633778508,2958.0,1.43143451836448558954264633778508
87,3028.63376443597106767015117159181820,3027.2,1.43376443597106767015117159181820
88,3098.63606767884459544116095100014888,3097.2,1.43606767884459544116095100014888
89,3169.43834485118649002925932580756304,3168.0,1.43834485118649002925932580756304
90,3241.04059653689110044303223032039818,3239.6,1.44059653689110044303223032039818
91,3313.44282330044596396496063887674037,3312.0,1.44282330044596396496063887674037
92,3386.64502568778270943927830680348902,3385.2,1.44502568778270943927830680348902
93,3460.64720422708181743902868889723138,3459.2,1.44720422708181743902868889723138
94,3535.44935942953420836692080783248113,3534.0,1.44935942953420836692080783248113
95,3611.05149179006240839055485839282074,3609.6,1.45149179006240839055485839282074
96,3687.45360178800384129047194006311458,3686.0,1.45360178800384129047194006311458
97,3764.65568988775860995737265083878821,3763.2,1.45568988775860995737265083878821
98,3842.65775653940395840055467251887075,3841.2,1.45775653940395840055467251887075
99,3921.45980217927745165743025083559204,3920.0,1.45980217927745165743025083559204
100,4001.06182723053076465356851066570507,3999.6,1.46182723053076465356851066570507
101,4081.46383210365584175855299896821846,4080.0,1.46383210365584175855299896821846
102,4162.66581719698506320822381397920294,4161.2,1.46581719698506320822381397920294
103,4244.66778289716694665026080118280694,4243.2,1.46778289716694665026080118280694
104,4327.46972957961880480535385235437792,4326.0,1.46972957961880480535385235437792
105,4411.07165760895768716244949824902611,4409.6,1.47165760895768716244949824902611
106,4495.47356733941084286231924233633148,4494.0,1.47356733941084286231924233633148
107,4580.67545911520686384173968256772924,4579.2,1.47545911520686384173968256772924
108,4666.67733327094858807102008684333630,4665.2,1.47733327094858807102008684333630
109,4753.47919013196877412407891166914506,4752.0,1.47919013196877412407891166914506
110,4841.08103001466949590014572355721820,4839.6,1.48103001466949590014572355721820
111,4929.48285322684614045496643249012663,4928.0,1.48285322684614045496643249012663
112,5018.68466006799684246575628956436979,5017.2,1.48466006799684246575628956436979
113,5108.68645082961813331835103337161932,5107.2,1.48645082961813331835103337161932
114,5199.48822579548753404725020679214531,5198.0,1.48822579548753404725020679214531
115,5291.08998524193378091074410738433098,5289.6,1.48998524193378091074410738433098
116,5383.49172943809532405166763160370004,5382.0,1.49172943809532405166763160370004
117,5476.69345864616770798131747897019951,5475.2,1.49345864616770798131747897019951
118,5570.69517312164040159296361798743158,5569.2,1.49517312164040159296361798743158
119,5665.49687311352361169766965065062087,5664.0,1.49687311352361169766965065062087
120,5761.09855886456558823290167970551290,5759.6,1.49855886456558823290167970551290
121,5857.50023061146089102716109744452843,5856.0,1.50023061146089102716109744452843
122,5954.70188858505006909074390925544287,5953.2,1.50188858505006909074390925544287
123,6052.70353301051117120979720726517923,6051.2,1.50353301051117120979720726517923
124,6151.50516410754348894103474922576123,6150.0,1.50516410754348894103474922576123
125,6251.10678209054390353821050381199325,6249.6,1.50678209054390353821050381199325
126,6351.50838716877619314415143524279391,6350.0,1.50838716877619314415143524279391
127,6452.70997954653363600426443602076159,6451.2,1.50997954653363600426443602076159
128,6554.71155942329522287024239611896199,6553.2,1.51155942329522287024239611896199
129,6657.51312699387577968945631831790981,6656.0,1.51312699387577968945631831790981
130,6761.11468244857028329365310040229935,6759.6,1.51468244857028329365310040229935
131,6865.51622597329263739646054452932599,6864.0,1.51622597329263739646054452932599
132,6970.71775774970916123200031980428609,6969.2,1.51775774970916123200031980428609
133,7076.71927795536703138532573708142512,7075.2,1.51927795536703138532573708142512
134,7183.52078676381790608944220654811082,7182.0,1.52078676381790608944220654811082
135,7291.12228434473694315532585923309608,7289.6,1.52228434473694315532585923309608
136,7399.52377086403741901382545368362991,7398.0,1.52377086403741901382545368362991
137,7508.72524648398114304038900642705773,7507.2,1.52524648398114304038900642705773
138,7618.72671136328484772156609058377995,7617.2,1.52671136328484772156609058377995
139,7729.52816565722273311633106677434448,7728.0,1.52816565722273311633106677434448
140,7841.12960951772532861930426053198778,7839.6,1.52960951772532861930426053198778
141,7953.53104309347483047545817115471874,7952.0,1.53104309347483047545817115471874
142,8066.73246652999706542262863787206228,8065.2,1.53246652999706542262863787206228
143,8180.73387996975022218798170446012241,8179.2,1.53387996975022218798170446012241
144,8295.53528355221048538494981729831836,8294.0,1.53528355221048538494981729831836
145,8411.13667741395470216939203353348032,8409.6,1.53667741395470216939203353348032
146,8527.53806168874020414498185718885929,8526.0,1.53806168874020414498185718885929
147,8644.73943650758189880486039342700120,8643.2,1.53943650758189880486039342700120
148,8762.74080199882674583855918444928295,8761.2,1.54080199882674583855918444928295
149,8881.54215828822572010512271273407460,8880.0,1.54215828822572010512271273407460
150,9001.14350549900336491328351220300202,8999.6,1.54350549900336491328351220300202
151,9121.54484375192503152291888939797753,9120.0,1.54484375192503152291888939797753
152,9242.74617316536189516693372907581246,9241.2,1.54617316536189516693372907581246
153,9364.74749385535383654323712406494500,9363.2,1.54749385535383654323712406494500
154,9487.54880593567027267602863993223883,9486.0,1.54880593567027267602863993223883
155,9611.15010951786901538236012804682077,9609.6,1.55010951786901538236012804682077
156,9735.55140471135323521030905983039528,9734.0,1.55140471135323521030905983039528
157,9860.75269162342660189533924772258034,9859.2,1.55269162342660189533924772258034
158,9986.75397035934667315292235712775568,9985.2,1.55397035934667315292235712775568
159,10113.5552410223765954802256059548586,10112.0,1.5552410223765954802256059548586
160,10241.1565037138351833043753662442096,10239.6,1.5565037138351833043753662442096
161,10369.5577585331454349733875714012111,10368.0,1.5577585331454349733875714012111
162,10498.7590055778815450508362456688910,10497.2,1.5590055778815450508362456688910
163,10628.7602449438144677675295158909856,10627.2,1.5602449438144677675295158909856
164,10759.5614767249560862667579605286171,10758.0,1.5614767249560862667579605286171
165,10891.1627010136020362433028796506109,10889.6,1.5627010136020362433028796506109
166,11023.5639179003732344917632140868659,11022.0,1.5639179003732344917632140868659
167,11156.7651274742561595964904497028568,11155.2,1.5651274742561595964904497028568
168,11290.7663298226419274520148966104995,11289.2,1.5663298226419274520148966104995
169,11425.5675250313642066760239390657308,11424.0,1.5675250313642066760239390657308
170,11561.1687131847360136579777385378939,11559.6,1.5687131847360136579777385378939
171,11697.5698943655854274377931566380511,11696.0,1.5698943655854274377931566380511
172,11834.7710686552902622812236167375157,11833.2,1.5710686552902622812236167375157
173,11972.7722361338117333542355456030720,11971.2,1.5722361338117333542355456030720
174,12111.5733968797271513398651977598915,12110.0,1.5733968797271513398651977598915
175,12251.1745509702616799824587050977433,12249.6,1.5745509702616799824587050977433
176,12391.5756984813191862656179306969407,12390.0,1.5756984813191862656179306969407
177,12532.7768394875122164843593822383915,12531.2,1.5768394875122164843593822383915
178,12674.7779740621911273658521394541644,12673.2,1.5779740621911273658521394541644
179,12817.5791022774723986836502837315221,12816.0,1.5791022774723986836502837315221
180,12961.1802242042661583117884706508465,12959.6,1.5802242042661583117884706508465
181,13105.5813399123029423672964257370639,13104.0,1.5813399123029423672964257370639
182,13250.7824494701597181364873832086803,13249.2,1.5824494701597181364873832086803
183,13396.7835529452851928342639383839297,13395.2,1.5835529452851928342639383839297
184,13543.5846504040244324379469024591895,13542.0,1.5846504040244324379469024591895
185,13691.1857419116428124037198608537700,13689.6,1.5857419116428124037198608537700
186,13839.5868275323493212342782130845355,13838.0,1.5868275323493212342782130845355
187,13988.7879073293192406981492245667272,13987.2,1.5879073293192406981492245667272
188,14138.7889813647162181369667066178679,14137.2,1.5889813647162181369667066178679
189,14289.5900496997137545917569613059918,14288.0,1.5900496997137545917569613059918
190,14441.1911123945161243992795304895732,14439.6,1.5911123945161243992795304895732
191,14593.5921695083787454809400766795740,14592.0,1.5921695083787454809400766795740
192,14746.7932210996280167064431494607515,14745.2,1.5932210996280167064431494607515
193,14900.7942672256806406359969895939745,14899.2,1.5942672256806406359969895939745
194,15055.5953079430624449818165433482236,15054.0,1.5953079430624449818165433482236
195,15211.1963433074267207212464467448543,15209.6,1.5963433074267207212464467448543
196,15367.5973733735720905533662720658910,15366.0,1.5973733735720905533662720658910
197,15524.7983981954599220743609848912173,15523.2,1.5983981954599220743609848912173
198,15682.7994178262312998335974094255727,15681.2,1.5994178262312998335974094255727
199,15841.6004323182235691042217997332596,15840.0,1.6004323182235691042217997332596
200,16001.2014417229864653084391894647214,15999.6,1.6014417229864653084391894647214
201,16161.6024460912978400738529294358673,16160.0,1.6024460912978400738529294358673
202,16322.8034454731789972969753494375499,16321.2,1.6034454731789972969753494375499
203,16484.8044399179096498685912510908081,16483.2,1.6044399179096498685912510908081
204,16647.6054294740425086758352836584046,16646.0,1.6054294740425086758352836584046
205,16811.2064141894175138462949283418760,16809.6,1.6064141894175138462949283418760
206,16975.6073941111757212528355594937524,16974.0,1.6073941111757212528355594937524
207,17140.8083692857728501497727029772492,17139.2,1.6083692857728501497727029772492
208,17306.8093397589925061617957076370340,17305.2,1.6093397589925061617957076370340
209,17473.6103055759590853684700347386547,17472.0,1.6103055759590853684700347386547
210,17641.2112667811503709799167757387587,17639.6,1.6112667811503709799167757387587
211,17809.6122234184098299626254049616825,17808.0,1.6122234184098299626254049616825
212,17978.8131755309586198425214682251072,17977.2,1.6131755309586198425214682251072
213,18148.8141231614073100631766310013959,18147.2,1.6141231614073100631766310013959
214,18319.6150663517673328748443256863531,18318.0,1.6150663517673328748443256863531
215,18491.2160051434621629605451408562415,18489.6,1.6160051434621629605451408562415
216,18663.6169395773382397536520415801660,18662.0,1.6169395773382397536520415801660
217,18836.8178696936756364060104317906668,18835.2,1.6178696936756364060104317906668
218,19010.8187955321984843790354527201915,19009.2,1.6187955321984843790354527201915
219,19185.6197171320851569307149517091561,19184.0,1.6197171320851569307149517091561
220,19361.2206345319782240066382356791871,19359.6,1.6206345319782240066382356791871
221,19537.6215477699941764373327033292051,19536.0,1.6215477699941764373327033292051
222,19714.8224568837329366392659244913288,19713.2,1.6224568837329366392659244913288
223,19892.8233619102871493803364203294284,19891.2,1.6233619102871493803364203294284
224,20071.6242628862512676691431890497670,20070.0,1.6242628862512676691431890497670
225,20251.2251598477304363245683409675548,20249.6,1.6251598477304363245683409675548
226,20431.6260528303491767636053823883348,20430.0,1.6260528303491767636053823883348
227,20612.8269418692598816502712312317027,20611.2,1.6269418692598816502712312317027
228,20794.8278269991511212157928581761710,20793.2,1.6278269991511212157928581761710
229,20977.6287082542557684022033579786064,20976.0,1.6287082542557684022033579786064
230,21161.2295856683589475155753553917550,21159.6,1.6295856683589475155753553917550
231,21345.6304592748058081781456103995390,21344.0,1.6304592748058081781456103995390
232,21530.8313291065091349882349132139799,21529.2,1.6313291065091349882349132139799
233,21716.8321951959567878734509140585616,21715.2,1.6321951959567878734509140585616
234,21903.6330575752189892832227825958492,21902.0,1.6330575752189892832227825958492
235,22091.2339162759554513917505859180057,22089.6,1.6339162759554513917505859180057
236,22279.6347713294223530101203780159839,22278.0,1.6347713294223530101203780159839
237,22468.8356227664791698276943357877263,22467.2,1.6356227664791698276943357877263
238,22658.8364706175953597137691286944214,22657.2,1.6364706175953597137691286944214
