Eigenstate,Energy,Kinetic Energy,Potential Energy
1,0.500000000088710088068557714426587163,0.0,0.500000000088710088068557714426587163
2,1.84623093823016913943956358889605468,1.2,0.64623093823016913943956358889605468
3,3.93633761140590731039517581799917339,3.2,0.73633761140590731039517581799917339
4,6.79966528135710181407375254055455242,6.0,0.79966528135710181407375254055455242
5,10.4480465814226861680922667984564945,9.6,0.8480465814226861680922667984564945
6,14.8870660063667884522747195817025054,14.0,0.8870660063667884522747195817025054
7,20.1197208376320360381506508964333525,19.2,0.9197208376320360381506508964333525
8,26.1477838615977516275421721345759693,25.2,0.9477838615977516275421721345759693
9,32.9723835772716267748567045250383924,32.0,0.9723835772716267748567045250383924
10,40.5942802388031579828576832806695128,39.6,0.9942802388031579828576832806695128
11,49.0140094163340456856126288411251429,48.0,1.0140094163340456856126288411251429
12,58.2319622051694328288498608762215752,57.2,1.0319622051694328288498608762215752
13,68.2484327353755548948572666890322231,67.2,1.0484327353755548948572666890322231
14,79.0636477046359349433829328359927959,78.0,1.0636477046359349433829328359927959
15,90.6777854940655887171342193787849590,89.6,1.0777854940655887171342193787849590
16,103.090988973081482478832737631351630,102.0,1.090988973081482478832737631351630
17,116.303374332864045757385513445485465,115.2,1.103374332864045757385513445485465
18,130.315037337363376542250012758068405,129.2,1.115037337363376542250012758068405
19,145.126057846403222920154016330416408,144.0,1.126057846403222920154016330416408
20,160.736503153314922401999357412847161,159.6,1.136503153314922401999357412847161
21,177.146430491019101212604098132588121,176.0,1.146430491019101212604098132588121
22,194.355888943184415997383326909275535,193.2,1.155888943184415997383326909275535
23,212.364920922164079669722328774971012,211.2,1.164920922164079669722328774971012
24,231.173563326396284487688227687689267,230.0,1.173563326396284487688227687689267
25,250.781848457200129162556865275154481,249.6,1.181848457200129162556865275154481
26,271.189804752583207177771611577514375,270.0,1.189804752583207177771611577514375
27,292.397457380204183081371077993938465,291.2,1.197457380204183081371077993938465
28,314.404828720731832695987068286933335,313.2,1.204828720731832695987068286933335
29,337.211938765046995362209746851667224,336.0,1.211938765046995362209746851667224
30,360.818805443084398757035940044682033,359.6,1.218805443084398757035940044682033
31,385.225444897965378325627402381058545,384.0,1.225444897965378325627402381058545
32,410.431871715994613777421228797930339,409.2,1.231871715994613777421228797930339
33,436.438099120784357291714084492068479,435.2,1.238099120784357291714084492068479
34,463.244139138019081810372728399650858,462.0,1.244139138019081810372728399650858
35,490.850002736034282728655342862160518,489.6,1.250002736034282728655342862160518
36,519.255699946349687415859768121235537,518.0,1.255699946349687415859768121235537
37,548.461239967493042448460106050282456,547.2,1.261239967493042448460106050282456
38,578.466631254820229694844911471412193,577.2,1.266631254820229694844911471412193
39,609.271881598539613740941350948037917,608.0,1.271881598539613740941350948037917
40,640.876998191752702362224815364577883,639.6,1.276998191752702362224815364577883
41,673.281987690006451473705999715415063,672.0,1.281987690006451473705999715415063
42,706.486856263597553387836337369420489,705.2,1.286856263597553387836337369420489
43,740.491609643662560865241504235611092,739.2,1.291609643662560865241504235611092
44,775.296253162919605427597548483458093,774.0,1.296253162919605427597548483458093
45,810.900791791789898832894942368023851,809.6,1.300791791789898832894942368023851
46,847.305230170514070330684646447844575,846.0,1.305230170514070330684646447844575
47,884.509572637784915702522135972873919,883.2,1.309572637784915702522135972873919
48,922.513823256340547728539857949216234,921.2,1.313823256340547728539857949216234
49,961.317985835897275177151384488371719,960.0,1.317985835897275177151384488371719
50,1000.92206395374741470121213709314883,999.6,1.32206395374741470121213709314883
51,1041.32606097330177306146867404787590,1040.0,1.32606097330177306146867404787590
52,1082.52998006081819188381179124177637,1081.2,1.32998006081819188381179124177637
53,1124.53382420052509703828850750709280,1123.2,1.33382420052509703828850750709280
54,1167.33759620832143359636010060640520,1166.0,1.33759620832143359636010060640520
55,1210.94129874421089183037139866921282,1209.6,1.34129874421089183037139866921282
56,1255.34493432360825514906307962489604,1254.0,1.34493432360825514906307962489604
57,1300.54850532763850189783247576816926,1299.2,1.34850532763850189783247576816926
58,1346.55201401253449576615185744848523,1345.2,1.35201401253449576615185744848523
59,1393.35546251822634559727233067610783,1392.0,1.35546251822634559727233067610783
60,1440.95885287620449088763541682091342,1439.6,1.35885287620449088763541682091342
61,1489.36218701672900503590583904065372,1488.0,1.36218701672900503590583904065372
62,1538.56546677544930739642258845749692,1537.2,1.36546677544930739642258845749692
63,1588.56869389949123330284188275736810,1587.2,1.36869389949123330284188275736810
64,1639.37187005306209874782125967741574,1638.0,1.37187005306209874782125967741574
65,1690.97499682261886156461946576544852,1689.6,1.37499682261886156461946576544852
66,1743.37807572163963361743061338717829,1742.0,1.37807572163963361743061338717829
67,1796.58110819503453621594400905197960,1795.2,1.38110819503453621594400905197960
68,1850.58409562322813480881112448066193,1849.2,1.38409562322813480881112448066193
69,1905.38703932594237633997349788849655,1904.0,1.38703932594237633997349788849655
70,1960.98994056570602438353972136536808,1959.6,1.38994056570602438353972136536808
71,2017.39280055111398846916868507860936,2016.0,1.39280055111398846916868507860936
72,2074.59562043985764576753459328524567,2073.2,1.39562043985764576753459328524567
73,2132.59840134154520029904611017930484,2131.2,1.39840134154520029904611017930484
74,2191.40114432032930598043792337734230,2190.0,1.40114432032930598043792337734230
75,2251.00385039735754872275011182889075,2249.6,1.40385039735754872275011182889075
76,2311.40652055305993323745446089237577,2310.0,1.40652055305993323745446089237577
77,2372.60915572928621780906890992961905,2371.2,1.40915572928621780906890992961905
78,2434.61175683130477449442060309096573,2433.2,1.41175683130477449442060309096573
79,2497.41432472967360538872549134652039,2496.0,1.41432472967360538872549134652039
80,2561.01686026199320747300764267454710,2559.6,1.41686026199320747300764267454710
81,2625.41936423455012921590502447491785,2624.0,1.41936423455012921590502447491785
82,2690.62183742385930065235446353838476,2689.2,1.42183742385930065235446353838476
83,2756.62428057811252992785881428035433,2755.2,1.42428057811252992785881428035433
84,2823.42669441853993500532326717139786,2822.0,1.42669441853993500532326717139786
85,2891.02907964069051995527390314733226,2889.6,1.42907964069051995527390314733226
86,2959.43143691563758938488202611216032,2958.0,1.43143691563758938488202611216032
87,3028.63376689111423709041840315661169,3027.2,1.43376689111423709041840315661169
88,3098.63607019258372164002535482741365,3097.2,1.43607019258372164002535482741365
89,3169.43834742424915809153339893118116,3168.0,1.43834742424915809153339893118116
90,3241.04059917000661183331975459798112,3239.6,1.44059917000661183331975459798112
91,3313.44282599434535908415578620096426,3312.0,1.44282599434535908415578620096426
92,3386.64502844319879029045062840380489,3385.2,1.44502844319879029045062840380489
93,3460.64720704474917040424357177859082,3459.2,1.44720704474917040424357177859082
94,3535.44936231018922709655908728151921,3534.0,1.44936231018922709655908728151921
95,3611.05149473444331680670979462849772,3609.6,1.45149473444331680670979462849772
96,3687.45360479685071670601625888926691,3686.0,1.45360479685071670601625888926691
97,3764.65569296181340631230314296702122,3763.2,1.45569296181340631230314296702122
98,3842.65775967941052961723634390379186,3841.2,1.45775967941052961723634390379186
99,3921.45980538598157511637731198140876,3920.0,1.45980538598157511637731198140876
100,4001.06183050468016479141417157816089,3999.6,1.46183050468016479141417157816089
101,4081.46383544600021378987553530664913,4080.0,1.46383544600021378987553530664913
102,4162.66582060827609697291157667870574,4161.2,1.46582060827609697291157667870574
103,4244.66778637815835058811426817222664,4243.2,1.46778637815835058811426817222664
104,4327.46973313106633005963899378814663,4326.0,1.46973313106633005963899378814663
105,4411.07166123161915181413211300603821,4409.6,1.47166123161915181413211300603821
106,4495.47357103404615629672626883861281,4494.0,1.47357103404615629672626883861281
107,4580.67546288257805124940971146649549,4579.2,1.47546288257805124940971146649549
108,4666.67733711181981508452184368405599,4665.2,1.47733711181981508452184368405599
109,4753.47919404710637159259319744925866,4752.0,1.47919404710637159259319744925866
110,4841.08103400484198480362306374283461,4839.6,1.48103400484198480362306374283461
111,4929.48285729282425695968996685376624,4928.0,1.48285729282425695968996685376624
112,5018.68466421055356312315683080006198,5017.2,1.48466421055356312315683080006198
113,5108.68645504952870040893864266864232,5107.2,1.48645504952870040893864266864232
114,5199.48823009352948107154466604782059,5198.0,1.48823009352948107154466604782059
115,5291.08998961888695822910462309944768,5289.6,1.48998961888695822910462309944768
116,5383.49173389474192467494051516811247,5382.0,1.49173389474192467494051516811247
117,5476.69346318329229351423902873804542,5475.2,1.49346318329229351423902873804542
118,5570.69517774002992833227440945177652,5569.2,1.49517774002992833227440945177652
119,5665.49687781396745688691525730374454,5664.0,1.49687781396745688691525730374454
120,5761.09856364785557647591470761671385,5759.6,1.49856364785557647591470761671385
121,5857.50023547839132086223860432025884,5856.0,1.50023547839132086223860432025884
122,5954.70189353641773972755436931595818,5953.2,1.50189353641773972755436931595818
123,6052.70353804711540943107149776731112,6051.2,1.50353804711540943107149776731112
124,6151.50516923018617617111582447023333,6150.0,1.50516923018617617111582447023333
125,6251.10678730002950308055760896855220,6249.6,1.50678730002950308055760896855220
126,6351.50839246591177758991550163452135,6350.0,1.50839246591177758991550163452135
127,6452.70998493212891481407275923485545,6451.2,1.50998493212891481407275923485545
128,6554.71156489816257013135246744248576,6553.2,1.51156489816257013135246744248576
129,6657.51313255883026205046065469576203,6656.0,1.51313255883026205046065469576203
130,6761.11468810442968807893905692244549,6759.6,1.51468810442968807893905692244549
131,6865.51623172087750090265200995781815,6864.0,1.51623172087750090265200995781815
132,6970.71776358984279720863135689005669,6969.2,1.51776358984279720863135689005669
133,7076.71928388887555970201860677831948,7075.2,1.51928388887555970201860677831948
134,7183.52079279153028159188709163469135,7182.0,1.52079279153028159188709163469135
135,7291.12229046748498471238289566109461,7289.6,1.52229046748498471238289566109461
136,7399.52377708265583875809380459672012,7398.0,1.52377708265583875809380459672012
137,7508.72525279930757580461313285755559,7507.2,1.52525279930757580461313285755559
138,7618.72671777615988067327388072978382,7617.2,1.52671777615988067327388072978382
139,7729.52817216848993559312404050136242,7728.0,1.52817216848993559312404050136242
140,7841.12961612823128216724606821541641,7839.6,1.52961612823128216724606821541641
141,7953.53104980406915909303324018932415,7952.0,1.53104980406915909303324018932415
142,8066.73247334153246601277008502659722,8065.2,1.53247334153246601277008502659722
143,8180.73388688308249522069397951797220,8179.2,1.53388688308249522069397951797220
144,8295.53529056819856577307937225256015,8294.0,1.53529056819856577307937225256015
145,8411.13668453346069036012643164747181,8409.6,1.53668453346069036012643164747181
146,8527.53806891262939742968660106787587,8526.0,1.53806891262939742968660106787587
147,8644.73944383672282284989076042157245,8643.2,1.53944383672282284989076042157245
148,8762.74080943409118643971352104100214,8761.2,1.54080943409118643971352104100214
149,8881.54216583048875516843329795986663,8880.0,1.54216583048875516843329795986663
150,9001.14351314914339666487014511904949,8999.6,1.54351314914339666487014511904949
151,9121.54485151082381895066182841634426,9120.0,1.54485151082381895066182841634426
152,9242.74618103390458669675222004191572,9241.2,1.54618103390458669675222004191572
153,9364.74750183442900295279164671996984,9363.2,1.54750183442900295279164671996984
154,9487.54881402616994024869612550275949,9486.0,1.54881402616994024869612550275949
155,9611.15011772068869930436388160801888,9609.6,1.55011772068869930436388160801888
156,9735.55141302739197321391778917895974,9734.0,1.55141302739197321391778917895974
157,9860.75270005358698815108196899986567,9859.2,1.55270005358698815108196899986567
158,9986.75397890453489241380038478900458,9985.2,1.55397890453489241380038478900458
159,10113.5552496835024574809361439390651,10112.0,1.5552496835024574809361439390651
160,10241.1565124918121574185962570243958,10239.6,1.5565124918121574185962570243958
161,10369.5577674288906851322075738874610,10368.0,1.5577674288906851322075738874610
162,10498.7590145923159649254509316646265,10497.2,1.5590145923159649254509316646265
163,10628.7602540778627162193586395307431,10627.2,1.5602540778627162193586395307431
164,10759.5614859795466230681772414494930,10758.0,1.5614859795466230681772414494930
165,10891.1627103896671580722204080125432,10889.6,1.5627103896671580722204080125432
166,11023.5639273988491112033076617610160,11022.0,1.5639273988491112033076617610160
167,11156.7651370960828707751173402151745,11155.2,1.5651370960828707751173402151745
168,11290.7663395687634992473759851546366,11289.2,1.5663395687634992473759851546366
169,11425.5675349027286489259835648289974,11424.0,1.5675349027286489259835648289974
170,11561.1687231822953573022010826561044,11559.6,1.5687231822953573022010826561044
171,11697.5699044902957622253710378896039,11696.0,1.5699044902957622253710378896039
172,11834.7710789081117747758403202081379,11833.2,1.5710789081117747758403202081379
173,11972.7722465157087452404276218557816,11971.2,1.5722465157087452404276218557816
174,12111.5734073916681580339621673615156,12110.0,1.5734073916681580339621673615156
175,12251.1745616132193895518393053140655,12249.6,1.5745616132193895518393053140655
176,12391.5757092562705586599595040842026,12390.0,1.5757092562705586599595040842026
177,12532.7768503954385030826024951015280,12531.2,1.5768503954385030826024951015280
178,12674.7779851040779108426474394704904,12673.2,1.5779851040779108426474394704904
179,12817.5791134543096331991007490635082,12816.0,1.5791134543096331991007490635082
180,12961.1802355170482100283465031110243,12959.6,1.5802355170482100283465031110243
181,13105.5813513620286302977222740923367,13104.0,1.5813513620286302977222740923367
182,13250.7824610578323553268234592690294,13249.2,1.5824610578323553268234592690294
183,13396.7835646719126278858283298683842,13395.2,1.5835646719126278858283298683842
184,13543.5846622706190913723983313562305,13542.0,1.5846622706190913723983313562305
185,13691.1857539192217408752976036977595,13689.6,1.5857539192217408752976036977595
186,13839.5868396819342270933693859629615,13838.0,1.5868396819342270933693859629615
187,13988.7879196219365369103894937553620,13987.2,1.5879196219365369103894937553620
188,14138.7889938013970660621318475359019,14137.2,1.5889938013970660621318475359019
189,14289.5900622814941076267560778814212,14288.0,1.5900622814941076267560778814212
190,14441.1911251224367719896149396373815,14439.6,1.5911251224367719896149396373815
191,14593.5921823834853575050540644795500,14592.0,1.5921823834853575050540644795500
192,14746.7932341229711882374268257919055,14745.2,1.5932341229711882374268257919055
193,14900.7942803983159370851936717550686,14899.2,1.5942803983159370851936717550686
194,15055.5953212660504476289091615385726,15054.0,1.5953212660504476289091615385726
195,15211.1963567818330726354772448079839,15209.6,1.5963567818330726354772448079839
196,15367.5973870004675429105956319519454,15366.0,1.5973870004675429105956319519454
197,15524.7984119759203808747332762352398,15523.2,1.5984119759203808747332762352398
198,15682.7994317613378730246418249356534,15681.2,1.5994317613378730246418249356534
199,15841.6004464090626141142793014058590,15840.0,1.6004464090626141142793014058590
200,16001.2014559706496369953688092366159,15999.6,1.6014559706496369953688092366159
201,16161.6024604968821390940343964306443,16160.0,1.6024604968821390940343964306443
202,16322.8034600377868188996917218610551,16321.2,1.6034600377868188996917218610551
203,16484.8044546426488331209388962550500,16483.2,1.6044546426488331209388962550500
204,16647.6054443600263861233773340133701,16646.0,1.6054443600263861233773340133701
205,16811.2064292377649616147412945580891,16809.6,1.6064292377649616147412945580891
206,16975.6074093230112095961024739376837,16974.0,1.6074093230112095961024739376837
207,17140.8083846622264944498444796045673,17139.2,1.6083846622264944498444796045673
208,17306.8093553012001183858828610984215,17305.2,1.6093553012001183858828610984215
209,17473.6103212850622259890306486344055,17472.0,1.6103212850622259890306486344055
210,17641.2112826582964013631810528817179,17639.6,1.6112826582964013631810528817179
211,17809.6122394647519652313381974733502,17808.0,1.6122394647519652313381974733502
212,17978.8131917476559822186935185930373,17977.2,1.6131917476559822186935185930373
213,18148.8141395496249826967131508983593,18147.2,1.6141395496249826967131508983593
214,18319.6150829126764141639962547991953,18318.0,1.6150829126764141639962547991953
215,18491.2160218782398213702093027351709,18489.6,1.6160218782398213702093027351709
216,18663.6169564871677691376273159856914,18662.0,1.6169564871677691376273159856914
217,18836.8178867797465118393981762997249,18835.2,1.6178867797465118393981762997249
218,19010.8188127957064185070561728098334,19009.2,1.6188127957064185070561728098334
219,19185.6197345742321568402995214598005,19184.0,1.6197345742321568402995214598005
220,19361.2206521539726486272354952103610,19359.6,1.6206521539726486272354952103610
221,19537.6215655730507944774649529417841,19536.0,1.6215655730507944774649529417841
222,19714.8224748690729850654514396338899,19713.2,1.6224748690729850654514396338899
223,19892.8233800791383924450894269298208,19891.2,1.6233800791383924450894269298208
224,20071.6242812398480564948525518582778,20070.0,1.6242812398480564948525518582778
225,20251.2251783873137690501506055318710,20249.6,1.6251783873137690501506055318710
226,20431.6260715571667592609220919847007,20430.0,1.6260715571667592609220919847007
227,20612.8269607845661888173956641913873,20611.2,1.6269607845661888173956641913873
228,20794.8278461042074588543117409507875,20793.2,1.6278461042074588543117409507875
229,20977.6287275503303356858366278364932,20976.0,1.6287275503303356858366278364932
230,21161.2296051567269000574983681827099,21159.6,1.6296051567269000574983681827099
231,21345.6304789567493217045019455824450,21344.0,1.6304789567493217045019455824450
232,21530.8313489833174696254313551449526,21529.2,1.6313489833174696254313551449526
233,21716.8322152689263530569329572872770,21715.2,1.6322152689263530569329572872770
234,21903.6330778456534092955368903305778,21902.0,1.6330778456534092955368903305778
235,22091.2339367451656315378086373016005,22089.6,1.6339367451656315378086373016005
236,22279.6347919987265464376937345980982,22278.0,1.6347919987265464376937345980982
237,22468.8356436372030450012781484791720,22467.2,1.6356436372030450012781484791720
238,22658.8364916910720685500727532016946,22657.2,1.6364916910720685500727532016946
