Eigenstate,Energy,Kinetic Energy,Potential Energy
1,0.500000000013229268048525524921446975,0.0,0.500000000013229268048525524921446975
2,1.84623093773746838134879143695845941,1.2,0.64623093773746838134879143695845941
3,3.93633760995863265643196360220318307,3.2,0.73633760995863265643196360220318307
4,6.79966527834257703448960738333080601,6.0,0.79966527834257703448960738333080601
5,10.4480465762008749958464451947260408,9.6,0.8480465762008749958464451947260408
6,14.8870659982864295367619742040015278,14.0,0.8870659982864295367619742040015278
7,20.1197208260365850572861762671567852,19.2,0.9197208260365850572861762671567852
8,26.1477838458278567465739119786126348,25.2,0.9477838458278567465739119786126348
9,32.9723835566662773042474920939360217,32.0,0.9723835566662773042474920939360217
10,40.5942802127002651306534237197720814,39.6,0.9942802127002651306534237197720814
11,49.0140093840707559626644963680877986,48.0,1.0140093840707559626644963680877986
12,58.2319621660823052148442484244227916,57.2,1.0319621660823052148442484244227916
13,68.2484326888006638320575911162188103,67.2,1.0484326888006638320575911162188103
14,79.0636476499089306409034891362660339,78.0,1.0636476499089306409034891362660339
15,90.6777854305217316982140813378778456,89.6,1.0777854305217316982140813378778456
16,103.090988900055661945515788393159470,102.0,1.090988900055661945515788393159470
17,116.303374249690787425247977759950137,115.2,1.103374249690787425247977759950137
18,130.315037243376843410035113006695228,129.2,1.115037243376843410035113006695228
19,145.126057740937211169075851509985649,144.0,1.126057740937211169075851509985649
20,160.736503035702853855801884617564820,159.6,1.136503035702853855801884617564820
21,177.146430360594013315780294339230408,176.0,1.146430360594013315780294339230408
22,194.355888799278949966893346786267400,193.2,1.155888799278949966893346786267400
23,212.364920764110467278074108919881708,211.2,1.164920764110467278074108919881708
24,231.173563153526333803220981156402493,230.0,1.173563153526333803220981156402493
25,250.781848268845209482695285218674732,249.6,1.181848268845209482695285218674732
26,271.189804548074233328423539921741838,270.0,1.189804548074233328423539921741838
27,292.397457158871599211403247020471091,291.2,1.197457158871599211403247020471091
28,314.404828481905595663963259388392903,313.2,1.204828481905595663963259388392903
29,337.211938508056557789462906966022970,336.0,1.211938508056557789462906966022970
30,360.818805167258691804099394345856736,359.6,1.218805167258691804099394345856736
31,385.225444602632794236325085595755375,384.0,1.225444602632794236325085595755375
32,410.431871400482988225310419623904185,409.2,1.231871400482988225310419623904185
33,436.438098784420951556245954015244768,435.2,1.238098784420951556245954015244768
34,463.244138780130564804491244609062746,462.0,1.244138780130564804491244609062746
35,490.850002355946712895167224765491275,489.6,1.250002355946712895167224765491275
36,519.255699543388494506468299459290442,518.0,1.255699543388494506468299459290442
37,548.461239540983009196637016675742118,547.2,1.261239540983009196637016675742118
38,578.466630804085473391549961133051611,577.2,1.266630804085473391549961133051611
39,609.271881122903567720463347489911878,608.0,1.271881122903567720463347489911878
40,640.876997690538097404016212987144961,639.6,1.276997690538097404016212987144961
41,673.281987162535297124944540551042886,672.0,1.281987162535297124944540551042886
42,706.486855709191119210516209617492259,705.2,1.286855709191119210516209617492259
43,740.491609061641357610830974855295285,739.2,1.291609061641357610830974855295285
44,775.296252552603366141667206308095423,774.0,1.296252552603366141667206308095423
45,810.900791152497559891594579733447541,809.6,1.300791152497559891594579733447541
46,847.305229501563752410507154991112879,846.0,1.305229501563752410507154991112879
47,884.509571938493904684423840065791606,883.2,1.309571938493904684423840065791606
48,922.513822526025275537175197578783463,921.2,1.313822526025275537175197578783463
49,961.317985073873300555715912151288196,960.0,1.317985073873300555715912151288196
50,1000.92206315932940392216310290794680,999.6,1.32206315932940392216310290794680
51,1041.32606014580348057320002098422504,1040.0,1.32606014580348057320002098422504
52,1082.52997919955244089319526307709383,1081.2,1.32997919955244089319526307709383
53,1124.53382330480376002885001990498476,1123.2,1.33382330480376002885001990498476
54,1167.33759527745541278173683718842562,1166.0,1.33759527745541278173683718842562
55,1210.94129777751009954258755773458498,1209.6,1.34129777751009954258755773458498
56,1255.34493332038159416106806827973383,1254.0,1.34493332038159416106806827973383
57,1300.54850428719384567966284909112669,1299.2,1.34850428719384567966284909112669
58,1346.55201293417866867400508969742494,1345.2,1.35201293417866867400508969742494
59,1393.35546140126510299471624585272770,1392.0,1.35546140126510299471624585272770
60,1440.95885171994249919811937172784638,1439.6,1.35885171994249919811937172784638
61,1489.36218582046982172568838289978919,1488.0,1.36218582046982172568838289978919
62,1538.56546553849536088698397349412449,1537.2,1.36546553849536088698397349412449
63,1588.56869262114380281180814541043554,1587.2,1.36869262114380281180814541043554
64,1639.37186873262129405738875884681114,1638.0,1.37186873262129405738875884681114
65,1690.97499545938360271643397563655547,1689.6,1.37499545938360271643397563655547
66,1743.37807431490763053284360619253806,1742.0,1.37807431490763053284360619253806
67,1796.58110674410226824053951328533756,1795.2,1.38110674410226824053951328533756
68,1850.58409412739083018006956495807790,1849.2,1.38409412739083018006956495807790
69,1905.38703778449399157691355077012797,1904.0,1.38703778449399157691355077012797
70,1960.98993897793922359715621705339047,1959.6,1.38993897793922359715621705339047
71,2017.39279891632012259246184265420510,2016.0,1.39279891632012259246184265420510
72,2074.59561875732673170390562398520077,2073.2,1.39561875732673170390562398520077
73,2132.59839961056589998781391941896134,2131.2,1.39839961056589998781391941896134
74,2191.40114254018890537821310427441777,2190.0,1.40114254018890537821310427441777
75,2251.00384856734193669938403208112931,2249.6,1.40384856734193669938403208112931
76,2311.40651867245358038526416580436669,2310.0,1.40651867245358038526416580436669
77,2372.60915379737215516402154381159611,2371.2,1.40915379737215516402154381159611
78,2434.61175484736457216794475446303848,2433.2,1.41175484736457216794475446303848
79,2497.41432269298735110880101908693991,2496.0,1.41432269298735110880101908693991
80,2561.01685817183948503317021375894363,2559.6,1.41685817183948503317021375894363
81,2625.41936209020599683078613093593044,2624.0,1.41936209020599683078613093593044
82,2690.62183522460026921836290018618785,2689.2,1.42183522460026921836290018618785
83,2756.62427832321254118759492886038074,2755.2,1.42427832321254118759492886038074
84,2823.42669210727133961430264433505520,2822.0,1.42669210727133961430264433505520
85,2891.02907727232405544952271151155547,2889.6,1.42907727232405544952271151155547
86,2959.43143448944235804795215702987327,2958.0,1.43143448944235804795215702987327
87,3028.63376440635768371835596475228394,3027.2,1.43376440635768371835596475228394
88,3098.63606764853161120281209434628018,3097.2,1.43606764853161120281209434628018
89,3169.43834482016555328950640138582759,3168.0,1.43834482016555328950640138582759
90,3241.04059650515385054706066854138817,3239.6,1.44059650515385054706066854138817
91,3313.44282326798403171632631869358489,3312.0,1.44282326798403171632631869358489
92,3386.64502565458771699803725867426992,3385.2,1.44502565458771699803725867426992
93,3460.64720419314537821965969807421305,3459.2,1.44720419314537821965969807421305
94,3535.44935939484792693603870167386805,3534.0,1.44935939484792693603870167386805
95,3611.05149175461788036441222908754818,3609.6,1.45149175461788036441222908754818
96,3687.45360175179265323224702206675757,3686.0,1.45360175179265323224702206675757
97,3764.65568985077233927424106901081935,3763.2,1.45568985077233927424106901081935
98,3842.65775650163417324054273361009304,3841.2,1.45775650163417324054273361009304
99,3921.45980214071571080604744253371893,3920.0,1.45980214071571080604744253371893
100,4001.06182719116861743021684868735604,3999.6,1.46182719116861743021684868735604
101,4081.46383206348482791271083869539552,4080.0,1.46383206348482791271083869539552
102,4162.66581715599671281540173290107774,4161.2,1.46581715599671281540173290107774
103,4244.66778285535278000772713175201258,4243.2,1.46778285535278000772713175201258
104,4327.46972953697033232762742480395206,4326.0,1.46972953697033232762742480395206
105,4411.07165756546640927655714979107170,4409.6,1.47165756546640927655714979107170
106,4495.47356729506824990281561838826601,4494.0,1.47356729506824990281561838826601
107,4580.67545907000443594548684210720065,4579.2,1.47545907000443594548684210720065
108,4666.67733322487779507172440912358352,4665.2,1.47733322487779507172440912358352
109,4753.47919008502107544658278777953502,4752.0,1.47919008502107544658278777953502
110,4841.08102996683634045447149770134119,4839.6,1.48102996683634045447149770134119
111,4929.48285317811896653011004248608825,4928.0,1.48285317811896653011004248608825
112,5018.68466001836707762322804271871716,5017.2,1.48466001836707762322804271871716
113,5108.68645077907719428546093440771782,5107.2,1.48645077907719428546093440771782
114,5199.48822574402682661013524789670810,5198.0,1.48822574402682661013524789670810
115,5291.08998518954469980713491071610155,5289.6,1.48998518954469980713491071610155
116,5383.49172938476925286339181803327202,5382.0,1.49172938476925286339181803327202
117,5476.69345859189601902653712641384980,5475.2,1.49345859189601902653712641384980
118,5570.69517306641445581814415996603155,5569.2,1.49517306641445581814415996603155
119,5665.49687305733475856927754303585154,5664.0,1.49687305733475856927754303585154
120,5761.09855880740516562882816183073441,5759.6,1.49855880740516562882816183073441
121,5857.50023055332022512786934950742031,5856.0,1.50023055332022512786934950742031
122,5954.70188852592047427013689994971202,5953.2,1.50188852592047427013689994971202
123,6052.70353295038394992580350672811225,6051.2,1.50353295038394992580350672811225
124,6151.50516404640993162590957684160618,6150.0,1.50516404640993162590957684160618
125,6251.10678202839528848854925623519976,6249.6,1.50678202839528848854925623519976
126,6351.50838710560378641061293309523195,6350.0,1.50838710560378641061293309523195
127,6452.70997948232869128100111205760826,6451.2,1.50997948232869128100111205760826
128,6554.71155935804898138403463278373584,6553.2,1.51155935804898138403463278373584
129,6657.51312692757947008854812875297719,6656.0,1.51312692757947008854812875297719
130,6761.11468238121512153628633768695212,6759.6,1.51468238121512153628633768695212
131,6865.51622590486982663910480224020034,6864.0,1.51622590486982663910480224020034
132,6970.71775768020989171727567454428595,6969.2,1.51775768020989171727567454428595
133,7076.71927788478248032961548460289929,7075.2,1.51927788478248032961548460289929
134,7183.52078669213923757019270066712429,7182.0,1.52078669213923757019270066712429
135,7291.12228427195530799803056925407261,7289.6,1.52228427195530799803056925407261
136,7399.52377079014395467869034435638222,7398.0,1.52377079014395467869034435638222
137,7508.72524640896697350867631166011250,7507.2,1.52524640896697350867631166011250
138,7618.72671128714108338161355445355320,7617.2,1.52671128714108338161355445355320
139,7729.52816557994047064924370759161501,7728.0,1.52816557994047064924370759161501
140,7841.12960943929565088431568909859576,7839.6,1.52960943929565088431568909859576
141,7953.53104301388880639495849382464738,7952.0,1.53104301388880639495849382464738
142,8066.73246644924574986685595244900598,8065.2,1.53246644924574986685595244900598
143,8180.73387988782465585937418412004018,8179.2,1.53387988782465585937418412004018
144,8295.53528346910169470215535698042869,8294.0,1.53528346910169470215535698042869
145,8411.13667732965369915093243113651921,8409.6,1.53667732965369915093243113651921
146,8527.53806160323798629256847810864037,8526.0,1.53806160323798629256847810864037
147,8644.73943642086944898635824524608263,8643.2,1.53943642086944898635824524608263
148,8762.74080191089503217059632948842279,8761.2,1.54080191089503217059632948842279
149,8881.54215819906569583534191877454790,8880.0,1.54215819906569583534191877454790
150,9001.14350540860596830223303263198786,8999.6,1.54350540860596830223303263198786
151,9121.54484366028118572557923759005426,9120.0,1.54484366028118572557923759005426
152,9242.74617307246250811387731394422624,9241.2,1.54617307246250811387731394422624
153,9364.74749376118980082141757556691017,9363.2,1.54749376118980082141757556691017
154,9487.54880584023246540919666263955643,9486.0,1.54880584023246540919666263955643
155,9611.15010942114829811110268419176239,9609.6,1.55010942114829811110268419176239
156,9735.55140461334045377170866857294228,9734.0,1.55140461334045377170866857294228
157,9860.75269152411258630225019077611494,9859.2,1.55269152411258630225019077611494
158,9986.75397025872223747286053537182862,9985.2,1.55397025872223747286053537182862
159,10113.5552409204325377138688028025964,10112.0,1.5552409204325377138688028025964
160,10241.1565036105622852636706317447600,10239.6,1.5565036105622852636706317447600
161,10369.5577584285344621592624440652462,10368.0,1.5577584285344621592624440652462
162,10498.7590054719232465305104990521916,10497.2,1.5590054719232465305104990521916
163,10628.7602448364995760514241075546792,10627.2,1.5602448364995760514241075546792
164,10759.5614766162753171849978470223998,10758.0,1.5614766162753171849978470223998
165,10891.1627009035460888218103133962564,10889.6,1.5627009035460888218103133962564
166,11023.5639177889327908279381741558407,11022.0,1.5639177889327908279381741558407
167,11156.7651273614218847344747892564029,11155.2,1.5651273614218847344747892564029
168,11290.7663297084044692575368048047404,11289.2,1.5663297084044692575368048047404
169,11425.5675249157141957108192758133881,11424.0,1.5675249157141957108192758133881
170,11561.1687130676640630537848036486938,11559.6,1.5687130676640630537848036486938
171,11697.5698942470821327699174103756494,11696.0,1.5698942470821327699174103756494
172,11834.7710685353462014416688741621797,11833.2,1.5710685353462014416688741621797
173,11972.7722360124174664243981320521991,11971.2,1.5722360124174664243981320521991
174,12111.5733967568732204627875536928314,12110.0,1.5733967568732204627875536928314
175,12251.1745508459386092346388786058134,12249.6,1.5745508459386092346388786058134
176,12391.5756983555174815283713977243382,12390.0,1.5756983555174815283713977243382
177,12532.7768393602223653147296304193801,12531.2,1.5768393602223653147296304193801
178,12674.7779739334035988670663759452223,12673.2,1.5779739334035988670663759452223
179,12817.5791021471776433751166897158714,12816.0,1.5791021471776433751166897158714
180,12961.1802240724546079986313202536191,12959.6,1.5802240724546079986313202536191
181,13105.5813397789650100094254336336853,13104.0,1.5813397789650100094254336336853
182,13250.7824493352857977171975789658886,13249.2,1.5824493352857977171975789658886
183,13396.7835528088656592283623838012839,13395.2,1.5835528088656592283623838012839
184,13543.5846502660496412794025029504126,13542.0,1.5846502660496412794025029504126
185,13691.1857417721030999528325589463548,13689.6,1.5857417721030999528325589463548
186,13839.5868273912350042443637632500655,13838.0,1.5868273912350042443637632500655
187,13988.7879071866206162817357840133499,13987.2,1.5879071866206162817357840133499
188,14138.7889812204235636314994424053613,14137.2,1.5889812204235636314994424053613
189,14289.5900495538173274248068020684451,14288.0,1.5900495538173274248068020684451
190,14441.1911122470061619532522673832945,14439.6,1.5911122470061619532522673832945
191,14593.5921693592454649572818915574847,14592.0,1.5921693592454649572818915574847
192,14746.7932209488616149893387030709137,14745.2,1.5932209488616149893387030709137
193,14900.7942670732712941555561425773712,14899.2,1.5942670732712941555561425773712
194,15055.5953077890003095767457767958734,15054.0,1.5953077890003095767457767958734
195,15211.1963431517019315010009919625767,15209.6,1.5963431517019315010009919625767
196,15367.5973732161747617597790012899833,15366.0,1.5973732161747617597790012899833
197,15524.7983980363801469427440236845197,15523.2,1.5983980363801469427440236845197
198,15682.7994176654591504533124592245244,15681.2,1.5994176654591504533124592245244
199,15841.6004321557490962787150959456447,15840.0,1.6004321557490962787150959456447
200,16001.2014415587996984147370237521066,15999.6,1.6014415587996984147370237521066
201,16161.6024459253887869215136450400023,16160.0,1.6024459253887869215136450400023
202,16322.8034453055376439864936549146827,16321.2,1.6034453055376439864936549146827
203,16484.8044397485259606492507059561580,16483.2,1.6044397485259606492507059561580
204,16647.6054293029064258030048028240898,16646.0,1.6054293029064258030048028240898
205,16811.2064140165189574381650866444362,16809.6,1.6064140165189574381650866444362
206,16975.6073939365045891465904502124314,16974.0,1.6073939365045891465904502124314
207,17140.8083691093190177571931374465817,17139.2,1.6083691093190177571931374465817
208,17306.8093395807458263242894466135758,17305.2,1.6093395807458263242894466135758
209,17473.6103053959093882115247630832351,17472.0,1.6103053959093882115247630832351
210,17641.2112665992874637669714824390411,17639.6,1.6112665992874637669714824390411
211,17809.6122232347234969483558308545451,17808.0,1.6122232347234969483558308545451
212,17978.8131753454386221255352117725118,17977.2,1.6131753454386221255352117725118
213,18148.8141229740433854381135360275092,18147.2,1.6141229740433854381135360275092
214,18319.6150661625491956838776838918455,18318.0,1.6150661625491956838776838918455
215,18491.2160049523795039442792709661101,18489.6,1.6160049523795039442792709661101
216,18663.6169393843807259014117527654663,18662.0,1.6169393843807259014117527654663
217,18836.8178694988329108055178308873223,18835.2,1.6178694988329108055178308873223
218,19010.8187953354601660654695925129459,19009.2,1.6187953354601660654695925129459
219,19185.6197169334408407351497037900748,19184.0,1.6197169334408407351497037900748
220,19361.2206343314174804038538211366635,19359.6,1.6206343314174804038538211366635
221,19537.6215475675065513929962279244790,19536.0,1.6215475675065513929962279244790
222,19714.8224566793079514564762834015936,19713.2,1.6224566793079514564762834015936
223,19892.8233617039143005455288492188004,19891.2,1.6233617039143005455288492188004
224,20071.6242626779200266973488008115238,20070.0,1.6242626779200266973488008115238
225,20251.2251596374302496040238466405903,20249.6,1.6251596374302496040238466405903
226,20431.6260526180694653997082471825543,20430.0,1.6260526180694653997082471825543
227,20612.8269416549900413088754670980549,20611.2,1.6269416549900413088754670980549
228,20794.8278267828805219658405958007199,20793.2,1.6278267828805219658405958007199
229,20977.6287080359737545576873577843013,20976.0,1.6287080359737545576873577843013
230,21161.2295854480548374768275281911173,21159.6,1.6295854480548374768275281911173
231,21345.6304590524688942724466481472920,21344.0,1.6304590524688942724466481472920
232,21530.8313288821286833097400682129637,21529.2,1.6313288821286833097400682129637
233,21716.8321949695220381224269160050032,21715.2,1.6321949695220381224269160050032
234,21903.6330573467191546045908758048863,21902.0,1.6330573467191546045908758048863
235,22091.2339160453797182129306570134366,22089.6,1.6339160453797182129306570134366
236,22279.6347710967598808781710587138940,22278.0,1.6347710967598808781710587138940
237,22468.8356225317190912457439616528894,22467.2,1.6356225317190912457439616528894
238,22658.8364703807267799767324231215467,22657.2,1.6364703807267799767324231215467
