Eigenstate,Energy,Kinetic Energy,Potential Energy
1,0.500000000142053664545279809294737237,0.0,0.500000000142053664545279809294737237
2,1.84623093857837115979216282812749189,1.2,0.64623093857837115979216282812749189
3,3.93633761242873611450197258413095420,3.2,0.73633761242873611450197258413095420
4,6.79966528348757584879039556759976369,6.0,0.79966528348757584879039556759976369
5,10.4480465851131879877326246747451699,9.6,0.8480465851131879877326246747451699
6,14.8870660120776716215271960539238964,14.0,0.8870660120776716215271960539238964
7,20.1197208458274355006896096332315759,19.2,0.9197208458274355006896096332315759
8,26.1477838727438440296986325655545305,25.2,0.9477838727438440296986325655545305
9,32.9723835918358284747009994966029424,32.0,0.9723835918358284747009994966029424
10,40.5942802572537244207579461262801347,39.6,0.9942802572537244207579461262801347
11,49.0140094391398597071586039412481106,48.0,1.0140094391398597071586039412481106
12,58.2319622327998893047536413683485557,57.2,1.0319622327998893047536413683485557
13,68.2484327683004977751001504913298770,67.2,1.0484327683004977751001504913298770
14,79.0636477433256244972912583123892022,78.0,1.0636477433256244972912583123892022
15,90.6777855389906869941326006725966244,89.6,1.0777855389906869941326006725966244
16,103.090989024713050224749770296092087,102.0,1.090989024713050224749770296092087
17,116.303374391673546792807402093709781,115.2,1.103374391673546792807402093709781
18,130.315037403822687155591647520425399,129.2,1.115037403822687155591647520425399
19,145.126057920984644725740647141053533,144.0,1.126057920984644725740647141053533
20,160.736503236491197653174047138789372,159.6,1.136503236491197653174047138789372
21,177.146430583263429894650041348224403,176.0,1.146430583263429894650041348224403
22,194.355889044970474238538743700019417,193.2,1.155889044970474238538743700019417
23,212.364921033966039148136435272348358,211.2,1.164921033966039148136435272348358
24,231.173563448688832605480215562981013,230.0,1.173563448688832605480215562981013
25,250.781848590458489821805365241623274,249.6,1.181848590458489821805365241623274
26,271.189804897283162037508369765146428,270.0,1.189804897283162037508369765146428
27,292.397457536822093205925319242950541,291.2,1.197457536822093205925319242950541
28,314.404828889744660527474211285412251,313.2,1.204828889744660527474211285412251
29,337.211938946932326966301036152389293,336.0,1.211938946932326966301036152389293
30,360.818805638320466303201199084267474,359.6,1.218805638320466303201199084267474
31,385.225445107031082772045012260046615,384.0,1.225445107031082772045012260046615
32,410.431871939369547737547342024450723,409.2,1.231871939369547737547342024450723
33,436.438099358948828064691054039297150,435.2,1.238099358948828064691054039297150
34,463.244139391454134561455221626679938,462.0,1.244139391454134561455221626679938
35,490.850003005221723808942988490564072,489.6,1.250003005221723808942988490564072
36,519.255700231772107813065896037550161,518.0,1.255700231772107813065896037550161
37,548.461240269633841362377309162194798,547.2,1.261240269633841362377309162194798
38,578.466631574163638232708080768619214,577.2,1.266631574163638232708080768619214
39,609.271881935570718729126093691948723,608.0,1.271881935570718729126093691948723
40,640.876998546957470271720375461421473,639.6,1.276998546957470271720375461421473
41,673.281988063871752457617581578881369,672.0,1.281988063871752457617581578881369
42,706.486856656611185429841012072685025,705.2,1.286856656611185429841012072685025
43,740.491610056313274038474476220692528,739.2,1.291610056313274038474476220692528
44,775.296253595697126263904713660792932,774.0,1.296253595697126263904713660792932
45,810.900792245184954802771836013573930,809.6,1.300792245184954802771836013573930
46,847.305230645018414434545080121592273,846.0,1.305230645018414434545080121592273
47,884.509573133891351174213531833601188,883.2,1.309573133891351174213531833601188
48,922.513823774542952852255725384975110,921.2,1.313823774542952852255725384975110
49,961.317986376690628219091463870309018,960.0,1.317986376690628219091463870309018
50,1000.92206451762781895751353412837913,999.6,1.32206451762781895751353412837913
51,1041.32606156076648202408160318285179,1040.0,1.32606156076648202408160318285179
52,1082.52998067236563452612488868490104,1081.2,1.32998067236563452612488868490104
53,1124.53382483665490322242447889361649,1123.2,1.33382483665490322242447889361649
54,1167.33759686953445960416524612670853,1166.0,1.33759686953445960416524612670853
55,1210.94129943100924602021432192902145,1209.6,1.34129943100924602021432192902145
56,1255.34493503649532374064058618659811,1254.0,1.34493503649532374064058618659811
57,1300.54850606711897488725545173927577,1299.2,1.34850606711897488725545173927577
58,1346.55201477911439297365263235675497,1345.2,1.35201477911439297365263235675497
59,1393.35546331241304284993771006132349,1392.0,1.35546331241304284993771006132349
60,1440.95885369850674633962808935172441,1439.6,1.35885369850674633962808935172441
61,1489.36218786765698562869130424917769,1488.0,1.36218786765698562869130424917769
62,1538.56546765551461546157002292498085,1537.2,1.36546765551461546157002292498085
63,1588.56869480920693331001570561076403,1587.2,1.36869480920693331001570561076403
64,1639.37187099294274420062631145016069,1638.0,1.37187099294274420062631145016069
65,1690.97499779318052204700707837296372,1689.6,1.37499779318052204700707837296372
66,1743.37807672339992199341528109436923,1742.0,1.37807672339992199341528109436923
67,1796.58110922851263598542172415639184,1795.2,1.38110922851263598542172415639184
68,1850.58409668894482762231061824972267,1849.2,1.38409668894482762231061824972267
69,1905.38704042442006967521111136609726,1904.0,1.38704042442006967521111136609726
70,1960.98994169746877938668692149692072,1959.6,1.38994169746877938668692149692072
71,2017.39280171668754796377977619684113,2016.0,1.39280171668754796377977619684113
72,2074.59562163976946243411945374845057,2073.2,1.39562163976946243411945374845057
73,2132.59840257632446502831059318353149,2131.2,1.39840257632446502831059318353149
74,2191.40114559050697640325155128958642,2190.0,1.40114559050697640325155128958642
75,2251.00385170346637791993811843644849,2249.6,1.40385170346637791993811843644849
76,2311.40652189563449863254818239625929,2310.0,1.40652189563449863254818239625929
77,2372.60915710886295024718612673320953,2371.2,1.40915710886295024718612673320953
78,2434.61175824842198751048462340875885,2433.2,1.41175824842198751048462340875885
79,2497.41432618487152466826974237955843,2496.0,1.41432618487152466826974237955843
80,2561.01686175581400050885010517432395,2559.6,1.41686175581400050885010517432395
81,2625.41936576753793516401557967793360,2624.0,1.41936576753793516401557967793360
82,2690.62183899656026039027631937984957,2689.2,1.42183899656026039027631937984957
83,2756.62428219107481631908475137361332,2755.2,1.42428219107481631908475137361332
84,2823.42669607231378337306654208766095,2822.0,1.42669607231378337306654208766095
85,2891.02908133582825876911387470663141,2889.6,1.42908133582825876911387470663141
86,2959.43143865269367116380484990539057,2958.0,1.43143865269367116380484990539057
87,3028.63376867064526952581439280638209,3027.2,1.43376867064526952581439280638209
88,3098.63607201514849894224600974996685,3097.2,1.43607201514849894224600974996685
89,3169.43834929040869256365340474306283,3168.0,1.43834929040869256365340474306283
90,3241.04060108032416567579203503892909,3239.6,1.44060108032416567579203503892909
91,3313.44282794938647643409128576597990,3312.0,1.44282794938647643409128576597990
92,3386.64503044353132949929846050982177,3385.2,1.44503044353132949929846050982177
93,3460.64720909094333655769219798036893,3459.2,1.44720909094333655769219798036893
94,3535.44936440281760478052462644826402,3534.0,1.44936440281760478052462644826402
95,3611.05149687408090312332397450737010,3609.6,1.45149687408090312332397450737010
96,3687.45360698407495454357337587658859,3686.0,1.45360698407495454357337587658859
97,3764.65569519720421787317362334475060,3763.2,1.45569519720421787317362334475060
98,3842.65776196355035020780264532509085,3841.2,1.45776196355035020780264532509085
99,3921.45980771945538720309785203737433,3920.0,1.45980771945538720309785203737433
100,4001.06183288807553232717079243086455,3999.6,1.46183288807553232717079243086455
101,4081.46383787990731681481166685833583,4080.0,1.46383787990731681481166685833583
102,4162.66582309328776649401978806990790,4161.2,1.46582309328776649401978806990790
103,4244.66778891487010374188516701841040,4243.2,1.46778891487010374188516701841040
104,4327.46973572007640556213722389477100,4326.0,1.46973572007640556213722389477100
105,4411.07166387352854570291975942337361,4409.6,1.47166387352854570291975942337361
106,4495.47357372945865796910994843760116,4494.0,1.47357372945865796910994843760116
107,4580.67546563210027980154435663680560,4579.2,1.47546563210027980154435663680560
108,4666.67733991606125595596143343598110,4665.2,1.47733991606125595596143343598110
109,4753.47919690667941352093796659265187,4752.0,1.47919690667941352093796659265187
110,4841.08103692036195709397208843827902,4839.6,1.48103692036195709397208843827902
111,4929.48286026490946707366879810624245,4928.0,1.48286026490946707366879810624245
112,5018.68466723982533459235193985978846,5017.2,1.48466723982533459235193985978846
113,5108.68645813661141107763312518634054,5107.2,1.48645813661141107763312518634054
114,5199.48823323905060167371376404884845,5198.0,1.48823323905060167371376404884845
115,5291.08999282347709130469488403740137,5289.6,1.48999282347709130469488403740137
116,5383.49173715903484383052265193830238,5382.0,1.49173715903484383052265193830238
117,5476.69346650792498303319209297389530,5475.2,1.49346650792498303319209297389530
118,5570.69518112564262313972754381299126,5569.2,1.49518112564262313972754381299126
119,5665.49688126120368287474331844663209,5664.0,1.49688126120368287474331844663209
120,5761.09856715736219119315490341604791,5759.6,1.49856715736219119315490341604791
121,5857.50023905081855457636836423905358,5856.0,1.50023905081855457636836423905358
122,5954.70189717241923686214355152036521,5953.2,1.50189717241923686214355152036521
123,6052.70354174734827038539773351355406,6051.2,1.50354174734827038539773351355406
124,6151.50517299531099952740780558104738,6150.0,1.50517299531099952740780558104738
125,6251.10679113071042820460891516665555,6249.6,1.50679113071042820460891516665555
126,6351.50839636281652763089083174394693,6350.0,1.50839636281652763089083174394693
127,6452.70998889592884010940866361810397,6451.2,1.50998889592884010940866361810397
128,6554.71156892953269202273703619163387,6553.2,1.51156892953269202273703619163387
129,6657.51313665844931711695958031415799,6656.0,1.51313665844931711695958031415799
130,6761.11469227298017279342079138510325,6759.6,1.51469227298017279342079138510325
131,6865.51623595904571671775096020574648,6864.0,1.51623595904571671775096020574648
132,6970.71776789831889607857625129314758,6969.2,1.51776789831889607857625129314758
133,7076.71928826835359004674244583869154,7075.2,1.51928826835359004674244583869154
134,7183.52079724270823470992651455768561,7182.0,1.52079724270823470992651455768561
135,7291.12229499106484164916775741936481,7289.6,1.52229499106484164916775741936481
136,7399.52378167934361763632161278360384,7398.0,1.52378167934361763632161278360384
137,7508.72525746981337962349995462665407,7507.2,1.52525746981337962349995462665407
138,7618.72672252119794558357079809150731,7617.2,1.52672252119794558357079809150731
139,7729.52817698877867965488794962138212,7728.0,1.52817698877867965488794962138212
140,7841.12962102449335459745544063225559,7839.6,1.52962102449335459745544063225559
141,7953.53105477703149001024225934011955,7952.0,1.53105477703149001024225934011955
142,8066.73247839192631668610017780283036,8065.2,1.53247839192631668610017780283036
143,8180.73389201164350883056888813920404,8179.2,1.53389201164350883056888813920404
144,8295.53529577566681869121852766147837,8294.0,1.53529577566681869121852766147837
145,8411.13668982058074395642296574121330,8409.6,1.53668982058074395642296574121330
146,8527.53807428015035041370893922452294,8526.0,1.53807428015035041370893922452294
147,8644.73944928539836415486233988610390,8643.2,1.53944928539836415486233988610390
148,8762.74081496467964865694150591032963,8761.2,1.54081496467964865694150591032963
149,8881.54217144375316854027760016823789,8880.0,1.54217144375316854027760016823789
150,9001.14351884585154364446484970180435,8999.6,1.54351884585154364446484970180435
151,9121.54485729174828933672501379034152,9120.0,1.54485729174828933672501379034152
152,9242.74618689982283335194622161191649,9241.2,1.54618689982283335194622161191649
153,9364.74750778612339811422430373110938,9363.2,1.54750778612339811422430373110938
154,9487.54882006442783243928400120303960,9486.0,1.54882006442783243928400120303960
155,9611.15012384630247085391120005877809,9609.6,1.55012384630247085391120005877809
156,9735.55141924115909839890144592708349,9734.0,1.55141924115909839890144592708349
157,9860.75270635631009196226987635691106,9859.2,1.55270635631009196226987635691106
158,9986.75398529702180996097162691499101,9985.2,1.55398529702180996097162691499101
159,10113.5552561665662940441141523482841,10112.0,1.5552561665662940441141523482841
160,10241.1565190662713491553527971088994,10239.6,1.5565190662713491553527971088994
161,10369.5577740955690604507427849364654,10368.0,1.5577740955690604507427849364654
162,10498.7590213520428065333073315276606,10497.2,1.5590213520428065333073315276606
163,10628.7602609314728238577796456262252,10627.2,1.5602609314728238577796456262252
164,10759.5614929278803769422789958228816,10758.0,1.5614929278803769422789958228816
165,10891.1627174335705829873047927937080,10889.6,1.5627174335705829873047927937080
166,11023.5639345391739414178080185195800,11022.0,1.5639345391739414178080185195800
167,11156.7651443336866155808334758471094,11155.2,1.5651443336866155808334758471094
168,11290.7663469045095092878249576140002,11289.2,1.5663469045095092878249576140002
169,11425.5675423374861832638646790399641,11424.0,1.5675423374861832638646790399641
170,11561.1687307169396512471488886346119,11559.6,1.5687307169396512471488886346119
171,11697.5699121257080959333493399096954,11696.0,1.5699121257080959333493399096954
172,11834.7710866451795426317118190679586,11833.2,1.5710866451795426317118190679586
173,11972.7722543553255260354197342727519,11971.2,1.5722543553255260354197342727519
174,12111.5734153347337859499391473353376,12110.0,1.5734153347337859499391473353376
175,12251.1745696606400259644826889872812,12249.6,1.5745696606400259644826889872812
176,12391.5757174089587647731562302322107,12390.0,1.5757174089587647731562302322107
177,12532.7768586543133134065394467533110,12531.2,1.5768586543133134065394467533110
178,12674.7779934700649075283154428084216,12673.2,1.5779934700649075283154428084216
179,12817.5791219283410212421189999268918,12816.0,1.5791219283410212421189999268918
180,12961.1802441000628933552304081931137,12959.6,1.5802441000628933552304081931137
181,13105.5813600549722887479333163310157,13104.0,1.5813600549722887479333163310157
182,13250.7824698616575225441595219282830,13249.2,1.5824698616575225441595219282830
183,13396.7835735875787701329381844828176,13395.2,1.5835735875787701329381844828176
184,13543.5846712990926872824318436646088,13542.0,1.5846712990926872824318436646088
185,13691.1857630614763621549368656391279,13689.6,1.5857630614763621549368656391279
186,13839.5868489389506201917226916143789,13838.0,1.5868489389506201917226916143789
187,13988.7879289947027056684733544615034,13987.2,1.5879289947027056684733544615034
188,14138.7890032909083553579127243309379,14137.2,1.5890032909083553579127243309379
189,14289.5900718887532880309750046848493,14288.0,1.5900718887532880309750046848493
190,14441.1911348484541254478754753863520,14439.6,1.5911348484541254478754753863520
191,14593.5921922292787640619150816048044,14592.0,1.5921922292787640619150816048044
192,14746.7932440895662138185089029361045,14745.2,1.5932440895662138185089029361045
193,14900.7942904867459223535799574962419,14899.2,1.5942904867459223535799574962419
194,15055.5953314773565979323985671515010,15054.0,1.5953314773565979323985671515010
195,15211.1963671170645490615311788784900,15209.6,1.5963671170645490615311788784900
196,15367.5973974606815544661082085656625,15366.0,1.5973974606815544661082085656625
197,15524.7984225621822778080484553628066,15523.2,1.5984225621822778080484553628066
198,15682.7994424747212413075412607252942,15681.2,1.5994424747212413075412607252942
199,15841.6004572506493711019714462304972,15840.0,1.6004572506493711019714462304972
200,16001.2014669415301282828209151496077,15999.6,1.6014669415301282828209151496077
201,16161.6024715981552365873081532406167,16160.0,1.6024715981552365873081532406167
202,16322.8034712705600201212678729647889,16321.2,1.6034712705600201212678729647889
203,16484.8044660080383617683474413134219,16483.2,1.6044660080383617683474413134219
204,16647.6054558591572939007878952406737,16646.0,1.6054558591572939007878952406737
205,16811.2064408717712313575130514036762,16809.6,1.6064408717712313575130514036762
206,16975.6074210930358597086448460468240,16974.0,1.6074210930358597086448460468240
207,17140.8083965694216846774987503289510,17139.2,1.6083965694216846774987503289510
208,17306.8093673467272569419004497216148,17305.2,1.6093673467272569419004497216148
209,17473.6103334700920780580986146457359,17472.0,1.6103334700920780580986146457359
210,17641.2112949840091990033253770245997,17639.6,1.6112949840091990033253770245997
211,17809.6122519323375186964250415799676,17808.0,1.6122519323375186964250415799676
212,17978.8132043583137927241457436857647,17977.2,1.6132043583137927241457436857647
213,18148.8141523045643566514643315440174,18147.2,1.6141523045643566514643315440174
214,18319.6150958131165788921177626975054,18318.0,1.6150958131165788921177626975054
215,18491.2160349254100423460686398842487,18489.6,1.6160349254100423460686398842487
216,18663.6169696823074687588659369946292,18662.0,1.6169696823074687588659369946292
217,18836.8179001241053897624570863837388,18835.2,1.6179001241053897624570863837388
218,19010.8188262905445735704266744180719,19009.2,1.6188262905445735704266744180719
219,19185.6197482208202106011336026834823,19184.0,1.6197482208202106011336026834823
220,19361.2206659535918705374197679328836,19359.6,1.6206659535918705374197679328836
221,19537.6215795269932287257374555114598,19536.0,1.6215795269932287257374555114598
222,19714.8224889786415791126304055081586,19713.2,1.6224889786415791126304055081586
223,19892.8233943456471272799785618939038,19891.2,1.6233943456471272799785618939038
224,20071.6242956646220786388976168113938,20070.0,1.6242956646220786388976168113938
225,20251.2251929716895243394398455080480,20249.6,1.6251929716895243394398455080480
226,20431.6260863024921284346533969349773,20430.0,1.6260863024921284346533969349773
227,20612.8269756922006249424748214118758,20611.2,1.6269756922006249424748214118758
228,20794.8278611755221266162982960031825,20793.2,1.6278611755221266162982960031825
229,20977.6287427867082525770188756722895,20976.0,1.6287427867082525770188756722895
230,21161.2296205595630794934552803149528,21159.6,1.6296205595630794934552803149528
231,21345.6304945274509181010989082651049,21344.0,1.6304945274509181010989082651049
232,21530.8313647233039254687983278409381,21529.2,1.6313647233039254687983278409381
233,21716.8322311796295479995877307431855,21715.2,1.6322311796295479995877307431855
234,21903.6330939285178113124446329778622,21902.0,1.6330939285178113124446329778622
235,22091.2339530016484501768095831139135,22089.6,1.6339530016484501768095831139135
236,22279.6348084302978881993862750642554,22278.0,1.6348084302978881993862750642554
237,22468.8356602453460708841152457193569,22467.2,1.6356602453460708841152457193569
238,22658.8365084772831537971120196117538,22657.2,1.6365084772831537971120196117538
