Eigenstate,Energy,Kinetic Energy,Potential Energy
1,0.500000000095477540660655960715368893,0.0,0.500000000095477540660655960715368893
2,1.84623093827434383541909330753711884,1.2,0.64623093827434383541909330753711884
3,3.93633761153566824820033833799374912,3.2,0.73633761153566824820033833799374912
4,6.79966528162738283427822660020916973,6.0,0.79966528162738283427822660020916973
5,10.4480465818908765996113634977750749,9.6,0.8480465818908765996113634977750749
6,14.8870660070912873279995730904251351,14.0,0.8870660070912873279995730904251351
7,20.1197208386717201803986978191186459,19.2,0.9197208386717201803986978191186459
8,26.1477838630117545473872178215926812,25.2,0.9477838630117545473872178215926812
9,32.9723835791192365306615394471654189,32.0,0.9723835791192365306615394471654189
10,40.5942802411437659570457820385668229,39.6,0.9942802411437659570457820385668229
11,49.0140094192271193322794523077281835,48.0,1.0140094192271193322794523077281835
12,58.2319622086745006374048993502336921,57.2,1.0319622086745006374048993502336921
13,68.2484327395521980049793614981784492,67.2,1.0484327395521980049793614981784492
14,79.0636477095437825886869937013546955,78.0,1.0636477095437825886869937013546955
15,90.6777854997643159795088823126706254,89.6,1.0777854997643159795088823126706254
16,103.090988979630809495122025290563184,102.0,1.090988979630809495122025290563184
17,116.303374340323737871708404472994830,115.2,1.103374340323737871708404472994830
18,130.315037345793245093406408299206679,129.2,1.115037345793245093406408299206679
19,145.126057855863126467441884604630395,144.0,1.126057855863126467441884604630395
20,160.736503163864768261239003297214259,159.6,1.136503163864768261239003297214259
21,177.146430502718847216635988057300948,176.0,1.146430502718847216635988057300948
22,194.355888956094072422389570489430706,193.2,1.155888956094072422389570489430706
23,212.364920936343711286428032930891196,211.2,1.164920936343711286428032930891196
24,231.173563341906012708336650122930893,230.0,1.173563341906012708336650122930893
25,250.781848474100134262628710570919361,249.6,1.181848474100134262628710570919361
26,271.189804770933730577031642916092321,270.0,1.189804770933730577031642916092321
27,292.397457400065529672792141765724148,291.2,1.197457400065529672792141765724148
28,314.404828742164373213948903475425666,313.2,1.204828742164373213948903475425666
29,337.211938788111168783442799244335499,336.0,1.211938788111168783442799244335499
30,360.818805467840714729309339781377287,359.6,1.218805467840714729309339781377287
31,385.225444924474419620321767212676789,384.0,1.225444924474419620321767212676789
32,410.431871744317038762988858627188300,409.2,1.231871744317038762988858627188300
33,436.438099150980902425686739644437395,435.2,1.238099150980902425686739644437395
34,463.244139170150564148083890005129808,462.0,1.244139170150564148083890005129808
35,490.850002770161602447237902637002716,489.6,1.250002770161602447237902637002716
36,519.255699982533830352389122069597073,518.0,1.255699982533830352389122069597073
37,548.461240005795082651357050753797893,547.2,1.261240005795082651357050753797893
38,578.466631295301331987847457396385987,577.2,1.266631295301331987847457396385987
39,609.271881641261036299110907471693633,608.0,1.271881641261036299110907471693633
40,640.876998236775799299578565167386581,639.6,1.276998236775799299578565167386581
41,673.281987737392675442170076482277290,672.0,1.281987737392675442170076482277290
42,706.486856313408458187298655386507042,705.2,1.286856313408458187298655386507042
43,740.491609695959804064552466943043528,739.2,1.291609695959804064552466943043528
44,775.296253217764950996424372322379315,774.0,1.296253217764950996424372322379315
45,810.900791849245219784383310099871702,809.6,1.300791849245219784383310099871702
46,847.305230230641351374921661253219943,846.0,1.305230230641351374921661253219943
47,884.509572700646255910828406728408008,883.2,1.309572700646255910828406728408008
48,922.513823321998163208647398607139743,921.2,1.313823321998163208647398607139743
49,961.317985904413501759348514445132689,960.0,1.317985904413501759348514445132689
50,1000.92206402518471063555765119355667,999.6,1.32206402518471063555765119355667
51,1041.32606104772272172619569798464225,1040.0,1.32606104772272172619569798464225
52,1082.52998013828550450505751823605270,1081.2,1.32998013828550450505751823605270
53,1124.53382428110161542129974811199666,1123.2,1.33382428110161542129974811199666
54,1167.33759629207013286833666662845509,1166.0,1.33759629207013286833666662845509
55,1210.94129883119488319511999725549798,1209.6,1.34129883119488319511999725549798
56,1255.34493441389078865364387213139683,1254.0,1.34493441389078865364387213139683
57,1300.54850542128296921138892165175988,1299.2,1.34850542128296921138892165175988
58,1346.55201410960443297112211651488813,1345.2,1.35201410960443297112211651488813
59,1393.35546261878543599318737182136697,1392.0,1.35546261878543599318737182136697
60,1440.95885298031656780771527930773822,1439.6,1.35885298031656780771527930773822
61,1489.36218712445805467667128956001112,1488.0,1.36218712445805467667128956001112
62,1538.56546688685947166054474341495919,1537.2,1.36546688685947166054474341495919
63,1588.56869401464681265545730917792867,1587.2,1.36869401464681265545730917792867
64,1639.37187017202755508654470671041736,1638.0,1.37187017202755508654470671041736
65,1690.97499694545882110349077314426423,1689.6,1.37499694545882110349077314426423
66,1743.37807584841888978503645044567166,1742.0,1.37807584841888978503645044567166
67,1796.58110832581805256795902064412914,1795.2,1.38110832581805256795902064412914
68,1850.58409575808104795520687779209545,1849.2,1.38409575808104795520687779209545
69,1905.38703946492999888714720744871594,1904.0,1.38703946492999888714720744871594
70,1960.98994070889384789161824433660454,1959.6,1.38994070889384789161824433660454
71,2017.39280069856768642474673668790002,2016.0,1.39280069856768642474673668790002
72,2074.59562059164307657210940627362325,2073.2,1.39562059164307657210940627362325
73,2132.59840149772841027341405478884597,2131.2,1.39840149772841027341405478884597
74,2191.40114448097653238532183857471646,2190.0,1.40114448097653238532183857471646
75,2251.00385056253522279592922988834445,2249.6,1.40385056253522279592922988834445
76,2311.40652072283468324767194171701007,2310.0,1.40652072283468324767194171701007
77,2372.60915590372487212699519370675163,2371.2,1.40915590372487212699519370675163
78,2434.61175701047436468095378936945362,2433.2,1.41175701047436468095378936945362
79,2497.41432491364136930091313175121718,2496.0,1.41432491364136930091313175121718
80,2561.01686045082659238787737541546735,2559.6,1.41686045082659238787737541546735
81,2625.41936442831679497249460478561492,2624.0,1.41936442831679497249460478561492
82,2690.62183762262712281223485777625508,2689.2,1.42183762262712281223485777625508
83,2756.62428078194960295444712336213007,2755.2,1.42428078194960295444712336213007
84,2823.42669462751457546228540664051443,2822.0,1.42669462751457546228540664051443
85,2891.02907985487126972432012677155681,2889.6,1.42907985487126972432012677155681
86,2959.43143713509321890326156569340258,2958.0,1.43143713509321890326156569340258
87,3028.63376711591374860842272689766749,3027.2,1.43376711591374860842272689766749
88,3098.63607042279635249881280104286566,3097.2,1.43607042279635249881280104286566
89,3169.43834765994438402159118216810557,3168.0,1.43834765994438402159118216810557
90,3241.04059941125415027388272733099795,3239.6,1.44059941125415027388272733099795
91,3313.44282624121517252390467474474267,3312.0,1.44282624121517252390467474474267
92,3386.64502869576108962981585977097733,3385.2,1.44502869576108962981585977097733
93,3460.64720730307441833964424753892733,3459.2,1.44720730307441833964424753892733
94,3535.44936257434814152691018892093636,3534.0,1.44936257434814152691018892093636
95,3611.05149500450687426253422105026423,3609.6,1.45149500450687426253422105026423
96,3687.45360507289015580150182633044130,3686.0,1.45360507289015580150182633044130
97,3764.65569324390023122064848516985025,3763.2,1.45569324390023122064848516985025
98,3842.65775996761651356963315390755751,3841.2,1.45775996761651356963315390755751
99,3921.45980568037876392498025285953726,3920.0,1.45980568037876392498025285953726
100,4001.06183080534088039665348249501191,3999.6,1.46183080534088039665348249501191
101,4081.46383575299705783247133378440761,4080.0,1.46383575299705783247133378440761
102,4162.66582092168195439095266095744815,4161.2,1.46582092168195439095266095744815
103,4244.66778669804639323956823393551251,4243.2,1.46778669804639323956823393551251
104,4327.46973345751002037066461870697796,4326.0,1.46973345751002037066461870697796
105,4411.07166156469224645356888960290612,4409.6,1.47166156469224645356888960290612
106,4495.47357137382270987714031735200411,4494.0,1.47357137382270987714031735200411
107,4580.67546322913242005507940042049611,4579.2,1.47546322913242005507940042049611
108,4666.67733746522666082675076329020329,4665.2,1.47733746522666082675076329020329
109,4753.47919440744066519274255859292914,4752.0,1.47919440744066519274255859292914
110,4841.08103437217901020426002539196361,4839.6,1.48103437217901020426002539196361
111,4929.48285766723961496425280022689821,4928.0,1.48285766723961496425280022689821
112,5018.68466459212317526454254088684643,5017.2,1.48466459212317526454254088684643
113,5108.68645543832881284742321087293359,5107.2,1.48645543832881284742321087293359
114,5199.48823048963666852245090551810305,5198.0,1.48823048963666852245090551810305
115,5291.08999002237812792063735698805608,5289.6,1.48999002237812792063735698805608
116,5383.49173430569432033661363745755640,5382.0,1.49173430569432033661363745755640
117,5476.69346360178349939632414266172053,5475.2,1.49346360178349939632414266172053
118,5570.69517816613787325670555662110765,5569.2,1.49517816613787325670555662110765
119,5665.49687824777041833008952372874676,5664.0,1.49687824777041833008952372874676
120,5761.09856408943218468383363574809521,5759.6,1.49856408943218468383363574809521
121,5857.50023592782056299844063424295497,5856.0,1.50023592782056299844063424295497
122,5954.70189399377896405429388787883491,5953.2,1.50189399377896405429388787883491
123,6052.70353851248832952420560108006380,6051.2,1.50353851248832952420560108006380
124,6151.50516970365087516916529912705315,6150.0,1.50516970365087516916529912705315
125,6251.10678778166643796841450775550801,6249.6,1.50678778166643796841450775550801
126,6351.50839295580178351767518872361832,6350.0,1.50839295580178351767518872361832
127,6452.70998543035320945147428334821976,6451.2,1.50998543035320945147428334821976
128,6554.71156540480275805831687633518670,6553.2,1.51156540480275805831687633518670
129,6657.51313307396833918422316808237806,6656.0,1.51313307396833918422316808237806
130,6761.11468862814804613827673629867759,6759.6,1.51468862814804613827673629867759
131,6865.51623225325893190971513538364100,6864.0,1.51623225325893190971513538364100
132,6970.71776413097049802889277639044557,6969.2,1.51776413097049802889277639044557
133,7076.71928443883313662286193339774111,7075.2,1.51928443883313662286193339774111
134,7183.52079335040175494036098252522072,7182.0,1.52079335040175494036098252522072
135,7291.12229103535479351265539673712023,7289.6,1.52229103535479351265539673712023
136,7399.52377765960884542914741970897820,7398.0,1.52377765960884542914741970897820
137,7508.72525338542907089872808673067274,7507.2,1.52525338542907089872808673067274
138,7618.72671837153558765585421488756369,7617.2,1.52671837153558765585421488756369
139,7729.52817277320601566442792495450974,7728.0,1.52817277320601566442792495450974
140,7841.12961674237433912658909663251371,7839.6,1.52961674237433912658909663251371
141,7953.53105042772624424604088607390118,7952.0,1.53105042772624424604088607390118
142,8066.73247397479108312226265187001099,8065.2,1.53247397479108312226265187001099
143,8180.73388752603060550179516509010852,8179.2,1.53388752603060550179516509010852
144,8295.53529122092459293314706944788898,8294.0,1.53529122092459293314706944788898
145,8411.13668519605352568411234172692199,8409.6,1.53668519605352568411234172692199
146,8527.53806958517840491153898684243951,8526.0,1.53806958517840491153898684243951
147,8644.73944451931784437062296259185663,8643.2,1.53944451931784437062296259185663
148,8762.74081012682254699276875182328338,8761.2,1.54081012682254699276875182328338
149,8881.54216653344726813298481590859314,8880.0,1.54216653344726813298481590859314
150,9001.14351386242036912770426225364708,8999.6,1.54351386242036912770426225364708
151,9121.54485223451105707729978984074093,9120.0,1.54485223451105707729978984074093
152,9242.74618176809440115247580747020758,9241.2,1.54618176809440115247580747020758
153,9364.74750257921421437424614747073341,9363.2,1.54750257921421437424614747073341
154,9487.54881478164388476675351119964174,9486.0,1.54881478164388476675351119964174
155,9611.15011848694523411893791529314635,9609.6,1.55011848694523411893791529314635
156,9735.55141380452548222143257965493324,9734.0,1.55141380452548222143257965493324
157,9860.75270084169238762530462548923741,9859.2,1.55270084169238762530462548923741
158,9986.75397970370763674075816063647439,9985.2,1.55397970370763674075816063647439
159,10113.5552504938385449486482733779389,10112.0,1.5552504938385449486482733779389
160,10241.1565133134081360623607571800613,10239.6,1.5565133134081360623607571800613
161,10369.5577682618436586361933678626258,10368.0,1.5577682618436586361933678626258
162,10498.7590154367235985813559470726005,10497.2,1.5590154367235985813559470726005
163,10628.7602549338232429429048827692871,10627.2,1.5602549338232429429048827692871
164,10759.5614868471588494742248921377233,10758.0,1.5614868471588494742248921377233
165,10891.1627112690304706092934257704454,10889.6,1.5627112690304706092934257704454
166,11023.5639282900634823483346042209918,11022.0,1.5639282900634823483346042209918
167,11156.7651379992488652892022260947739,11155.2,1.5651379992488652892022260947739
168,11290.7663404839822804934255653323290,11289.2,1.5663404839822804934255653323290
169,11425.5675358301019852490287180596530,11424.0,1.5675358301019852490287180596530
170,11561.1687241219256284732621106351057,11559.6,1.5687241219256284732621106351057
171,11697.5699054422859659497284980570059,11696.0,1.5699054422859659497284980570059
172,11834.7710798725655332665849224355793,11833.2,1.5710798725655332665849224355793
173,11972.7722474927303118581755495333372,11971.2,1.5722474927303118581755495333372
174,12111.5734083813624239936347494638622,12110.0,1.5734083813624239936347494638622
175,12251.1745626156918906974183094667377,12249.6,1.5745626156918906974183094667377
176,12391.5757102716274823081429200228211,12390.0,1.5757102716274823081429200228211
177,12532.7768514237866949362987906354772,12531.2,1.5768514237866949362987906354772
178,12674.7779861455248819752592486912076,12673.2,1.5779861455248819752592486912076
179,12817.5791145089635671105632204166928,12816.0,1.5791145089635671105632204166928
180,12961.1802365850179697738995139886419,12959.6,1.5802365850179697738995139886419
181,13105.5813524434237656904094271729432,13104.0,1.5813524434237656904094271729432
182,13250.7824621527631102147255234807631,13249.2,1.5824621527631102147255234807631
183,13396.7835657804899475050534827139891,13395.2,1.5835657804899475050534827139891
184,13543.5846633929546297768662668181078,13542.0,1.5846633929546297768662668181078
185,13691.1857550554278684443700277145396,13689.6,1.5857550554278684443700277145396
186,13839.5868408321240381183945150637787,13838.0,1.5868408321240381183945150637787
187,13988.7879207862238572612441870722271,13987.2,1.5879207862238572612441870722271
188,14138.7889949798964609348608107951629,14137.2,1.5889949798964609348608107951629
189,14289.5900634743208893734240261896170,14288.0,1.5900634743208893734240261896170
190,14441.1911263297070080315036393657625,14439.6,1.5911263297070080315036393657625
191,14593.5921836053158783303537804420705,14592.0,1.5921836053158783303537804420705
192,14746.7932353594795954845880948613577,14745.2,1.5932353594795954845880948613577
193,14900.7942816496206117131232296803791,14899.2,1.5942816496206117131232296803791
194,15055.5953225322705581752111728511063,15054.0,1.5953225322705581752111728511063
195,15211.1963580630885835639591761887003,15209.6,1.5963580630885835639591761887003
196,15367.5973882968792230492769637285401,15366.0,1.5973882968792230492769637285401
197,15524.7984132876098119456127005642719,15523.2,1.5984132876098119456127005642719
198,15682.7994330884274582664987710145721,15681.2,1.5994330884274582664987710145721
199,15841.6004477516755869998044465362989,15840.0,1.6004477516755869998044465362989
200,16001.2014573289100700439378138697887,15999.6,1.6014573289100700439378138697887
201,16161.6024618709149527814591285878869,16160.0,1.6024618709149527814591285878869
202,16322.8034614277177906663040831048008,16321.2,1.6034614277177906663040831048008
203,16484.8044560486046064793822428645021,16483.2,1.6044560486046064793822428645021
204,16647.6054457821344798675025684159797,16646.0,1.6054457821344798675025684159797
205,16811.2064306761537791310249928654870,16809.6,1.6064306761537791310249928654870
206,16975.6074107778100482790276132722173,16974.0,1.6074107778100482790276132722173
207,17140.8083861335655552227054476338685,17139.2,1.6083861335655552227054476338685
208,17306.8093567892105153284996877545228,17305.2,1.6093567892105153284996877545228
209,17473.6103227898759960738803033203933,17472.0,1.6103227898759960738803033203933
210,17641.2112841800465143014767650229469,17639.6,1.6112841800465143014767650229469
211,17809.6122410035723334306122117641076,17808.0,1.6122410035723334306122117641076
212,17978.8131933036814708534629063670307,17977.2,1.6131933036814708534629063670307
213,18148.8141411229914198938324333624430,18147.2,1.6141411229914198938324333624430
214,18319.6150845035206013043265483420731,18318.0,1.6150845035206013043265483420731
215,18491.2160234866995435082589591567996,18489.6,1.6160234866995435082589591567996
216,18663.6169581133818055408451219720063,18662.0,1.6169581133818055408451219720063
217,18836.8178884238546466488269096352726,18835.2,1.6178884238546466488269096352726
218,19010.8188144578494515210815217601309,19009.2,1.6188144578494515210815217601309
219,19185.6197362545519144232563817384012,19184.0,1.6197362545519144232563817384012
220,19361.2206538526119947446624090608340,19359.6,1.6206538526119947446624090608340
221,19537.6215672901536418598255902238608,19536.0,1.6215672901536418598255902238608
222,19714.8224766047843065021714671600438,19713.2,1.6224766047843065021714671600438
223,19892.8233818336042322107861517061750,19891.2,1.6233818336042322107861517061750
224,20071.6242830132155419096657578840294,20070.0,1.6242830132155419096657578840294
225,20251.2251801797311221761130608869797,20249.6,1.6251801797311221761130608869797
226,20431.6260733687833087363397675963297,20430.0,1.6260733687833087363397675963297
227,20612.8269626155323818312398633584521,20611.2,1.6269626155323818312398633584521
228,20794.8278479546748732626573122871790,20793.2,1.6278479546748732626573122871790
229,20977.6287294204516922724137131278399,20976.0,1.6287294204516922724137131278399
230,21161.2296070466560749404590500092541,21159.6,1.6296070466560749404590500092541
231,21345.6304808666413588915373786636550,21344.0,1.6304808666413588915373786636550
232,21530.8313509133285937194098427032340,21529.2,1.6313509133285937194098427032340
233,21716.8322172192139821142651254483782,21715.2,1.6322172192139821142651254483782
234,21903.6330798163761678395103504046306,21902.0,1.6330798163761678395103504046306
235,22091.2339387364833637291718531797871,22089.6,1.6339387364833637291718531797871
236,22279.6347940108003294048058551834650,22278.0,1.6347940108003294048058551834650
237,22468.8356456701952023321805021399904,22467.2,1.6356456701952023321805021399904
238,22658.8364937451461839488766595764487,22657.2,1.6364937451461839488766595764487
