Eigenstate,Energy,Kinetic Energy,Potential Energy
1,0.500000000016025774715471393046277063,0.0,0.500000000016025774715471393046277063
2,1.84623093775572248987257231219845689,1.2,0.64623093775572248987257231219845689
3,3.93633761001225249214710518069970362,3.2,0.73633761001225249214710518069970362
4,6.79966527845426064412212678943126090,6.0,0.79966527845426064412212678943126090
5,10.4480465763943330111654440571242468,9.6,0.8480465763943330111654440571242468
6,14.8870659985857870138442076017453863,14.0,0.8870659985857870138442076017453863
7,20.1197208264661609524158553438110993,19.2,0.9197208264661609524158553438110993
8,26.1477838464120718286312853537134283,25.2,0.9477838464120718286312853537134283
9,32.9723835574296112237025204255498768,32.0,0.9723835574296112237025204255498768
10,40.5942802136672345286784755079501964,39.6,0.9942802136672345286784755079501964
11,49.0140093852659024849074239539315418,48.0,1.0140093852659024849074239539315418
12,58.2319621675301885724023889873555974,57.2,1.0319621675301885724023889873555974
13,68.2484326905258576101046470237388417,67.2,1.0484326905258576101046470237388417
14,79.0636476519360196885335372551413648,78.0,1.0636476519360196885335372551413648
15,90.6777854328753104721432130446714854,89.6,1.0777854328753104721432130446714854
16,103.090988902760333452890253371677115,102.0,1.090988902760333452890253371677115
17,116.303374252771162556104541043207181,115.2,1.103374252771162556104541043207181
18,130.315037246857540531013859422427389,129.2,1.115037246857540531013859422427389
19,145.126057744842855897040990029812908,144.0,1.126057744842855897040990029812908
20,160.736503040058078958319102092334201,159.6,1.136503040058078958319102092334201
21,177.146430365423458702948234151810953,176.0,1.146430365423458702948234151810953
22,194.355888804607262750217725510415852,193.2,1.155888804607262750217725510415852
23,212.364920769962301879388980133765601,211.2,1.164920769962301879388980133765601
24,231.173563159926352101552737606658172,230.0,1.173563159926352101552737606658172
25,250.781848275818080990301883902543463,249.6,1.181848275818080990301883902543463
26,271.189804555644635389560328770286859,270.0,1.189804555644635389560328770286859
27,292.397457167064217219005577058587909,291.2,1.197457167064217219005577058587909
28,314.404828490745123290612217530493798,313.2,1.204828490745123290612217530493798
29,337.211938517567697229856654959705976,336.0,1.211938517567697229856654959705976
30,360.818805177466154026884000929636091,359.6,1.218805177466154026884000929636091
31,385.225444613561299243610048730504121,384.0,1.225444613561299243610048730504121
32,410.431871412157265318549839151683406,409.2,1.231871412157265318549839151683406
33,436.438098796865739607437672853219229,435.2,1.238098796865739607437672853219229
34,463.244138793370612531855265389186070,462.0,1.244138793370612531855265389186070
35,490.850002370006779142627129494536568,489.6,1.250002370006779142627129494536568
36,519.255699558293348526386697501386914,518.0,1.255699558293348526386697501386914
37,548.461239556757430935356619404589043,547.2,1.261239556757430935356619404589043
38,578.466630820754253777371927063043078,577.2,1.266630820754253777371927063043078
39,609.271881140491508953758701814103961,608.0,1.271881140491508953758701814103961
40,640.876997709070013249217915594638477,639.6,1.276997709070013249217915594638477
41,673.281987182036013204209805746465250,672.0,1.281987182036013204209805746465250
42,706.486855729685473298883010463263391,705.2,1.286855729685473298883010463263391
43,740.491609083154199932720859187338357,739.2,1.291609083154199932720859187338357
44,775.296252575159559668609827843126014,774.0,1.296252575159559668609827843126014
45,810.900791176121980641068665001858140,809.6,1.300791176121980641068665001858140
46,847.305229526281289745808738341411123,846.0,1.305229526281289745808738341411123
47,884.509571964329461615486087319885645,883.2,1.309571964329461615486087319885645
48,922.513822553003769022275492693061978,921.2,1.313822553003769022275492693061978
49,961.317985102019661804015469108964737,960.0,1.317985102019661804015469108964737
50,1000.92206318866857869703249894924774,999.6,1.32206318866857869703249894924774
51,1041.32606017636042949629097498608614,1040.0,1.32606017636042949629097498608614
52,1082.52997923135213974922489691543675,1081.2,1.32997923135213974922489691543675
53,1124.53382333787120007106891777301718,1123.2,1.33382333787120007106891777301718
54,1167.33759531181560103805658208452719,1166.0,1.33759531181560103805658208452719
55,1210.94129781318805912234719701038633,1209.6,1.34129781318805912234719701038633
56,1255.34493335740236456242222175893885,1254.0,1.34493335740236456242222175893885
57,1300.54850432558248309757700493295369,1299.2,1.34850432558248309757700493295369
58,1346.55201297396024630884611126154411,1345.2,1.35201297396024630884611126154411
59,1393.35546144246471136142826136784579,1392.0,1.35546144246471136142826136784579
60,1440.95885176258524643597711366749011,1439.6,1.35885176258524643597711366749011
61,1489.36218586458083390862169821021688,1488.0,1.36218586458083390862169821021688
62,1538.56546558409978233446869847046351,1537.2,1.36546558409978233446869847046351
63,1588.56869266826679640031981676382227,1587.2,1.36869266826679640031981676382227
64,1639.37186878128804153241678083810761,1638.0,1.37186878128804153241678083810761
65,1690.97499550961930500505487902711513,1689.6,1.37499550961930500505487902711513
66,1743.37807436673750805685293205971228,1742.0,1.37807436673750805685293205971228
67,1796.58110679755156123014265628988073,1795.2,1.38110679755156123014265628988073
68,1850.58409418248479898813263294377304,1849.2,1.38409418248479898813263294377304
69,1905.38703784125791699377594513562111,1904.0,1.38703784125791699377594513562111
70,1960.98993903639840716600719772547688,1959.6,1.38993903639840716600719772547688
71,2017.39279897649988692528388361571976,2016.0,1.39279897649988692528388361571976
72,2074.59561881925242079798781361183386,2073.2,1.39561881925242079798781361183386
73,2132.59839967426287954283909606869578,2131.2,1.39839967426287954283909606869578
74,2191.40114260568256311392279374108551,2190.0,1.40114260568256311392279374108551
75,2251.00384863465768267382560885795061,2249.6,1.40384863465768267382560885795061
76,2311.40651874161684731362496301719923,2310.0,1.40651874161684731362496301719923
77,2372.60915386840839873805493946887212,2371.2,1.40915386840839873805493946887212
78,2434.61175492029927137599351775417916,2433.2,1.41175492029927137599351775417916
79,2497.41432276784600855642344696425358,2496.0,1.41432276784600855642344696425358
80,2561.01685824864762726437480265762874,2559.6,1.41685824864762726437480265762874
81,2625.41936216898917464988073217777318,2624.0,1.41936216898917464988073217777318
82,2690.62183530538405801242451375576510,2689.2,1.42183530538405801242451375576510
83,2756.62427840602254124956644172211707,2755.2,1.42427840602254124956644172211707
84,2823.42669219213317646672299168441490,2822.0,1.42669219213317646672299168441490
85,2891.02907735926338016889708789048958,2889.6,1.42907735926338016889708789048958
86,2959.43143457848484758976904008938169,2958.0,1.43143457848484758976904008938169
87,3028.63376449752904124275785488899930,3027.2,1.43376449752904124275785488899930
88,3098.63606774185756640092698782635237,3097.2,1.43606774185756640092698782635237
89,3169.43834491567186271044712646535010,3168.0,1.43834491567186271044712646535010
90,3241.04059660286629792559933067244109,3239.6,1.44059660286629792559933067244109
91,3313.44282336792842830125119478502873,3312.0,1.44282336792842830125119478502873
92,3386.64502575678990188119957937320814,3385.2,1.44502575678990188119957937320814
93,3460.64720429763121866571785127553377,3459.2,1.44720429763121866571785127553377
94,3535.44935950164331871290747219927095,3534.0,1.44935950164331871290747219927095
95,3611.05149186374874807442477497438201,3609.6,1.45149186374874807442477497438201
96,3687.45360186328495064403736248055507,3686.0,1.45360186328495064403736248055507
97,3764.65568996465204965535494390510251,3763.2,1.45568996465204965535494390510251
98,3842.65775661792730969078475538161969,3841.2,1.45775661792730969078475538161969
99,3921.45980225944831659157254046324234,3920.0,1.45980225944831659157254046324234
100,4001.06182731236676631837406718749603,3999.6,1.46182731236676631837406718749603
101,4081.46383218717462450764761978827050,4080.0,1.46383218717462450764761978827050
102,4162.66581728220429289443687146706633,4161.2,1.46581728220429289443687146706633
103,4244.66778298410431085850065602966972,4243.2,1.46778298410431085850065602966972
104,4327.46972966829201308603572198310091,4326.0,1.46972966829201308603572198310091
105,4411.07165769938447126548170003178262,4409.6,1.47165769938447126548170003178262
106,4495.47356743160895697165376353788957,4494.0,1.47356743160895697165376353788957
107,4580.67545920919408481049307754257563,4579.2,1.47545920919408481049307754257563
108,4666.67733336674271565717073255750155,4665.2,1.47733336674271565717073255750155
109,4753.47919022958763122674669626796979,4752.0,1.47919022958763122674669626796979
110,4841.08103011413092879646027484218554,4839.6,1.48103011413092879646027484218554
111,4929.48285332816801903753003488514690,4928.0,1.48285332816801903753003488514690
112,5018.68466017119706048070767032050350,5017.2,1.48466017119706048070767032050350
113,5108.68645093471460860403623190397123,5107.2,1.48645093471460860403623190397123
114,5199.48822590249820877350678484188399,5198.0,1.48822590249820877350678484188399
115,5291.08998535087662181880498945849614,5289.6,1.48998535087662181880498945849614
116,5383.49172954898832269469089384257886,5382.0,1.49172954898832269469089384257886
117,5476.69345875902888096554844441289884,5475.2,1.49345875902888096554844441289884
118,5570.69517323648779081953565874940459,5569.2,1.49517323648779081953565874940459
119,5665.49687323037528460505011392412149,5664.0,1.49687323037528460505011392412149
120,5761.09855898343963803998940288012354,5759.6,1.49855898343963803998940288012354
121,5857.50023073237543697704200907343553,5856.0,1.50023073237543697704200907343553
122,5954.70188870802325669511124721989888,5953.2,1.50188870802325669511124721989888
123,6052.70353313556117249404290971297805,6051.2,1.50353313556117249404290971297805
124,6151.50516423468850269001862886873249,6150.0,1.50516423468850269001862886873249
125,6251.10678221980215554271382837739413,6249.6,1.50678221980215554271382837739413
126,6351.50838730016593644802158638773420,6350.0,1.50838730016593644802158638773420
127,6452.70997968007315115225734299880005,6451.2,1.50997968007315115225734299880005
128,6554.71155955900281815656948747012591,6553.2,1.51155955900281815656948747012591
129,6657.51312713176979140704275574546349,6656.0,1.51312713176979140704275574546349
130,6761.11468258866907598411410408341179,6759.6,1.51468258866907598411410408341179
131,6865.51622611561460410080264285059313,6864.0,1.51622611561460410080264285059313
132,6970.71775789427272374205441173363248,6969.2,1.51775789427272374205441173363248
133,7076.71927810219064049591886414062222,7075.2,1.51927810219064049591886414062222
134,7183.52078691292004185131498698249596,7182.0,1.52078691292004185131498698249596
135,7291.12228449613611512880257012518730,7289.6,1.52228449613611512880257012518730
136,7399.52377101775216652324376560602209,7398.0,1.52377101775216652324376560602209
137,7508.72524664003003542929643499630482,7507.2,1.52524664003003542929643499630482
138,7618.72671152168648460869024675378969,7617.2,1.52671152168648460869024675378969
139,7729.52816581799574465233083819057322,7728.0,1.52816581799574465233083819057322
140,7841.12960968088837574430908666229747,7839.6,1.52960968088837574430908666229747
141,7953.53104325904660517740260083200697,7952.0,1.53104325904660517740260083200697
142,8066.73246669799629099638941951131046,8065.2,1.53246669799629099638941951131046
143,8180.73388014019565349532467663675584,8179.2,1.53388014019565349532467663675584
144,8295.53528372512090911529391193617221,8294.0,1.53528372512090911529391193617221
145,8411.13667758934893710139773952049771,8409.6,1.53667758934893710139773952049771
146,8527.53806186663710140897153937673120,8526.0,1.53806186663710140897153937673120
147,8644.73943668800034214607789014957213,8643.2,1.53943668800034214607789014957213
148,8762.74080218178565188127614060300477,8761.2,1.54080218178565188127614060300477
149,8881.54215847374403861759917856074698,8880.0,1.54215847374403861759917856074698
150,9001.14350568710007907359032004287897,8999.6,1.54350568710007907359032004287897
151,9121.54484394261915818562941729108551,9120.0,1.54484394261915818562941729108551
152,9242.74617335867248513069266532626562,9241.2,1.54617335867248513069266532626562
153,9364.74749405129997481921390188804355,9363.2,1.54749405129997481921390188804355
154,9487.54880613427107875726324913599341,9486.0,1.54880613427107875726324913599341
155,9611.15010971914364351400904457963688,9609.6,1.55010971914364351400904457963688
156,9735.55140491532087466079908415318053,9734.0,1.55140491532087466079908415318053
157,9860.75269183010647722843709545523778,9859.2,1.55269183010647722843709545523778
158,9986.75397056875804450072785275103901,9985.2,1.55397056875804450072785275103901
159,10113.5552412345387588170964276273922,10112.0,1.5552412345387588170964276273922
160,10241.1565039287674707217912584864377,10239.6,1.5565039287674707217912584864377
161,10369.5577587508672149557620479421932,10368.0,1.5577587508672149557620479421932
162,10498.7590057984122227522838568104361,10497.2,1.5590057984122227522838568104361
163,10628.7602451671734852895967288824273,10627.2,1.5602451671734852895967288824273
164,10759.5614769511629229371257964807820,10758.0,1.5614769511629229371257964807820
165,10891.1627012426762088954695067832873,10889.6,1.5627012426762088954695067832873
166,11023.5639181323342977457147055496363,11022.0,1.5639181323342977457147055496363
167,11156.7651277091237061403679666821173,11155.2,1.5651277091237061403679666821173
168,11290.7663300604355883247866537905737,11289.2,1.5663300604355883247866537905737
169,11425.5675252721036515511702597595125,11424.0,1.5675252721036515511702597595125
170,11561.1687134284409511281976689785881,11559.6,1.5687134284409511281976689785881
171,11697.5698946122756053007410427100730,11696.0,1.5698946122756053007410427100730
172,11834.7710689049854678262841877531430,11833.2,1.5710689049854678262841877531430
173,11972.7722363865317936503460430609961,11971.2,1.5722363865317936503460430609961
174,12111.5733971354919335243931552971360,12110.0,1.5733971354919335243931552971360
175,12251.1745512290910915511440236043862,12249.6,1.5745512290910915511440236043862
176,12391.5756987432331753635879558799037,12390.0,1.5756987432331753635879558799037
177,12532.7768397525307721982257511679480,12531.2,1.5768397525307721982257511679480
178,12674.7779743303342800168981684511251,12673.2,1.5779743303342800168981684511251
179,12817.5791025487602201221177642255479,12816.0,1.5791025487602201221177642255479
180,12961.1802244787187622122727854958572,12959.6,1.5802244787187622122727854958572
181,13105.5813401899404845252589356575645,13104.0,1.5813401899404845252589356575645
182,13250.7824497510023967658940717490554,13249.2,1.5824497510023967658940717490554
183,13396.7835532293532488663594088623477,13395.2,1.5835532293532488663594088623477
184,13543.5846506913381498211728267104157,13542.0,1.5846506913381498211728267104157
185,13691.1857422022225184047870458072283,13689.6,1.5857422022225184047870458072283
186,13839.5868278262153867404015017779488,13838.0,1.5868278262153867404015017779488
187,13988.7879076264920805204545150570765,13987.2,1.5879076264920805204545150570765
188,14138.7889816652162913150794374837326,14137.2,1.5889816652162913150794374837326
189,14289.5900500035615646995814051478543,14288.0,1.5900500035615646995814051478543
190,14441.1911127017322198519783930969340,14439.6,1.5911127017322198519783930969340
191,14593.5921698189837198431238688756191,14592.0,1.5921698189837198431238688756191
192,14746.7932214136425090015788897612555,14745.2,1.5932214136425090015788897612555
193,14900.7942675431253356570458777404783,14899.2,1.5942675431253356570458777404783
194,15055.5953082639580736031102547774564,15054.0,1.5953082639580736031102547774564
195,15211.1963436317940602116117786579367,15209.6,1.5963436317940602116117786579367
196,15367.5973737014319648905079549397632,15366.0,1.5973737014319648905079549397632
197,15524.7983985268332022605124907844195,15523.2,1.5983985268332022605124907844195
198,15682.7994181611389042124496700136195,15681.2,1.5994181611389042124496700136195
199,15841.6004326566864636791398263581519,15840.0,1.6004326566864636791398263581519
200,16001.2014420650256640619766019190288,15999.6,1.6014420650256640619766019190288
201,16161.6024464369344052885745077761118,16160.0,1.6024464369344052885745077761118
202,16322.8034458224340398775977763897014,16321.2,1.6034458224340398775977763897014
203,16484.8044402708043296654522237714819,16483.2,1.6044402708043296654522237714819
204,16647.6054298305980348097013390373029,16646.0,1.6054298305980348097013390373029
205,16811.2064145496551450345182929939037,16809.6,1.6064145496551450345182929939037
206,16975.6073944751167661368704457277950,16974.0,1.6073944751167661368704457277950
207,17140.8083696534386676240615300865480,17139.2,1.6083696534386676240615300865480
208,17306.8093401304045057040358109210026,17305.2,1.6093401304045057040358109210026
209,17473.6103059511387273712714542478012,17472.0,1.6103059511387273712714542478012
210,17641.2112671601191670838618243666712,17639.6,1.6112671601191670838618243666712
211,17809.6122238011893433907407371271719,17808.0,1.6122238011893433907407371271719
212,17978.8131759175704657361734854993784,17977.2,1.6131759175704657361734854993784
213,18148.8141235518731558194011149112152,18147.2,1.6141235518731558194011149112152
214,18319.6150667461088984851212379346063,18318.0,1.6150667461088984851212379346063
215,18491.2160055417012213510296096259459,18489.6,1.6160055417012213510296096259459
216,18663.6169399794966171268726617072961,18662.0,1.6169399794966171268726617072961
217,18836.8178700997752125840460141317836,18835.2,1.6178700997752125840460141317836
218,19010.8187959422611931481814780874598,19009.2,1.6187959422611931481814780874598
219,19185.6197175461329863876510335591410,19184.0,1.6197175461329863876510335591410
220,19361.2206349500332169061079920942825,19359.6,1.6206349500332169061079920942825
221,19537.6215481920784305413474806273047,19536.0,1.6215481920784305413474806273047
222,19714.8224573098686050678439298949945,19713.2,1.6224573098686050678439298949945
223,19892.8233623404964409637888336076488,19891.2,1.6233623404964409637888336076488
224,20071.6242633205564473019189976012632,20070.0,1.6242633205564473019189976012632
225,20251.2251602861538253206696123792415,20249.6,1.6251602861538253206696123792415
226,20431.6260532729131532135848386538043,20430.0,1.6260532729131532135848386538043
227,20612.8269423159868807798240467319328,20611.2,1.6269423159868807798240467319328
228,20794.8278274500636357459546585778966,20793.2,1.6278274500636357459546585778966
229,20977.6287087093763489111665265710081,20976.0,1.6287087093763489111665265710081
230,21161.2295861277102028021357762409425,21159.6,1.6295861277102028021357762409425
231,21345.6304597384104056267921118068159,21344.0,1.6304597384104056267921118068159
232,21530.8313295743898009358937145867422,21529.2,1.6313295743898009358937145867422
233,21716.8321956681363079778974980266499,21715.2,1.6321956681363079778974980266499
234,21903.6330580517202088931736534036852,21902.0,1.6330580517202088931736534036852
235,22091.2339167568012759186475232317651,22089.6,1.6339167568012759186475232317651
236,22279.6347718146357483016197872587657,22278.0,1.6347718146357483016197872587657
237,22468.8356232560831625428744906920936,22467.2,1.6356232560831625428744906920936
238,22658.8364711116130377000681023309076,22657.2,1.6364711116130377000681023309076
