Eigenstate,Energy,Kinetic Energy,Potential Energy
1,0.500000000074523198861753254192857808,0.0,0.500000000074523198861753254192857808
2,1.84623093813756399112828739344595890,1.2,0.64623093813756399112828739344595890
3,3.93633761113388474736855319828286288,3.2,0.73633761113388474736855319828286288
4,6.79966528079050299248046004265358561,6.0,0.79966528079050299248046004265358561
5,10.4480465804412058685747391195369501,9.6,0.8480465804412058685747391195369501
6,14.8870660048480063387043160597721469,14.0,0.8870660048480063387043160597721469
7,20.1197208354525321339752895831668425,19.2,0.9197208354525321339752895831668425
8,26.1477838586335702207489026989083977,25.2,0.9477838586335702207489026989083977
9,32.9723835733984909444175516004849979,32.0,0.9723835733984909444175516004849979
10,40.5942802338965773837476503958593294,39.6,0.9942802338965773837476503958593294
11,49.0140094102693740833709478570282871,48.0,1.0140094102693740833709478570282871
12,58.2319621978219000258128421854855532,57.2,1.0319621978219000258128421854855532
13,68.2484327266202847136551792637843968,67.2,1.0484327266202847136551792637843968
14,79.0636476943479551848887260561516832,78.0,1.0636476943479551848887260561516832
15,90.6777854821198362752496329942105936,89.6,1.0777854821198362752496329942105936
16,103.090988959352805411515220950608431,102.0,1.090988959352805411515220950608431
17,116.303374317227203376203924527752126,115.2,1.103374317227203376203924527752126
18,130.315037319693038171551454132547658,129.2,1.115037319693038171551454132547658
19,145.126057826573965738201636583755988,144.0,1.126057826573965738201636583755988
20,160.736503131201228632902823950076812,159.6,1.136503131201228632902823950076812
21,177.146430466495354848832496495050080,176.0,1.146430466495354848832496495050080
22,194.355888916124899175874197302326197,193.2,1.155888916124899175874197302326197
23,212.364920892442968787482987250758263,211.2,1.164920892442968787482987250758263
24,231.173563293887646117970136245782845,230.0,1.173563293887646117970136245782845
25,250.781848421777915815753253217194160,249.6,1.181848421777915815753253217194160
26,271.189804714121252939422612482605586,270.0,1.189804714121252939422612482605586
27,292.397457338576199151344995874916656,291.2,1.197457338576199151344995874916656
28,314.404828675811402846937911149893271,313.2,1.204828675811402846937911149893271
29,337.211938716707571331066176285517628,336.0,1.211938716707571331066176285517628
30,360.818805391199295580071990265892131,359.6,1.218805391199295580071990265892131
31,385.225444842407769625272725322459584,384.0,1.225444842407769625272725322459584
32,410.431871656637527007162210722367094,409.2,1.231871656637527007162210722367094
33,436.438099057500668944058965174066366,435.2,1.238099057500668944058965174066366
34,463.244139070681512591792022232845854,462.0,1.244139070681512591792022232845854
35,490.850002664515392704583282724402677,489.6,1.250002664515392704583282724402677
36,519.255699870521871128195041650961262,518.0,1.255699870521871128195041650961262
37,548.461239887228524007492274772038719,547.2,1.261239887228524007492274772038719
38,578.466631169991057847125123210024708,577.2,1.266631169991057847125123210024708
39,609.271881509017656914288723863507789,608.0,1.271881509017656914288723863507789
40,640.876998097409643688795467527823228,639.6,1.276998097409643688795467527823228
41,673.281987590713783791836654988958369,672.0,1.281987590713783791836654988958369
42,706.486856159226574223198439599934609,705.2,1.286856159226574223198439599934609
43,740.491609534084367391696825826084781,739.2,1.291609534084367391696825826084781
44,775.296253048005089408026251397769473,774.0,1.296253048005089408026251397769473
45,810.900791671409741540167061471893758,809.6,1.300791671409741540167061471893758
46,847.305230044538737448862184332104774,846.0,1.305230044538737448862184332104774
47,884.509572506084652208308449647977000,883.2,1.309572506084652208308449647977000
48,922.513823118785372752933274814402983,921.2,1.313823118785372752933274814402983
49,961.317985692356976847209136878357036,960.0,1.317985692356976847209136878357036
50,1000.92206380409154496178723933279724,999.6,1.32206380409154496178723933279724
51,1041.32606081739964247674488211761107,1040.0,1.32606081739964247674488211761107
52,1082.52997989853886441842945823067238,1081.2,1.32997989853886441842945823067238
53,1124.53382403173738481782598998531368,1123.2,1.33382403173738481782598998531368
54,1167.33759603289389164691076146081857,1166.0,1.33759603289389164691076146081857
55,1210.94129856201181279693461306399996,1209.6,1.34129856201181279693461306399996
56,1255.34493413450566399244852246165319,1254.0,1.34493413450566399244852246165319
57,1300.54850513150015056975998739829773,1299.2,1.34850513150015056975998739829773
58,1346.55201380922785786221393829017770,1345.2,1.35201380922785786221393829017770
59,1393.35546230761861098741264551909298,1392.0,1.35546230761861098741264551909298
60,1440.95885265816256032378432179728779,1439.6,1.35885265816256032378432179728779
61,1489.36218679111948473640262367168705,1488.0,1.36218679111948473640262367168705
62,1538.56546654213850360684382392757426,1537.2,1.36546654213850360684382392757426
63,1588.56869365834514683284571656220021,1587.2,1.36869365834514683284571656220021
64,1639.37186980394641948360869002454306,1638.0,1.37186980394641948360869002454306
65,1690.97499656539896295660534332677279,1689.6,1.37499656539896295660534332677279
66,1743.37807545618056714270940514415961,1742.0,1.37807545618056714270940514415961
67,1796.58110792120102581512805646653096,1795.2,1.38110792120102581512805646653096
68,1850.58409534088457129681218033294562,1849.2,1.38409534088457129681218033294562
69,1905.38703903495281179029167003046742,1904.0,1.38703903495281179029167003046742
70,1960.98994026593416648561768359346371,1959.6,1.38994026593416648561768359346371
71,2017.39280024242319485836277364232681,2016.0,1.39280024242319485836277364232681
72,2074.59562012211091832724859253619782,2073.2,1.39562012211091832724859253619782
73,2132.59840101460517943456764101330561,2131.2,1.39840101460517943456764101330561
74,2191.40114398405826486401181158942393,2190.0,1.40114398405826486401181158942393
75,2251.00385005161738750941746930377783,2249.6,1.40385005161738750941746930377783
76,2311.40652019771217325118087579403311,2310.0,1.40652019771217325118087579403311
77,2372.60915536419199569867971510343750,2371.2,1.40915536419199569867971510343750
78,2434.61175645632483635885584319420572,2433.2,1.41175645632483635885584319420572
79,2497.41432434466830087112198431605917,2496.0,1.41432434466830087112198431605917
80,2561.01685986682248382311025938856450,2559.6,1.41685986682248382311025938856450
81,2625.41936382907352532030403785896374,2624.0,1.41936382907352532030403785896374
82,2690.62183700793594103204062294303402,2689.2,1.42183700793594103204062294303402
83,2756.62428015160111870258253735164784,2755.2,1.42428015160111870258253735164784
84,2823.42669398129874982423909206842550,2822.0,1.42669398129874982423909206842550
85,2891.02907919257740589334605291500459,2889.6,1.42907919257740589334605291500459
86,2959.43143645650995280452168110875599,2958.0,1.43143645650995280452168110875599
87,3028.63376642082903946781788078260611,3027.2,1.43376642082903946781788078260611
88,3098.63606971099747335564903964808499,3097.2,1.43606971099747335564903964808499
89,3169.43834693121791218421986333840905,3168.0,1.43834693121791218421986333840905
90,3241.04059866538595771744405450715538,3239.6,1.44059866538595771744405450715538
91,3313.44282547799041622929525563557045,3312.0,1.44282547799041622929525563557045
92,3386.64502791496420186299218777029963,3385.2,1.44502791496420186299218777029963
93,3460.64720650448909687036459831224494,3459.2,1.44720650448909687036459831224494
94,3535.44936175775733978600838148186170,3534.0,1.44936175775733978600838148186170
95,3611.05149416969279143680939877967594,3609.6,1.45149416969279143680939877967594
96,3687.45360421963422686529889401823052,3686.0,1.45360421963422686529889401823052
97,3764.65569237198311690319425913127631,3763.2,1.45569237198311690319425913127631
98,3842.65775907681809025718369957579030,3841.2,1.45775907681809025718369957579030
99,3921.45980477047811349682488646098340,3920.0,1.45980477047811349682488646098340
100,4001.06182987611627999401107257126144,3999.6,1.46182987611627999401107257126144
101,4081.46383480422596955930434477281930,4080.0,1.46383480422596955930434477281930
102,4162.66581995314101494571415268346985,4161.2,1.46581995314101494571415268346985
103,4244.66778570951140347688665743324323,4243.2,1.46778570951140347688665743324323
104,4327.46973244875593479196053754236664,4326.0,1.46973244875593479196053754236664
105,4411.07166053549316262558718921465365,4409.6,1.47166053549316262558718921465365
106,4495.47357032395185777737055078164022,4494.0,1.47357032395185777737055078164022
107,4580.67546215836215134302569079367393,4579.2,1.47546215836215134302569079367393
108,4666.67733637332843804000176472975818,4665.2,1.47733637332843804000176472975818
109,4753.47919329418505086678025653633565,4752.0,1.47919329418505086678025653633565
110,4841.08103323733565591493485581012126,4839.6,1.48103323733565591493485581012126
111,4929.48285651057725029184070783450245,4928.0,1.48285651057725029184070783450245
112,5018.68466341340959667828758560561926,5017.2,1.48466341340959667828758560561926
113,5108.68645423733087250945744532327597,5107.2,1.48645423733087250945744532327597
114,5199.48822926612026300997061530395650,5198.0,1.48822926612026300997061530395650
115,5291.08998877610818686520259356656869,5289.6,1.48998877610818686520259356656869
116,5383.49173303643479497942503376324405,5382.0,1.49173303643479497942503376324405
117,5476.69346230929735105831825855151007,5475.2,1.49346230929735105831825855151007
118,5570.69517685018706172229679121079742,5569.2,1.49517685018706172229679121079742
119,5665.49687690811589014337348551224650,5664.0,1.49687690811589014337348551224650
120,5761.09856272583386135605316560967010,5759.6,1.49856272583386135605316560967010
121,5857.50023454003732912550202609249464,5856.0,1.50023454003732912550202609249464
122,5954.70189258156865534310705124635009,5953.2,1.50189258156865534310705124635009
123,6052.70353707560772072660744211943329,6051.2,1.50353707560772072660744211943329
124,6151.50516824185566792217160929366419,6150.0,1.50516824185566792217160929366419
125,6251.10678629471124853953059807290156,6249.6,1.50678629471124853953059807290156
126,6351.50839144344013045398099988087539,6350.0,1.50839144344013045398099988087539
127,6452.70998389233750113118447398087342,6451.2,1.50998389233750113118447398087342
128,6554.71156384088428014350116002635794,6553.2,1.51156384088428014350116002635794
129,6657.51313148389724197335636141651707,6656.0,1.51313148389724197335636141651707
130,6761.11468701167333181727262262755249,6759.6,1.51468701167333181727262262755249
131,6865.51623061012844170008164585479227,6864.0,1.51623061012844170008164585479227
132,6970.71776246093089923163009545796906,6969.2,1.51776246093089923163009545796906
133,7076.71928274162990955670838195361408,7075.2,1.51928274162990955670838195361408
134,7183.52079162577917977297463547791890,7182.0,1.52079162577917977297463547791890
135,7291.12228928305593698330239010526255,7289.6,1.52228928305593698330239010526255
136,7399.52377587937554746145056246080710,7398.0,1.52377587937554746145056246080710
137,7508.72525157700193110201155212174536,7507.2,1.52525157700193110201155212174536
138,7618.72671653465395171360215027631455,7617.2,1.52671653465395171360215027631455
139,7729.52817090760796160835688959019898,7728.0,1.52817090760796160835688959019898
140,7841.12961484779666349481531946947353,7839.6,1.52961484779666349481531946947353
141,7953.53104850390444812380483245835168,7952.0,1.53104850390444812380483245835168
142,8066.73247202145935806365403171504878,8065.2,1.53247202145935806365403171504878
143,8180.73388554292181933090219328229924,8179.2,1.53388554292181933090219328229924
144,8295.53528920777027542303409759572333,8294.0,1.53528920777027542303409759572333
145,8411.13668315258385411200996485004407,8409.6,1.53668315258385411200996485004407
146,8527.53806751112218948861003537049953,8526.0,1.53806751112218948861003537049953
147,8644.73944241440251354464755608481549,8643.2,1.53944241440251354464755608481549
148,8762.74080799077413262207021734177280,8761.2,1.54080799077413262207021734177280
149,8881.54216436599039052989696558220969,8880.0,1.54216436599039052989696558220969
150,9001.14351166327822196985900276805999,8999.6,1.54351166327822196985900276805999
151,9121.54485000340539218499164191048913,9120.0,1.54485000340539218499164191048913
152,9242.74617950474551313033778807793283,9241.2,1.54617950474551313033778807793283
153,9364.74750028334092511544851521881852,9363.2,1.54750028334092511544851521881852
154,9487.54881245296352781791381051539552,9486.0,1.54881245296352781791381051539552
155,9611.15011612517363890390723963712287,9609.6,1.55011612517363890390723963712287
156,9735.55141140937695812209886283774635,9734.0,1.55141140937695812209886283774635
157,9860.75269841287970791752982829356167,9859.2,1.55269841287970791752982829356167
158,9986.75397724094202238354125894502423,9985.2,1.55397724094202238354125894502423
159,10113.5552479968296482245810226627347,10112.0,1.5552479968296482245810226627347
160,10241.1565107818640240674176483595716,10239.6,1.5565107818640240674176483595716
161,10369.5577656954707966168712271039303,10368.0,1.5577656954707966168712271039303
162,10498.7590128352268331171524016890511,10497.2,1.5590128352268331171524016890511
163,10628.7602522969057849720983231589979,10627.2,1.5602522969057849720983231589979
164,10759.5614841745222571608909345875628,10758.0,1.5614841745222571608909345875628
165,10891.1627085603746320494655700169265,10889.6,1.5627085603746320494655700169265
166,11023.5639255450865981131887577045467,11022.0,1.5639255450865981131887577045467
167,11156.7651352176474308031159480140997,11155.2,1.5651352176474308031159480140997
168,11290.7663376654510682447340763490005,11289.2,1.5663376654510682447340763490005
169,11425.5675329743340268312702813696921,11424.0,1.5675329743340268312702813696921
170,11561.1687212286121964546751440856720,11559.6,1.5687212286121964546751440856720
171,11697.5699025111165555687325479295348,11696.0,1.5699025111165555687325479295348
172,11834.7710769032278439509467930892687,11833.2,1.5710769032278439509467930892687
173,11972.7722444849102285655302458656960,11971.2,1.5722444849102285655302458656960
174,12111.5734053347439983709985652317042,12110.0,1.5734053347439983709985652317042
175,12251.1745595299573220572996220372188,12249.6,1.5745595299573220572996220372188
176,12391.5757071464570984188226639223229,12390.0,1.5757071464570984188226639223229
177,12532.7768482588589326238188948976165,12531.2,1.5768482588589326238188948976165
178,12674.7779829405162675346239175307129,12673.2,1.5779829405162675346239175307129
179,12817.5791112635486965236224006319730,12816.0,1.5791112635486965236224006319730
180,12961.1802332988694887313487165176824,12959.6,1.5802332988694887313487165176824
181,13105.5813491162123494153047346268926,13104.0,1.5813491162123494153047346268926
182,13250.7824587841574430848757065581806,13249.2,1.5824587841574430848757065581806
183,13396.7835623701567024716139132648598,13395.2,1.5835623701567024716139132648598
184,13543.5846599405584475764223350028035,13542.0,1.5846599405584475764223350028035
185,13691.1857515606313366017582092469235,13689.6,1.5857515606313366017582092469235
186,13839.5868372945876697374716440132187,13838.0,1.5868372945876697374716440132187
187,13988.7879172056060696007748541825401,13987.2,1.5879172056060696007748541825401
188,14138.7889913558535537666531945381235,14137.2,1.5889913558535537666531945381235
189,14289.5900598065070231198027037439455,14288.0,1.5900598065070231198027037439455
190,14441.1911226177741816791673128514404,14439.6,1.5911226177741816791673128514404
191,14593.5921798489139071176223879917422,14592.0,1.5921798489139071176223879917422
192,14746.7932315582560883590015354955323,14745.2,1.5932315582560883590015354955323
193,14900.7942778032209485563096624979571,14899.2,1.5942778032209485563096624979571
194,15055.5953186403378667918986212089982,15054.0,1.5953186403378667918986212089982
195,15211.1963541252637164319585684736795,15209.6,1.5963541252637164319585684736795
196,15367.5973843128007338272187638911700,15366.0,1.5973843128007338272187638911700
197,15524.7984092569139317351727936746447,15523.2,1.5984092569139317351727936746447
198,15682.7994290107480716258010262387390,15681.2,1.5994290107480716258010262387390
199,15841.6004436266442077046390634632058,15840.0,1.6004436266442077046390634632058
200,16001.2014531561558165933854560439715,15999.6,1.6014531561558165933854560439715
201,16161.6024576500645236444612743908376,16160.0,1.6024576500645236444612743908376
202,16322.8034571583954392656671181747743,16321.2,1.6034571583954392656671181747743
203,16484.8044517304321159096535103959761,16483.2,1.6044517304321159096535103959761
204,16647.6054414147311373431015605011971,16646.0,1.6054414147311373431015605011971
205,16811.2064262591363501609609763190037,16809.6,1.6064262591363501609609763190037
206,16975.6074063107927505644787426532408,16974.0,1.6074063107927505644787426532408
207,17140.8083816161600322736804977350853,17139.2,1.6083816161600322736804977350853
208,17306.8093522210258097957455621695153,17305.2,1.6093522210258097957455621695153
209,17473.6103181705185227921418988327800,17472.0,1.6103181705185227921418988327800
210,17641.2112795091200330401572450587051,17639.6,1.6112795091200330401572450587051
211,17809.6122362806779213478218297765688,17808.0,1.6122362806779213478218297765688
212,17978.8131885284174946493841399787342,17977.2,1.6131885284174946493841399787342
213,18148.8141362949535076592674354839576,18147.2,1.6141362949535076592674354839576
214,18319.6150796223016140602309594621370,18318.0,1.6150796223016140602309594621370
215,18491.2160185518895464320015311357865,18489.6,1.6160185518895464320015311357865
216,18663.6169531245680388748675175651403,18662.0,1.6169531245680388748675175651403
217,18836.8178833806214962873133708802444,18835.2,1.6178833806214962873133708802444
218,19010.8188093597784192701792549599695,19009.2,1.6188093597784192701792549599695
219,19185.6197311012215879303199769393288,19184.0,1.6197311012215879303199769393288
220,19361.2206486435980170919261823406646,19359.6,1.6206486435980170919261823406646
221,19537.6215620250286808178361577231939,19536.0,1.6215620250286808178361577231939
222,19714.8224712831180234382416664521909,19713.2,1.6224712831180234382416664521909
223,19892.8233764549632506476570551074160,19891.2,1.6233764549632506476570551074160
224,20071.6242775771634157294898245967265,20070.0,1.6242775771634157294898245967265
225,20251.2251746858283034647945548744451,20249.6,1.6251746858283034647945548744451
226,20431.6260678165871152631918262136224,20430.0,1.6260678165871152631918262136224
227,20612.8269570045969641588387405189303,20611.2,1.6269570045969641588387405189303
228,20794.8278422845511814816937528482852,20793.2,1.6278422845511814816937528482852
229,20977.6287236906874423562601211731059,20976.0,1.6287236906874423562601211731059
230,21161.2296012567957147140882106223970,21159.6,1.6296012567957147140882106223970
231,21345.6304750162260336093430057827739,21344.0,1.6304750162260336093430057827739
232,21530.8313450018961112463944557765988,21529.2,1.6313450018961112463944557765988
233,21716.8322112462987777049717391200948,21715.2,1.6322112462987777049717391200948
234,21903.6330737815092685089859820133709,21902.0,1.6330737815092685089859820133709
235,22091.2339326391923522101595781138504,22089.6,1.6339326391923522101595781138504
236,22279.6347878506093076852700945999148,22278.0,1.6347878506093076852700945999148
237,22468.8356394466247547671751508286452,22467.2,1.6356394466247547671751508286452
238,22658.8364874577133399406701804858124,22657.2,1.6364874577133399406701804858124
