Eigenstate,Energy,Kinetic Energy,Potential Energy
1,0.500000000204905084360031952149341616,0.0,0.500000000204905084360031952149341616
2,1.84623093898863769113606526603984288,1.2,0.64623093898863769113606526603984288
3,3.93633761363388474040645103582567845,3.2,0.73633761363388474040645103582567845
4,6.79966528599783072973127621616779004,6.0,0.79966528599783072973127621616779004
5,10.4480465894616130132296758672220984,9.6,0.8480465894616130132296758672220984
6,14.8870660188067549718087858512576501,14.0,0.8870660188067549718087858512576501
7,20.1197208554841616165707934665862265,19.2,0.9197208554841616165707934665862265
8,26.1477838858776522259602405217313352,25.2,0.9477838858776522259602405217313352
9,32.9723836089976763845679406746601067,32.0,0.9723836089976763845679406746601067
10,40.5942802789956243552465353881687018,39.6,0.9942802789956243552465353881687018
11,49.0140094660146376619839395056792211,48.0,1.0140094660146376619839395056792211
12,58.2319622653610574460599137121193073,57.2,1.0319622653610574460599137121193073
13,68.2484328071021887247848468795035687,67.2,1.0484328071021887247848468795035687
14,79.0636477889225612057217267965359392,78.0,1.0636477889225612057217267965359392
15,90.6777855919381741040258904969380871,89.6,1.0777855919381741040258904969380871
16,103.090989085566978957026919748350742,102.0,1.090989085566978957026919748350742
17,116.303374460990408650901616981894235,115.2,1.103374460990408650901616981894235
18,130.315037482159593566481720081990835,129.2,1.115037482159593566481720081990835
19,145.126058008899350793620071181255628,144.0,1.126058008899350793620071181255628
20,160.736503334542128837608292784396846,159.6,1.136503334542128837608292784396846
21,177.146430692009710819536042559889641,176.0,1.146430692009710819536042559889641
22,194.355889164971959089737698655616219,193.2,1.155889164971959089737698655616219
23,212.364921165783343282114169586341344,211.2,1.164921165783343282114169586341344
24,231.173563592883365101249658213939822,230.0,1.173563592883365101249658213939822
25,250.781848747592486783493401833346333,249.6,1.181848747592486783493401833346333
26,271.189805067919720507016403467846263,270.0,1.189805067919720507016403467846263
27,292.397457721525205582014091579858436,291.2,1.197457721525205582014091579858436
28,314.404829089079249414066247328237085,313.2,1.204829089079249414066247328237085
29,337.211939161464280392064836680114812,336.0,1.211939161464280392064836680114812
30,360.818805868616673268701007542120104,359.6,1.218805868616673268701007542120104
31,385.225445353659469091362027920041331,384.0,1.225445353659469091362027920041331
32,410.431872202899112149303949836659943,409.2,1.231872202899112149303949836659943
33,436.438099639949678593538868058751037,435.2,1.238099639949678593538868058751037
34,463.244139690497525115816039916628032,462.0,1.244139690497525115816039916628032
35,490.850003322880091004474160257765592,489.6,1.250003322880091004474160257765592
36,519.255700568619108014215525927073055,518.0,1.255700568619108014215525927073055
37,548.461240626244387936688874093033326,547.2,1.261240626244387936688874093033326
38,578.466631951113939014367784515168580,577.2,1.266631951113939014367784515168580
39,609.271882333438313689724027998114598,608.0,1.271882333438313689724027998114598
40,640.876998966321269397396794133348661,639.6,1.276998966321269397396794133348661
41,673.281988505312073832748006998187004,672.0,1.281988505312073832748006998187004
42,706.486857120709793528224305854118541,705.2,1.286857120709793528224305854118541
43,740.491610543653418223661620476069813,739.2,1.291610543653418223661620476069813
44,775.296254106863579500870278920000849,774.0,1.296254106863579500870278920000849
45,810.900792780764052583606514252948362,809.6,1.300792780764052583606514252948362
46,847.305231205598093921253130058787041,846.0,1.305231205598093921253130058787041
47,884.509573720061190562046698418888425,883.2,1.309573720061190562046698418888425
48,922.513824386894210957316237513919444,921.2,1.313824386894210957316237513919444
49,961.317987015816284294199157490271824,960.0,1.317987015816284294199157490271824
50,1000.92206518412261274056323971763501,999.6,1.32206518412261274056323971763501
51,1041.32606225522695402332215428953119,1040.0,1.32606225522695402332215428953119
52,1082.52998139539016654697491178024251,1081.2,1.32998139539016654697491178024251
53,1124.53382558884375914060626202996747,1123.2,1.33382558884375914060626202996747
54,1167.33759765148982639008963107963479,1166.0,1.33759765148982639008963107963479
55,1210.94130024333527501968908958631760,1209.6,1.34130024333527501968908958631760
56,1255.34493587979817221710427536251058,1254.0,1.34493587979817221710427536251058
57,1300.54850694200684783085982787373265,1299.2,1.34850694200684783085982787373265
58,1346.55201568619758518263166089237115,1345.2,1.35201568619758518263166089237115
59,1393.35546425230398128980953062911803,1392.0,1.35546425230398128980953062911803
60,1440.95885467182003278588099943561617,1439.6,1.35885467182003278588099943561617
61,1489.36218887500943959870533416154229,1488.0,1.36218887500943959870533416154229
62,1538.56546869752531744162344745972456,1537.2,1.36546869752531744162344745972456
63,1588.56869588649726828332117194350357,1587.2,1.36869588649726828332117194350357
64,1639.37187210613644548243473326975498,1638.0,1.37187210613644548243473326975498
65,1690.97499894290371543290998579720568,1689.6,1.37499894290371543290998579720568
66,1743.37807791028117022706741371859533,1742.0,1.37807791028117022706741371859533
67,1796.58111045318298355199654744851912,1795.2,1.38111045318298355199654744851912
68,1850.58409795203784587409185152689250,1849.2,1.38409795203784587409185152689250
69,1905.38704172657190229581414922485485,1904.0,1.38704172657190229581414922485485
70,1960.98994303931818820049421292485499,1959.6,1.38994303931818820049421292485499
71,2017.39280309887595909726603123344272,2016.0,1.39280309887595909726603123344272
72,2074.59562306294101283583370556820088,2073.2,1.39562306294101283583370556820088
73,2132.59840404112604935437530119643041,2131.2,1.39840404112604935437530119643041
74,2191.40114709758829427533191206406985,2190.0,1.40114709758829427533191206406985
75,2251.00385325347998156272977248072971,2249.6,1.40385325347998156272977248072971
76,2311.40652348923584089792676848482996,2310.0,1.40652348923584089792676848482996
77,2372.60915874671043303225942856805883,2371.2,1.40915874671043303225942856805883
78,2434.61175993117701057688664971474496,2433.2,1.41175993117701057688664971474496
79,2497.41432791319853487013573608457437,2496.0,1.41432791319853487013573608457437
80,2561.01686353038054143701299085177996,2559.6,1.41686353038054143701299085177996
81,2625.41936758901469721406777953575499,2624.0,1.41936758901469721406777953575499
82,2690.62184086562113126224560603973919,2689.2,1.42184086562113126224560603973919
83,2756.62428410839693195657952125837912,2755.2,1.42428410839693195657952125837912
84,2823.42669803857757934985473949786364,2822.0,1.42669803857757934985473949786364
85,2891.02908335171752213121015866365858,2889.6,1.42908335171752213121015866365858
86,2959.43144071889559273525319302367391,2958.0,1.43144071889559273525319302367391
87,3028.63377078785049668646837957561320,3027.2,1.43377078785049668646837957561320
88,3098.63607418405118888596561295116104,3097.2,1.43607418405118888596561295116104
89,3169.43835151170656604545624306660488,3168.0,1.43835151170656604545624306660488
90,3241.04060335471856125661845770155036,3239.6,1.44060335471856125661845770155036
91,3313.44283027758240523196635189446353,3312.0,1.44283027758240523196635189446353
92,3386.64503282623753045580009115292342,3385.2,1.44503282623753045580009115292342
93,3460.64721152887233222876315097978670,3459.2,1.44721152887233222876315097978670
94,3535.44936689668575766079728681018799,3534.0,1.44936689668575766079728681018799
95,3611.05149942460847251326048858735486,3609.6,1.45149942460847251326048858735486
96,3687.45360959198615396885996989337677,3686.0,1.45360959198615396885996989337677
97,3764.65569786322727306594711454542267,3763.2,1.45569786322727306594711454542267
98,3842.65776468841755765942874033534554,3841.2,1.45776468841755765942874033534554
99,3921.45981050390317329836574110963741,3920.0,1.45981050390317329836574110963741
100,4001.06183573284451306991589972275229,3999.6,1.46183573284451306991589972275229
101,4081.46384078574235815512879340929365,4080.0,1.46384078574235815512879340929365
102,4162.66582606093804526738278787799851,4161.2,1.46582606093804526738278787799851
103,4244.66779194508916923064517778779196,4243.2,1.46779194508916923064517778779196
104,4327.46973881362224169003217129694889,4326.0,1.46973881362224169003217129694889
105,4411.07166703116363387338995841308649,4409.6,1.47166703116363387338995841308649
106,4495.47357695195004055838140254641549,4494.0,1.47357695195004055838140254641549
107,4580.67546892021962431761074005668022,4579.2,1.47546892021962431761074005668022
108,4666.67734327058491987476892020019878,4665.2,1.47734327058491987476892020019878
109,4753.47920032838850981125362172954768,4752.0,1.47920032838850981125362172954768
110,4841.08104041004242044259669336866400,4839.6,1.48104041004242044259669336866400
111,4929.48286382335212082283871094767106,4928.0,1.48286382335212082283871094767106
112,5018.68467086782595840136242140975630,5017.2,1.48467086782595840136242140975630
113,5108.68646183497080932090638203052720,5107.2,1.48646183497080932090638203052720
114,5199.48823700857467258773089588388774,5198.0,1.48823700857467258773089588388774
115,5291.08999666497689689640984981517024,5289.6,1.48999666497689689640984981517024
116,5383.49174107332668056007973471648044,5382.0,1.49174107332668056007973471648044
117,5476.69347049583045328397580253160299,5475.2,1.49347049583045328397580253160299
118,5570.69518518798870748898574545747516,5569.2,1.49518518798870748898574545747516
119,5665.49688539882281317824039568818448,5664.0,1.49688539882281317824039568818448
120,5761.09857137109232449753243547566000,5759.6,1.49857137109232449753243547566000
121,5857.50024334150324787311546559999788,5856.0,1.50024334150324787311546559999788
122,5954.70190154090772269730935648293210,5953.2,1.50190154090772269730935648293210
123,6052.70354619449553333941218716492258,6051.2,1.50354619449553333941218716492258
124,6151.50517752197785357961663857732571,6150.0,1.50517752197785357961663857732571
125,6251.10679573776359499737288921106282,6249.6,1.50679573776359499737288921106282
126,6351.50840105112871564834824714092431,6350.0,1.50840105112871564834824714092431
127,6452.70999366637882478625489160312240,6451.2,1.50999366637882478625489160312240
128,6554.71157378300539679863420862930613,6553.2,1.51157378300539679863420862930613
129,6657.51314159583589545245492516143892,6656.0,1.51314159583589545245492516143892
130,6761.11469729517809116352231981051166,6759.6,1.51469729517809116352231981051166
131,6865.51624106695883859958561774236664,6864.0,1.51624106695883859958561774236664
132,6970.71777309285756694983797802163158,6969.2,1.51777309285756694983797802163158
133,7076.71929355043472341192425175271612,7075.2,1.51929355043472341192425175271612
134,7183.52080261325539917162644492129428,7182.0,1.52080261325539917162644492129428
135,7291.12230045100834904205628863291888,7289.6,1.52230045100834904205628863291888
136,7399.52378722962061224166653415573787,7398.0,1.52378722962061224166653415573787
137,7508.72526311136792848245646322844300,7507.2,1.52526311136792848245646322844300
138,7618.72672825498112992776346673815240,7617.2,1.52672825498112992776346673815240
139,7729.52818281574868747313791939882223,7728.0,1.52818281574868747313791939882223
140,7841.12962694561557435783974885480977,7839.6,1.52962694561557435783974885480977
141,7953.53106079327860555701030369909837,7952.0,1.53106079327860555701030369909837
142,8066.73248450427840333132130344736302,8065.2,1.53248450427840333132130344736302
143,8180.73389822108813066073882935042087,8179.2,1.53389822108813066073882935042087
144,8295.53530208319912710941491013734220,8294.0,1.53530208319912710941491013734220
145,8411.13669622720357748096853422348291,8409.6,1.53669622720357748096853422348291
146,8527.53808078687433575468130385924835,8526.0,1.53808078687433575468130385924835
147,8644.73945589324201859017238819293156,8643.2,1.53945589324201859017238819293156
148,8762.74082167466948373009800132830619,8761.2,1.54082167466948373009800132830619
149,8881.54217825692379510235780688109241,8880.0,1.54217825692379510235780688109241
150,9001.14352576324577826322100584097861,8999.6,1.54352576324577826322100584097861
151,9121.54486431441726209617863739956822,9120.0,1.54486431441726209617863739956822
152,9242.74619402882609706624893618267510,9241.2,1.54619402882609706624893618267510
153,9364.74751502252903898000364065103525,9363.2,1.54751502252903898000364065103525
154,9487.54882740931258215113976397571091,9486.0,1.54882740931258215113976397571091
155,9611.15013130075182020818609823748223,9609.6,1.55013130075182020818609823748223
156,9735.55142680626741241131653155441254,9734.0,1.55142680626741241131653155441254
157,9860.75271403318072652549316041795864,9859.2,1.55271403318072652549316041795864
158,9986.75399308676723006867693457590920,9985.2,1.55399308676723006867693457590920
159,10113.5552640703081936085849724040492,10112.0,1.5552640703081936085849724040492
160,10241.1565270851407724461965789376076,10239.6,1.5565270851407724461965789376076
161,10369.5577822307065251828017081437519,10368.0,1.5577822307065251828017081437519
162,10498.7590296045984286323838634867088,10497.2,1.5590296045984286323838634867088
163,10628.7602693026064439333392747656084,10627.2,1.5602693026064439333392747656084
164,10759.5615014187616884968492162205243,10758.0,1.5615014187616884968492162205243
165,10891.1627260453792623928578815615535,10889.6,1.5627260453792623928578815615535
166,11023.5639432730997796899955258826095,11022.0,1.5639432730997796899955258826095
167,11156.7651531909296519825352021863794,11155.2,1.5651531909296519825352021863794
168,11290.7663558862801667940831164611275,11289.2,1.5663558862801667940831164611275
169,11425.5675514450054059208932456558493,11424.0,1.5675514450054059208932456558493
170,11561.1687399514390434587447840745068,11559.6,1.5687399514390434587447840745068
171,11697.5699214884300637086803279868382,11696.0,1.5699214884300637086803279868382
172,11834.7710961373774368291200853479091,11833.2,1.5710961373774368291200853479091
173,11972.7722639782637876375590403792012,11971.2,1.5722639782637876375590403792012
174,12111.5734250896880934062568820873976,12110.0,1.5734250896880934062568820873976
175,12251.1745795488974446377695708227131,12249.6,1.5745795488974446377695708227131
176,12391.5757274318178985276111934499551,12390.0,1.5757274318178985276111934499551
177,12532.7768688130844583755404150302909,12531.2,1.5768688130844583755404150302909
178,12674.7780037660702081008462930028123,12673.2,1.5780037660702081008462930028123
179,12817.5791323629146283075800984027118,12816.0,1.5791323629146283075800984027118
180,12961.1802546745511248471548744511856,12959.6,1.5802546745511248471548744511856
181,13105.5813707707337925279445832693027,13104.0,1.5813707707337925279445832693027
182,13250.7824807200634416683373074425307,13249.2,1.5824807200634416683373074425307
183,13396.7835845900129105436121314688434,13395.2,1.5835845900129105436121314688434
184,13543.5846824469516879692921540762664,13542.0,1.5846824469516879692921540762664
185,13691.1857743561698678302428061913782,13689.6,1.5857743561698678302428061913782
186,13839.5868603819014565253020341536210,13838.0,1.5868603819014565253020341536210
187,13988.7879405873470571291393775423627,13987.2,1.5879405873470571291393775423627
188,14138.7890150346959457088801097885052,14137.2,1.5890150346959457088801097885052
189,14289.5900837851475635278342768784046,14288.0,1.5900837851475635278342768784046
190,14441.1911468989324407886858474734543,14439.6,1.5911468989324407886858474734543
191,14593.5922044353325711400001955142752,14592.0,1.5922044353325711400001955142752
192,14746.7932564527012533295892676944394,14745.2,1.5932564527012533295892676944394
193,14900.7943030084824183099479194444906,14899.2,1.5943030084824183099479194444906
194,15055.5953441592294551379427744836927,15054.0,1.5953441592294551379427744836927
195,15211.1963799606235536025410056224178,15209.6,1.5963799606235536025410056224178
196,15367.5974104674915772739420894257982,15366.0,1.5974104674915772739420894257982
197,15524.7984357338234813509299224558374,15523.2,1.5984357338234813509299224558374
198,15682.7994558127892894699544299792843,15681.2,1.5994558127892894699544299792843
199,15841.6004707567556423113662614714430,15840.0,1.6004707567556423113662614714430
200,16001.2014806173019319446047151795638,15999.6,1.6014806173019319446047151795638
201,16161.6024854452360328903986101211461,16160.0,1.6024854452360328903986101211461
202,16322.8034852906096432778140788520516,16321.2,1.6034852906096432778140788520516
203,16484.8044802027332467525852796012948,16483.2,1.6044802027332467525852796012948
204,16647.6054702301907067533944244945908,16646.0,1.6054702301907067533944244945908
205,16811.2064554208535031232518747021044,16809.6,1.6064554208535031232518747021044
206,16975.6074358218946240765614662361781,16974.0,1.6074358218946240765614662361781
207,17140.8084114798021193944258669832675,17139.2,1.6084114798021193944258669832675
208,17306.8093824403923290715706537883630,17305.2,1.6093824403923290715706537883630
209,17473.6103487488227931597396303710283,17472.0,1.6103487488227931597396303710283
210,17641.2113104496048543052278376311181,17639.6,1.6113104496048543052278376311181
211,17809.6122675866159603416299179373071,17808.0,1.6122675866159603416299179373071
212,17978.8132202031116771670950246873661,17977.2,1.6132202031116771670950246873661
213,18148.8141683417374162862001938393689,18147.2,1.6141683417374162862001938393689
214,18319.6151120445398919943977256869973,18318.0,1.6151120445398919943977256869973
215,18491.2160513529783074135952106813779,18489.6,1.6160513529783074135952106813779
216,18663.6169863079352833357030915236885,18662.0,1.6169863079352833357030915236885
217,18836.8179169497275338356292389993126,18835.2,1.6179169497275338356292389993126
218,19010.8188433181162976286685348598535,19009.2,1.6188433181162976286685348598535
219,19185.6197654523175284477811415766261,19184.0,1.6197654523175284477811415766261
220,19361.2206833910118569515058729608674,19359.6,1.6206833910118569515058729608674
221,19537.6215971723543220674848500893320,19536.0,1.6215971723543220674848500893320
222,19714.8225068339838889717161075511212,19713.2,1.6225068339838889717161075511212
223,19892.8234124130327472671815502505052,19891.2,1.6234124130327472671815502505052
224,20071.6243139461354044240399026799800,20070.0,1.6243139461354044240399026799800
225,20251.2252114694375770408874928156748,20249.6,1.6252114694375770408874928156748
226,20431.6261050186048834680601226727576,20430.0,1.6261050186048834680601226727576
227,20612.8269946288313464389338948991981,20611.2,1.6269946288313464389338948991981
228,20794.8278803348477075226142826147047,20793.2,1.6278803348477075226142826147047
229,20977.6287621709295605534231346783657,20976.0,1.6287621709295605534231346783657
230,21161.2296401709053087267725484327628,21159.6,1.6296401709053087267725484327628
231,21345.6305143681639471541254576735826,21344.0,1.6305143681639471541254576735826
232,21530.8313847956626812894781253299718,21529.2,1.6313847956626812894781253299718
233,21716.8322514859343762164753406167020,21715.2,1.6322514859343762164753406167020
234,21903.6331144710948529459227327137069,21902.0,1.6331144710948529459227327137069
235,22091.2339737828500248985885460257649,22089.6,1.6339737828500248985885460257649
236,22279.6348294525028842759544909945227,22278.0,1.6348294525028842759544909945227
237,22468.8356815109603419430355733364496,22467.2,1.6356815109603419430355733364496
238,22658.8365299887399225583730415597799,22657.2,1.6365299887399225583730415597799
