Eigenstate,Energy,Kinetic Energy,Potential Energy
1,0.500000000041689181826058442358114012,0.0,0.500000000041689181826058442358114012
2,1.84623093792323988694822779177456353,1.2,0.64623093792323988694822779177456353
3,3.93633761050432155539376805375568568,3.2,0.73633761050432155539376805375568568
4,6.79966527947918496240050213566131208,6.0,0.79966527947918496240050213566131208
5,10.4480465781697130936182064964161275,9.6,0.8480465781697130936182064964161275
6,14.8870660013330325386183933050300568,14.0,0.8870660013330325386183933050300568
7,20.1197208304084685699378117313621312,19.2,0.9197208304084685699378117313621312
8,26.1477838517735816216906407717277180,25.2,0.9477838517735816216906407717277180
9,32.9723835644350142765944666497207009,32.0,0.9723835644350142765944666497207009
10,40.5942802225415735816939332583888644,39.6,0.9942802225415735816939332583888644
11,49.0140093962344634845725075648015475,48.0,1.0140093962344634845725075648015475
12,58.2319621808184385408025455773506307,57.2,1.0319621808184385408025455773506307
13,68.2484327063594077304863376573178885,67.2,1.0484327063594077304863376573178885
14,79.0636476705406029029123845226185870,78.0,1.0636476705406029029123845226185870
15,90.6777854544767678337373828720609636,89.6,1.0777854544767678337373828720609636
16,103.090988927584605977920728350996171,102.0,1.090988927584605977920728350996171
17,116.303374281044286652892309386168464,115.2,1.103374281044286652892309386168464
18,130.315037278805645828142019571769683,129.2,1.115037278805645828142019571769683
19,145.126057780692164724177451642454222,144.0,1.126057780692164724177451642454222
20,160.736503080034906992941477304427203,159.6,1.136503080034906992941477304427203
21,177.146430409754216457260963427195345,176.0,1.146430409754216457260963427195345
22,194.355888853518457675251625565677176,193.2,1.155888853518457675251625565677176
23,212.364920823680540930413094157181018,211.2,1.164920823680540930413094157181018
24,231.173563218678344653814563366906418,230.0,1.173563218678344653814563366906418
25,250.781848339830642024735325573990682,249.6,1.181848339830642024735325573990682
26,271.189804625144688889381783767046235,270.0,1.189804625144688889381783767046235
27,292.397457242278799733158379820934653,291.2,1.197457242278799733158379820934653
28,314.404828571901387630813665614875172,313.2,1.204828571901387630813665614875172
29,337.211938604892916275859164207849916,336.0,1.211938604892916275859164207849916
30,360.818805271187724620356706594932648,359.6,1.218805271187724620356706594932648
31,385.225444713906746155372762567483237,384.0,1.225444713906746155372762567483237
32,410.431871519354245277156480367453394,409.2,1.231871519354245277156480367453394
33,436.438098911142045379596904691776645,435.2,1.238098911142045379596904691776645
34,463.244138914954177047094298880646675,462.0,1.244138914954177047094298880646675
35,490.850002499125679656095545474995558,489.6,1.250002499125679656095545474995558
36,519.255699695175810814865685791660388,518.0,1.255699695175810814865685791660388
37,548.461239701631833522462345054739451,547.2,1.261239701631833522462345054739451
38,578.466630973849132184676653137795886,577.2,1.266630973849132184676653137795886
39,609.271881302035559975142427801292352,608.0,1.271881302035559975142427801292352
40,640.876997879292099246238769018952785,639.6,1.276997879292099246238769018952785
41,673.281987361165166420667447860734453,672.0,1.281987361165166420667447860734453
42,706.486855917950900193064734650236382,705.2,1.286855917950900193064734650236382
43,740.491609280785285526079168269159866,739.2,1.291609280785285526079168269159866
44,775.296252782385871909834246403423730,774.0,1.296252782385871909834246403423730
45,810.900791393173274784692214945609530,809.6,1.300791393173274784692214945609530
46,847.305229753387512744637721361113140,846.0,1.305229753387512744637721361113140
47,884.509572201720756526266005915178353,883.2,1.309572201720756526266005915178353
48,922.513822800910479424110545015797071,921.2,1.313822800910479424110545015797071
49,961.317985360672336229147443067257541,960.0,1.317985360672336229147443067257541
50,1000.92206345829797507365993954322418,999.6,1.32206345829797507365993954322418
51,1041.32606045719751960317351686407542,1040.0,1.32606045719751960317351686407542
52,1082.52997952362811368187236900359128,1081.2,1.32997952362811368187236900359128
53,1124.53382364181747071936182327570845,1123.2,1.33382364181747071936182327570845
54,1167.33759562766380857518511974020803,1166.0,1.33759562766380857518511974020803
55,1210.94129814117007550499101303099626,1209.6,1.34129814117007550499101303099626
56,1255.34493369775029804212351825953749,1254.0,1.34493369775029804212351825953749
57,1300.54850467852868274328608780606963,1299.2,1.34850467852868274328608780606963
58,1346.55201333973730654064169209507051,1345.2,1.35201333973730654064169209507051
59,1393.35546182130547649543504560250972,1392.0,1.35546182130547649543504560250972
60,1440.95885215472281524052108518846967,1439.6,1.35885215472281524052108518846967
61,1489.36218627024856417167925968451436,1488.0,1.36218627024856417167925968451436
62,1538.56546600353129544247979187333474,1537.2,1.36546600353129544247979187333474
63,1588.56869310169598192844750975281496,1587.2,1.36869310169598192844750975281496
64,1639.37186922894906184634679235935822,1638.0,1.37186922894906184634679235935822
65,1690.97499597174659987443846142083435,1689.6,1.37499597174659987443846142083435
66,1743.37807484356579928050530661767417,1742.0,1.37807484356579928050530661767417
67,1796.58110728931585727311715360943539,1795.2,1.38110728931585727311715360943539
68,1850.58409468942039963079786754569076,1849.2,1.38409468942039963079786754569076
69,1905.38703836360041799302992726196051,1904.0,1.38703836360041799302992726196051
70,1960.98993957438370492876801505927902,1959.6,1.38993957438370492876801505927902
71,2017.39279953036418319440220451592122,2016.0,1.39279953036418319440220451592122
72,2074.59561938923222735073115898698551,2073.2,1.39561938923222735073115898698551
73,2132.59840026059502290210253430472598,2131.2,1.39840026059502290210253430472598
74,2191.40114320860418927232476489922592,2190.0,1.40114320860418927232476489922592
75,2251.00384925440626183085152966370875,2249.6,1.40384925440626183085152966370875
76,2311.40651937843017862598474460115963,2310.0,1.40651937843017862598474460115963
77,2372.60915452252461508342396269020645,2371.2,1.40915452252461508342396269020645
78,2434.61175559195684413030969800474389,2433.2,1.41175559195684413030969800474389
79,2497.41432345728375238491597261401919,2496.0,1.41432345728375238491597261401919
80,2561.01685895610470492650281667313455,2559.6,1.41685895610470492650281667313455
81,2625.41936289470510181836292670092787,2624.0,1.41936289470510181836292670092787
82,2690.62183604959870810654301225498834,2689.2,1.42183604959870810654301225498834
83,2756.62427916897615028293071727273534,2755.2,1.42427916897615028293071727273534
84,2823.42669297406634790968180479078150,2822.0,1.42669297406634790968180479078150
85,2891.02907816041708982578863835155914,2889.6,1.42907816041708982578863835155914
86,2959.43143539910044849120148810633258,2958.0,1.43143539910044849120148810633258
87,3028.63376533784826855311449932479431,3027.2,1.43376533784826855311449932479431
88,3098.63606860212254234129223973044026,3097.2,1.43606860212254234129223973044026
89,3169.43834579612510149715131032331229,3168.0,1.43834579612510149715131032331229
90,3241.04059750375071072458218266434189,3239.6,1.44059750375071072458218266434189
91,3313.44282428948732819844573306297068,3312.0,1.44282428948732819844573306297068
92,3386.64502669926700886913972989406941,3385.2,1.44502669926700886913972989406941
93,3460.64720526127066464657495873738392,3459.2,1.44720526127066464657495873738392
94,3535.44936048668965251816249156243453,3534.0,1.44936048668965251816249156243453
95,3611.05149287044694050138464370974252,3609.6,1.45149287044694050138464370974252
96,3687.45360289188039950940560254923427,3686.0,1.45360289188039950940560254923427
97,3764.65569101539058486606830545567786,3763.2,1.45569101539058486606830545567786
98,3842.65775769105519833232915936846161,3841.2,1.45775769105519833232915936846161
99,3921.45980335521226803399333835678552,3920.0,1.45980335521226803399333835678552
100,4001.06182843101393734019710009282865,3999.6,1.46182843101393734019710009282865
101,4081.46383332895262443792920534768766,4080.0,1.46383332895262443792920534768766
102,4162.66581844736118877316242372181612,4161.2,1.46581844736118877316242372181612
103,4244.66778417288863261555313220243662,4243.2,1.46778417288863261555313220243662
104,4327.46973088095275873895684806096651,4326.0,1.46973088095275873895684806096651
105,4411.07165893617111213625030197947979,4409.6,1.47165893617111213625030197947979
106,4495.47356869277144292270721808573320,4494.0,1.47356869277144292270721808573320
107,4580.67546049498284950021947493774934,4579.2,1.47546049498284950021947493774934
108,4666.67733467740868181510084999143355,4665.2,1.47733467740868181510084999143355
109,4753.47919156538221594867659948527173,4752.0,1.47919156538221594867659948527173
110,4841.08103147530604885973684523533430,4839.6,1.48103147530604885973684523533430
111,4929.48285471497609623673338316106618,4928.0,1.48285471497609623673338316106618
112,5018.68466158389102698396602261440741,5017.2,1.48466158389102698396602261440741
113,5108.68645237354791233021045678904845,5107.2,1.48645237354791233021045678904845
114,5199.48822736772481879048339833942431,5198.0,1.48822736772481879048339833942431
115,5291.08998684275103376313812057864060,5289.6,1.48998684275103376313812057864060
116,5383.49173106776556421283536090049768,5382.0,1.49173106776556421283536090049768
117,5476.69346030496451717692775120424246,5475.2,1.49346030496451717692775120424246
118,5570.69517480983792980169036808672201,5569.2,1.49517480983792980169036808672201
119,5665.49687483139658290111382670827798,5664.0,1.49687483139658290111382670827798
120,5761.09856061238930618874131301081811,5759.6,1.49856061238930618874131301081811
121,5857.50023238951124506578661874091109,5856.0,1.50023238951124506578661874091109
122,5954.70189039360353993563766067332855,5953.2,1.50189039360353993563766067332855
123,6052.70353484984483682191789390774105,6051.2,1.50353484984483682191789390774105
124,6151.50516597793503038746936093306771,6150.0,1.50516597793503038746936093306771
125,6251.10678399227161088535806305278008,6249.6,1.50678399227161088535806305278008
126,6351.50838910211897137570484618310520,6350.0,1.50838910211897137570484618310520
127,6452.70998151177101096425850569081456,6451.2,1.50998151177101096425850569081456
128,6554.71156142070734723143805176608100,6553.2,1.51156142070734723143805176608100
129,6657.51312902374343894733290192794633,6656.0,1.51312902374343894733290192794633
130,6761.11468451117490178628256658482262,6759.6,1.51468451117490178628256658482262
131,6865.51622806891628435053928487782119,6864.0,1.51622806891628435053928487782119
132,6970.71775987863455683531655589777039,6969.2,1.51775987863455683531655589777039
133,7076.71928011787755288594195402264523,7075.2,1.51928011787755288594195402264523
134,7183.52078896019759392187456122384650,7182.0,1.52078896019759392187456122384650
135,7291.12228657527050709400435325414576,7289.6,1.52228657527050709400435325414576
136,7399.52377312901024435412056662359188,7398.0,1.52377312901024435412056662359188
137,7508.72524878367929680749287749566650,7507.2,1.52524878367929680749287749566650
138,7618.72671369799508490751812441107447,7617.2,1.52671369799508490751812441107447
139,7729.52816802723250294548025547691280,7728.0,1.52816802723250294548025547691280
140,7841.12961192332278084250241822032272,7839.6,1.52961192332278084250241822032272
141,7953.53104553494882169328054953586823,7952.0,1.53104553494882169328054953586823
142,8066.73246900763716543792064368152353,8065.2,1.53246900763716543792064368152353
143,8180.73388248384672038803251850553921,8179.2,1.53388248384672038803251850553921
144,8295.53528610305439715359619008959116,8294.0,1.53528610305439715359619008959116
145,8411.13668000183777532935750570184918,8409.6,1.53668000183777532935750570184918
146,8527.53806431395492543075917153430000,8526.0,1.53806431395492543075917153430000
147,8644.73943917042150036644716924173550,8643.2,1.53943917042150036644716924173550
148,8762.74080469958521177635913562351631,8761.2,1.54080469958521177635913562351631
149,8881.54216102719779303632725776807582,8880.0,1.54216102719779303632725776807582
150,9001.14350827648455257005076672441005,8999.6,1.54350827648455257005076672441005
151,9121.54484656821161338266983747893217,9120.0,1.54484656821161338266983747893217
152,9242.74617602075092911508745991843844,9241.2,1.54617602075092911508745991843844
153,9364.74749675014316556870977043750170,9363.2,1.54749675014316556870977043750170
154,9487.54880887015853159982291428375478,9486.0,1.54880887015853159982291428375478
155,9611.15011249235563761957511940466662,9609.6,1.55011249235563761957511940466662
156,9735.55140772613845956590256401547972,9734.0,1.55140772613845956590256401547972
157,9860.75269467881147939397719623140921,9859.2,1.55269467881147939397719623140921
158,9986.75397345563307390325287408733329,9985.2,1.55397345563307390325287408733329
159,10113.5552441598672155739176414943759,10112.0,1.5552441598672155739176414943759
160,10241.1565068928335517502647319012248,10239.6,1.5565068928335517502647319012248
161,10369.5577617539559206670758011571751,10368.0,1.5577617539559206670758011571751
162,10498.7590088408093637800906151686499,10497.2,1.5590088408093637800906151686499
163,10628.7602482491656892538349810372014,10627.2,1.5602482491656892538349810372014
164,10759.5614800730376412433750535086412,10758.0,1.5614800730376412433750535086412
165,10891.1627044047217235701882526572466,10889.6,1.5627044047217235701882526572466
166,11023.5639213348397283077122637367357,11022.0,1.5639213348397283077122637367357
167,11156.7651309523790165088644875084063,11155.2,1.5651309523790165088644875084063
168,11290.7663333447315937644184789965727,11289.2,1.5663333447315937644184789965727
169,11425.5675285977320256543004982514222,11424.0,1.5675285977320256543004982514222
170,11561.1687167956942328348951924606301,11559.6,1.5687167956942328348951924606301
171,11697.5698980214472059567938060144878,11696.0,1.5698980214472059567938060144878
172,11834.7710723563696782796159916983520,11833.2,1.5710723563696782796159916983520
173,11972.7722398804237913862087879716484,11971.2,1.5722398804237913862087879716484
174,12111.5734006721877898397099267557217,12110.0,1.5734006721877898397099267557217
175,12251.1745548088877787683813540709068,12249.6,1.5745548088877787683813540709068
176,12391.5757023664285740845388599943328,12390.0,1.5757023664285740845388599943328
177,12532.7768434194236785980882726631777,12531.2,1.5768434194236785980882726631777
178,12674.7779780412244131790375299564466,12673.2,1.5779780412244131790375299564466
179,12817.5791063039482294139034929031688,12816.0,1.5791063039482294139034929031688
180,12961.1802282785062347023853666251597,12959.6,1.5802282785062347023853666251597
181,13105.5813440346299524428641834743862,13104.0,1.5813440346299524428641834743862
182,13250.7824536408973450020865531467390,13249.2,1.5824536408973450020865531467390
183,13396.7835571647581225182799150912938,13395.2,1.5835571647581225182799150912938
184,13543.5846546725583617792081565718473,13542.0,1.5846546725583617792081565718473
185,13691.1857462295644569832642334124105,13689.6,1.5857462295644569832642334124105
186,13839.5868318999864233521917095224715,13838.0,1.5868318999864233521917095224715
187,13988.7879117470005773959058815092058,13987.2,1.5879117470005773959058815092058
188,14138.7889858327716092657015577997273,14137.2,1.5889858327716092657015577997273
189,14289.5900542184740709269078939537839,14288.0,1.5900542184740709269078939537839
190,14441.1911169643132958020377453588780,14439.6,1.5911169643132958020377453588780
191,14593.5921741295457691069524838465377,14592.0,1.5921741295457691069524838465377
192,14746.7932257724989652622142233508239,14745.2,1.5932257724989652622142233508239
193,14900.7942719505906706834411895853395,14899.2,1.5942719505906706834411895853395
194,15055.5953127203478052914166791677308,15054.0,1.5953127203478052914166791677308
195,15211.1963481374247606742771301454020,15209.6,1.5963481374247606742771301454020
196,15367.5973782566212685936458507613883,15366.0,1.5973782566212685936458507613883
197,15524.7984031318998142099994290602155,15523.2,1.5984031318998142099994290602155
198,15682.7994228164026081892116179819681,15681.2,1.5994228164026081892116179819681
199,15841.6004373624681305240942953395776,15840.0,1.6004373624681305240942953395776
200,16001.2014468216472600111002021390534,15999.6,1.6014468216472600111002021390534
201,16161.6024512447190003585700690058002,16160.0,1.6024512447190003585700690058002
202,16322.8034506817058163026399386727649,16321.2,1.6034506817058163026399386727649
203,16484.8044451818885903854940804150126,16483.2,1.6044451818885903854940804150126
204,16647.6054347938212120108296559932155,16646.0,1.6054347938212120108296559932155
205,16811.2064195653448087418488555102149,16809.6,1.6064195653448087418488555102149
206,16975.6073995436016328604799344217814,16974.0,1.6073995436016328604799344217814
207,17140.8083747750486090584565966430162,17139.2,1.6083747750486090584565966430162
208,17306.8093453054705574816647745751174,17305.2,1.6093453054705574816647745751174
209,17473.6103111799930978705887404267688,17472.0,1.6103111799930978705887404267688
210,17641.2112724430952462924597778987549,17639.6,1.6112724430952462924597778987549
211,17809.6122291386217118240683853818712,17808.0,1.6122291386217118240683853818712
212,17978.8131813097949034123665015214033,17977.2,1.6131813097949034123665015214033
213,18148.8141289992266512907524104518818,18147.2,1.6141289992266512907524104518818
214,18319.6150722489296579267260424746087,18318.0,1.6150722489296579267260424746087
215,18491.2160111003286777071444017629419,18489.6,1.6160111003286777071444017629419
216,18663.6169455942714393155320012244818,18662.0,1.6169455942714393155320012244818
217,18836.8178757710393147604866923989000,18835.2,1.6178757710393147604866923989000
218,19010.8188016703577440276282884033764,19009.2,1.6188016703577440276282884033764
219,19185.6197233314064186280240305097595,19184.0,1.6197233314064186280240305097595
220,19361.2206407928292365512160864226828,19359.6,1.6206407928292365512160864226828
221,19537.6215540927440265251387964326913,19536.0,1.6215540927440265251387964326913
222,19714.8224632687520587802886672312676,19713.2,1.6224632687520587802886672312676
223,19892.8233683579473358789758518473576,19891.2,1.6233683579473358789758518473576
224,20071.6242693969256786689528080448945,20070.0,1.6242693969256786689528080448945
225,20251.2251664217936099179604012863200,20249.6,1.6251664217936099179604012863200
226,20431.6260594681770391671294309158762,20430.0,1.6260594681770391671294309158762
227,20612.8269485712297574460815663901477,20611.2,1.6269485712297574460815663901477
228,20794.8278337656417436599266572825404,20793.2,1.6278337656417436599266572825404
229,20977.6287150856472898002970988989928,20976.0,1.6287150856472898002970988989928
230,21161.2295925650329496666528226842178,21159.6,1.6295925650329496666528226842178
231,21345.6304662371453128871176770692020,21344.0,1.6304662371453128871176770692020
232,21530.8313361348986146477565430352430,21529.2,1.6313361348986146477565430352430
233,21716.8322022907821761157878332875735,21715.2,1.6322022907821761157878332875735
234,21903.6330647368676917027861225678462,21902.0,1.6330647368676917027861225678462
235,22091.2339235048163563389644170993936,22089.6,1.6339235048163563389644170993936
236,22279.6347786258858424572933941481461,22278.0,1.6347786258858424572933941481461
237,22468.8356301309371303075735945574390,22467.2,1.6356301309371303075735945574390
238,22658.8364780504411933314604848038148,22657.2,1.6364780504411933314604848038148
