Eigenstate,Energy,Kinetic Energy,Potential Energy
1,0.500000000069641162531488455468015764,0.0,0.500000000069641162531488455468015764
2,1.84623093810569644733051285892624336,1.2,0.64623093810569644733051285892624336
3,3.93633761104027570263104548862818627,3.2,0.73633761104027570263104548862818627
4,6.79966528059552402565249512908379502,6.0,0.79966528059552402565249512908379502
5,10.4480465801034579498814822671682463,9.6,0.8480465801034579498814822671682463
6,14.8870660043253630861252572631976687,14.0,0.8870660043253630861252572631976687
7,20.1197208347025238047984205771888597,19.2,0.9197208347025238047984205771888597
8,26.1477838576135434825245310858501210,25.2,0.9477838576135434825245310858501210
9,32.9723835720656828291739253623870307,32.0,0.9723835720656828291739253623870307
10,40.5942802322081525101906503332405786,39.6,0.9942802322081525101906503332405786
11,49.0140094081824445869241757261194149,48.0,1.0140094081824445869241757261194149
12,58.2319621952935366764350457464035129,57.2,1.0319621952935366764350457464035129
13,68.2484327236075232358485000654386545,67.2,1.0484327236075232358485000654386545
14,79.0636476908077998161540633322346834,78.0,1.0636476908077998161540633322346834
15,90.6777854780092616581379027155696723,89.6,1.0777854780092616581379027155696723
16,103.090988954628757438507985290661732,102.0,1.090988954628757438507985290661732
17,116.303374311846599352998975718451744,115.2,1.103374311846599352998975718451744
18,130.315037313612766522824009674474343,129.2,1.115037313612766522824009674474343
19,145.126057819750885397762183581733545,144.0,1.126057819750885397762183581733545
20,160.736503123592168210778120453537519,159.6,1.136503123592168210778120453537519
21,177.146430458057111637158491569801658,176.0,1.146430458057111637158491569801658
22,194.355888906814238035951861089919728,193.2,1.155888906814238035951861089919728
23,212.364920882216620947575182591917071,211.2,1.164920882216620947575182591917071
24,231.173563282702307902878250477594852,230.0,1.173563282702307902878250477594852
25,250.781848409590247323386248754504376,249.6,1.181848409590247323386248754504376
26,271.189804700887876675522331191691179,270.0,1.189804700887876675522331191691179
27,292.397457324253698630670071055262621,291.2,1.197457324253698630670071055262621
28,314.404828660356321167154861796415703,313.2,1.204828660356321167154861796415703
29,337.211938700076409724101154322179761,336.0,1.211938700076409724101154322179761
30,360.818805373348511944573926889109319,359.6,1.218805373348511944573926889109319
31,385.225444823293777043015386581649827,384.0,1.225444823293777043015386581649827
32,410.431871636216692245591154567399883,409.2,1.231871636216692245591154567399883
33,436.438099035729310946715239536106443,435.2,1.238099035729310946715239536106443
34,463.244139047515900957979160715417559,462.0,1.244139047515900957979160715417559
35,490.850002639911746159360172970169788,489.6,1.250002639911746159360172970169788
36,519.255699844436355983554564545924380,518.0,1.255699844436355983554564545924380
37,548.461239859617252615409591664729575,547.2,1.261239859617252615409591664729575
38,578.466631140810087045019294175981344,577.2,1.266631140810087045019294175981344
39,609.271881478222986463328865382829856,608.0,1.271881478222986463328865382829856
40,640.876998064957214705391801513607724,639.6,1.276998064957214705391801513607724
41,673.281987556559477172582955547842189,672.0,1.281987556559477172582955547842189
42,706.486856123326209063471953611922196,705.2,1.286856123326209063471953611922196
43,740.491609496393699398072016194495989,739.2,1.291609496393699398072016194495989
44,775.296253008479809304617564069463780,774.0,1.296253008479809304617564069463780
45,810.900791630005473468981661506935218,809.6,1.300791630005473468981661506935218
46,847.305230001211037364214941928930900,846.0,1.305230001211037364214941928930900
47,884.509572460789006265327356894401722,883.2,1.309572460789006265327356894401722
48,922.513823071477195690163088421178464,921.2,1.313823071477195690163088421178464
49,961.317985642991610363303710956128661,960.0,1.317985642991610363303710956128661
50,1000.92206375262425608626623846966367,999.6,1.32206375262425608626623846966367
51,1041.32606076378562193477785522719137,1040.0,1.32606076378562193477785522719137
52,1082.52997984273322498959931143442563,1081.2,1.32997984273322498959931143442563
53,1124.53382397369515968881439625394892,1123.2,1.33382397369515968881439625394892
54,1167.33759597257003275803977038107574,1166.0,1.33759597257003275803977038107574
55,1210.94129849936118918249150282800518,1209.6,1.34129849936118918249150282800518
56,1255.34493406948306011471452364968142,1254.0,1.34493406948306011471452364968142
57,1300.54850506406026464665791994954058,1299.2,1.34850506406026464665791994954058
58,1346.55201373932530018848471429555706,1345.2,1.35201373932530018848471429555706
59,1393.35546223520790224922617474348387,1392.0,1.35546223520790224922617474348387
60,1440.95885258319812990668626831447698,1439.6,1.35885258319812990668626831447698
61,1489.36218671355566902649484658996641,1488.0,1.36218671355566902649484658996641
62,1538.56546646192954428509298016333856,1537.2,1.36546646192954428509298016333856
63,1588.56869357544518916241149571270015,1587.2,1.36869357544518916241149571270015
64,1639.37186971830951059008035053641709,1638.0,1.37186971830951059008035053641709
65,1690.97499647697905010103262116013339,1689.6,1.37499647697905010103262116013339
66,1743.37807536493149598731147724207607,1742.0,1.37807536493149598731147724207607
67,1796.58110782707653868156197688224680,1795.2,1.38110782707653868156197688224680
68,1850.58409524383830541688010536189293,1849.2,1.38409524383830541688010536189293
69,1905.38703893493829754896413684281061,1904.0,1.38703893493829754896413684281061
70,1960.98994016290482565624838316136539,1959.6,1.38994016290482565624838316136539
71,2017.39280013633233882996835754923666,2016.0,1.39280013633233882996835754923666
72,2074.59562001291174632372533234369499,2073.2,1.39562001291174632372533234369499
73,2132.59840090225077672571509271876963,2131.2,1.39840090225077672571509271876963
74,2191.40114386850160096823193106962655,2190.0,1.40114386850160096823193106962655
75,2251.00384993281131438795612930950352,2249.6,1.40384993281131438795612930950352
76,2311.40652007560942349377707133840629,2310.0,1.40652007560942349377707133840629
77,2372.60915523874518070048631545193244,2371.2,1.40915523874518070048631545193244
78,2434.61175632748644448849416536553815,2433.2,1.41175632748644448849416536553815
79,2497.41432421239069562973101376256662,2496.0,1.41432421239069562973101376256662
80,2561.01685973105790199424989929341918,2559.6,1.41685973105790199424989929341918
81,2625.41936368977407511057028226026671,2624.0,1.41936368977407511057028226026671
82,2690.62183686505360020224908025775685,2689.2,1.42183686505360020224908025775685
83,2756.62428000508773268937536332391829,2755.2,1.42428000508773268937536332391829
84,2823.42669383110602985196888502132093,2822.0,1.42669383110602985196888502132093
85,2891.02907903865692707608882128742291,2889.6,1.42907903865692707608882128742291
86,2959.43143629881315223806961834377983,2958.0,1.43143629881315223806961834377983
87,3028.63376625930721431150116412142937,3027.2,1.43376625930721431150116412142937
88,3098.63606954560177890383444010084440,3097.2,1.43606954560177890383444010084440
89,3169.43834676189935992733251092136697,3168.0,1.43834676189935992733251092136697
90,3241.04059849209541339235721553364800,3239.6,1.44059849209541339235721553364800
91,3313.44282530067859785893149578349707,3312.0,1.44282530067859785893149578349707
92,3386.64502773358167778497779188617280,3385.2,1.44502773358167778497779188617280
93,3460.64720631898628375457765412511391,3459.2,1.44720631898628375457765412511391
94,3535.44936156808450064085934543333210,3534.0,1.44936156808450064085934543333210
95,3611.05149397580003360409148921965043,3609.6,1.45149397580003360409148921965043
96,3687.45360402147150000344407787995929,3686.0,1.45360402147150000344407787995929
97,3764.65569216950021095876898095624600,3763.2,1.45569216950021095876898095624600
98,3842.65775886996463342445700116635780,3841.2,1.45775886996463342445700116635780
99,3921.45980455920357016523985994995263,3920.0,1.45980455920357016523985994995263
100,4001.06182966036994868338908887384174,3999.6,1.46182966036994868338908887384174
101,4081.46383458395698084260969623377770,4080.0,1.46383458395698084260969623377770
102,4162.66581972829832935920519109356989,4161.2,1.46581972829832935920519109356989
103,4244.66778548004380941747774289291906,4243.2,1.46778548004380941747774289291906
104,4327.46973221461204640161750916788306,4326.0,1.46973221461204640161750916788306
105,4411.07166029662141766257718498939387,4409.6,1.47166029662141766257718498939387
106,4495.47357008030051547418530071573352,4494.0,1.47357008030051547418530071573352
107,4580.67546190987929025079570543042485,4579.2,1.47546190987929025079570543042485
108,4666.67733611996195385921689075344203,4665.2,1.47733611996195385921689075344203
109,4753.47919303588265426413032850722405,4752.0,1.47919303588265426413032850722405
110,4841.08103297404487032608228022700524,4839.6,1.48103297404487032608228022700524
111,4929.48285624224540970993491234366068,4928.0,1.48285624224540970993491234366068
112,5018.68466313998384342802934826324801,5017.2,1.48466313998384342802934826324801
113,5108.68645395875815500651919540763184,5107.2,1.48645395875815500651919540763184
114,5199.48822898234733350557685336799634,5198.0,1.48822898234733350557685336799634
115,5291.08998848708159917567247485688392,5289.6,1.48998848708159917567247485688392
116,5383.49173274210090220047726822339345,5382.0,1.49173274210090220047726822339345
117,5476.69346200960230326393625859693794,5475.2,1.49346200960230326393625859693794
118,5570.69517654507680364795003869506857,5569.2,1.49517654507680364795003869506857
119,5665.49687659753615885338893536634437,5664.0,1.49687659753615885338893536634437
120,5761.09856240973018389492822777312307,5759.6,1.49856240973018389492822777312307
121,5857.50023421835502015294874874089113,5856.0,1.50023421835502015294874874089113
122,5954.70189225425281475261460181918807,5953.2,1.50189225425281475261460181918807
123,6052.70353674260323124730798273456708,6051.2,1.50353674260323124730798273456708
124,6151.50516790310719270379221226862159,6150.0,1.50516790310719270379221226862159
125,6251.10678595016322872021160256830779,6249.6,1.50678595016322872021160256830779
126,6351.50839109303678271073887500434499,6350.0,1.50839109303678271073887500434499
127,6452.70998353602281521279475328436515,6451.2,1.50998353602281521279475328436515
128,6554.71156347860201638557479333476824,6553.2,1.51156347860201638557479333476824
129,6657.51313111559092879538012003005684,6656.0,1.51313111559092879538012003005684
130,6761.11468663728626320138194458871425,6759.6,1.51468663728626320138194458871425
131,6865.51623022960367465133154978058984,6864.0,1.51623022960367465133154978058984
132,6970.71776207421125121952736431729034,6969.2,1.51776207421125121952736431729034
133,7076.71928234865795593776555433079556,7075.2,1.51928234865795593776555433079556
134,7183.52079122649725119404373742239698,7182.0,1.52079122649725119404373742239698
135,7291.12228887740611676544353717798210,7289.6,1.52228887740611676544353717798210
136,7399.52377546729966896408799332682432,7398.0,1.52377546729966896408799332682432
137,7508.72525115844157506712678212657063,7507.2,1.52525115844157506712678212657063
138,7618.72671610955044358971105947635640,7617.2,1.52671610955044358971105947635640
139,7729.52817047590236885401489333006859,7728.0,1.52817047590236885401489333006859
140,7841.12961440942979286139171929623730,7839.6,1.52961440942979286139171929623730
141,7953.53104805881684291726445974524811,7952.0,1.53104805881684291726445974524811
142,8066.73247156959129538508153718949527,8065.2,1.53247156959129538508153718949527
143,8180.73388508421330729550109203390703,8179.2,1.53388508421330729550109203390703
144,8295.53528874216105035732969932464413,8294.0,1.53528874216105035732969932464413
145,8411.13668268001337772898206911562828,8409.6,1.53668268001337772898206911562828
146,8527.53806703152964604047841281490946,8526.0,1.53806703152964604047841281490946
147,8644.73944192772680695302956645142764,8643.2,1.53944192772680695302956645142764
148,8762.74080749695388358522708081295771,8761.2,1.54080749695388358522708081295771
149,8881.54216386496393360678163862441735,8880.0,1.54216386496393360678163862441735
150,9001.14351115498360264067525415611928,8999.6,1.54351115498360264067525415611928
151,9121.54484948778036388797063517917670,9120.0,1.54484948778036388797063517917670
152,9242.74617898172753427443489678125856,9241.2,1.54617898172753427443489678125856
153,9364.74749975286715606865962204927084,9363.2,1.54749975286715606865962204927084
154,9487.54881191497082787090673986897991,9486.0,1.54881191497082787090673986897991
155,9611.15011557959856320866042895749295,9609.6,1.55011557959856320866042895749295
156,9735.55141085615575460523556045384620,9734.0,1.55141085615575460523556045384620
157,9860.75269785194831416803245256315564,9859.2,1.55269785194831416803245256315564
158,9986.75397667223606251452676405250045,9985.2,1.55397667223606251452676405250045
159,10113.5552474202844297088142896216802,10112.0,1.5552474202844297088142896216802
160,10241.1565101974145345462358121951987,10239.6,1.5565101974145345462358121951987
161,10369.5577651030517006821881730017011,10368.0,1.5577651030517006821881730017011
162,10498.7590122347724690662085182932340,10497.2,1.5590122347724690662085182932340
163,10628.7602516883501615346162974189191,10627.2,1.5602516883501615346162974189191
164,10759.5614835577990501982946122008664,10758.0,1.5614835577990501982946122008664
165,10891.1627079354171812258143107981349,10889.6,1.5627079354171812258143107981349
166,11023.5639249118279035374756789097673,11022.0,1.5639249118279035374756789097673
167,11156.7651345760201496425740752582090,11155.2,1.5651345760201496425740752582090
168,11290.7663370153875113087898146793232,11289.2,1.5663370153875113087898146793232
169,11425.5675323157661551257794114348834,11424.0,1.5675323157661551257794114348834
170,11561.1687205614716177060717670504873,11559.6,1.5687205614716177060717670504873
171,11697.5699018353345207177169373466167,11696.0,1.5699018353345207177169373466167
172,11834.7710762187352436153333585600625,11833.2,1.5710762187352436153333585600625
173,11972.7722437916375894718720221327191,11971.2,1.5722437916375894718720221327191
174,12111.5734046326214797545998512827348,12110.0,1.5734046326214797545998512827348
175,12251.1745588189147120302235767083445,12249.6,1.5745588189147120302235767083445
176,12391.5757064264238103054953641451618,12390.0,1.5757064264238103054953641451618
177,12532.7768475297640012638267064489185,12531.2,1.5768475297640012638267064489185
178,12674.7779822022883455522956445578273,12673.2,1.5779822022883455522956445578273
179,12817.5791105161160505639823936982973,12816.0,1.5791105161160505639823936982973
180,12961.1802325421599956620221108236214,12959.6,1.5802325421599956620221108236214
181,13105.5813483501534924939503156985564,13104.0,1.5813483501534924939503156985564
182,13250.7824580086763080917165688548898,13249.2,1.5824580086763080917165688548898
183,13396.7835615851799738066306208461958,13395.2,1.5835615851799738066306208461958
184,13543.5846591460124043207673397001309,13542.0,1.5846591460124043207673397001309
185,13691.1857507564418485429448140985610,13689.6,1.5857507564418485429448140985610
186,13839.5868364806801933578852053284795,13838.0,1.5868364806801933578852053284795
187,13988.7879163819056440290474593249973,13987.2,1.5879163819056440290474593249973
188,14138.7889905222847966914372277977688,14137.2,1.5889905222847966914372277977688
189,14289.5900589629941266654732504652156,14288.0,1.5900589629941266654732504652156
190,14441.1911217642409082429761527095905,14439.6,1.5911217642409082429761527095905
191,14593.5921789852835851678206760249087,14592.0,1.5921789852835851678206760249087
192,14746.7932306844516081934419605271976,14745.2,1.5932306844516081934419605271976
193,14900.7942769191647580210319376824960,14899.2,1.5942769191647580210319376824960
194,15055.5953177459519669591959553621474,15054.0,1.5953177459519669591959553621474
195,15211.1963532204696572374160797779262,15209.6,1.5963532204696572374160797779262
196,15367.5973833975196096652076552521250,15366.0,1.5973833975196096652076552521250
197,15524.7984083310663770122775826721749,15523.2,1.5984083310663770122775826721749
198,15682.7994280742542562716500485631823,15681.2,1.5994280742542562716500485631823
199,15841.6004426794238326396012069562111,15840.0,1.6004426794238326396012069562111
200,16001.2014521981281091525887581923393,15999.6,1.6014521981281091525887581923393
201,16161.6024566811482329575823408575029,16160.0,1.6024566811482329575823408575029
202,16322.8034561785088315919317358347995,16321.2,1.6034561785088315919317358347995
203,16484.8044507394929699274824542185981,16483.2,1.6044507394929699274824542185981
204,16647.6054404126567393938267816791307,16646.0,1.6054404126567393938267816791307
205,16811.2064252458434894460306566219695,16809.6,1.6064252458434894460306566219695
206,16975.6074052861977142955605919164747,16974.0,1.6074052861977142955605919164747
207,17140.8083805801786007750656268667299,17139.2,1.6083805801786007750656268667299
208,17306.8093511735732515584463542208656,17305.2,1.6093511735732515584463542208656
209,17473.6103171115095894790692901944885,17472.0,1.6103171115095894790692901944885
210,17641.2112784384689544417542883038621,17639.6,1.6112784384689544417542883038621
211,17809.6122351982984002875217941884758,17808.0,1.6122351982984002875217941884758
212,17978.8131874342227018382525799337831,17977.2,1.6131874342227018382525799337831
213,18148.8141351888560764991792681337049,18147.2,1.6141351888560764991792681337049
214,18319.6150785042136353949234867197786,18318.0,1.6150785042136353949234867197786
215,18491.2160174217225632453363617422416,18489.6,1.6160174217225632453363617422416
216,18663.6169519822330409356243871097507,18662.0,1.6169519822330409356243871097507
217,18836.8178822260289147398291988031750,18835.2,1.6178822260289147398291988031750
218,19010.8188081928381211701369432447643,19009.2,1.6188081928381211701369432447643
219,19185.6197299218428707249807416407790,19184.0,1.6197299218428707249807416407790
220,19361.2206474516896030440899655743083,19359.6,1.6206474516896030440899655743083
221,19537.6215608204987113728040542352437,19536.0,1.6215608204987113728040542352437
222,19714.8224700658740535330443655659390,19713.2,1.6224700658740535330443655659390
223,19892.8233752249122429618028045660091,19891.2,1.6233752249122429618028045660091
224,20071.6242763342117348764747252159420,20070.0,1.6242763342117348764747252159420
225,20251.2251734298817101236071037783043,20249.6,1.6251734298817101236071037783043
226,20431.6260665475507602490328650967620,20430.0,1.6260665475507602490328650967620
227,20612.8269557223753824322669041877959,20611.2,1.6269557223753824322669041877959
228,20794.8278409890482860953947245975677,20793.2,1.6278409890482860953947245975677
229,20977.6287223818065183386270231645697,20976.0,1.6287223818065183386270231645697
230,21161.2295999344394128887882103188039,21159.6,1.6295999344394128887882103188039
231,21345.6304736802963643500342001275916,21344.0,1.6304736802963643500342001275916
232,21530.8313436522944381657436758842327,21529.2,1.6313436522944381657436758842327
233,21716.8322098829258112771127254221303,21715.2,1.6322098829258112771127254221303
234,21903.6330724042650596245447193915952,21902.0,1.6330724042650596245447193915952
235,22091.2339312479762856629600488014586,22089.6,1.6339312479762856629600488014586
236,22279.6347864453200955898216380533347,22278.0,1.6347864453200955898216380533347
237,22468.8356380271604299060294640846648,22467.2,1.6356380271604299060294640846648
238,22658.8364860239712490407219401003774,22657.2,1.6364860239712490407219401003774
