Eigenstate,Energy,Kinetic Energy,Potential Energy
1,0.500000000019317666442170891223997808,0.0,0.500000000019317666442170891223997808
2,1.84623093777721021852079197697390065,1.2,0.64623093777721021852079197697390065
3,3.93633761007537084711857436380822247,3.2,0.73633761007537084711857436380822247
4,6.79966527858572864488828858260056744,6.0,0.79966527858572864488828858260056744
5,10.4480465766220617731997877716245278,9.6,0.8480465766220617731997877716245278
6,14.8870659989381756744376852895586897,14.0,0.8870659989381756744376852895586897
7,20.1197208269718371293218950510434563,19.2,0.9197208269718371293218950510434563
8,26.1477838470997832670219939928612143,25.2,0.9477838470997832670219939928612143
9,32.9723835583281753075744407147640909,32.0,0.9723835583281753075744407147640909
10,40.5942802148055125595453485866913879,39.6,0.9942802148055125595453485866913879
11,49.0140093866727856197373451574306755,48.0,1.0140093866727856197373451574306755
12,58.2319621692345897028685018325506037,57.2,1.0319621692345897028685018325506037
13,68.2484326925567064762500588602871599,67.2,1.0484326925567064762500588602871599
14,79.0636476543222598537883405673925770,78.0,1.0636476543222598537883405673925770
15,90.6777854356458974212024013140220394,89.6,1.0777854356458974212024013140220394
16,103.090988905944233394860971063288466,102.0,1.090988905944233394860971063288466
17,116.303374256397351686366633075135018,115.2,1.103374256397351686366633075135018
18,130.315037250955004600650689569335286,129.2,1.115037250955004600650689569335286
19,145.126057749440589994088494643608244,144.0,1.126057749440589994088494643608244
20,160.736503045185087438386056119283210,159.6,1.136503045185087438386056119283210
21,177.146430371108755227418499695503643,176.0,1.146430371108755227418499695503643
22,194.355888810879870403418641559360995,193.2,1.155888810879870403418641559360995
23,212.364920776851253344722067761296803,211.2,1.164920776851253344722067761296803
24,231.173563167460689882340434155138275,230.0,1.173563167460689882340434155138275
25,250.781848284026857665032043407927690,249.6,1.181848284026857665032043407927690
26,271.189804564556913893939918535985271,270.0,1.189804564556913893939918535985271
27,292.397457176709071149164125321169226,291.2,1.197457176709071149164125321169226
28,314.404828501151637223180080362462191,313.2,1.204828501151637223180080362462191
29,337.211938528764967055650995181046137,336.0,1.211938528764967055650995181046137
30,360.818805189483287295678632735723770,359.6,1.218805189483287295678632735723770
31,385.225444626427415518020110765392686,384.0,1.225444626427415518020110765392686
32,410.431871425901496535481053767163548,409.2,1.231871425901496535481053767163548
33,436.438098811517230445869383098482041,435.2,1.238098811517230445869383098482041
34,463.244138808958520785972460880413059,462.0,1.244138808958520785972460880413059
35,490.850002386560276099507870990588782,489.6,1.250002386560276099507870990588782
36,519.255699575841619347601206819412246,518.0,1.255699575841619347601206819412246
37,548.461239575329675041952696295218964,547.2,1.261239575329675041952696295218964
38,578.466630840379685237815587493377844,577.2,1.266630840379685237815587493377844
39,609.271881161199356874474463963120549,608.0,1.271881161199356874474463963120549
40,640.876997730889522167434111079170188,639.6,1.276997730889522167434111079170188
41,673.281987204996443482863769985151780,672.0,1.281987204996443482863769985151780
42,706.486855753816101523381427464429483,705.2,1.286855753816101523381427464429483
43,740.491609108484319309383732107355661,739.2,1.291609108484319309383732107355661
44,775.296252601718480424653951659067928,774.0,1.296252601718480424653951659067928
45,810.900791203939030426009226758343046,809.6,1.300791203939030426009226758343046
46,847.305229555385814034176639949321581,846.0,1.305229555385814034176639949321581
47,884.509571994750824110774474785331528,883.2,1.309571994750824110774474785331528
48,922.513822584771352062042344563837680,921.2,1.313822584771352062042344563837680
49,961.317985135162866766080396025050966,960.0,1.317985135162866766080396025050966
50,1000.92206322321682640671548312583646,999.6,1.32206322321682640671548312583646
51,1041.32606021234316063464894497929742,1040.0,1.32606021234316063464894497929742
52,1082.52997926879881526224900371093427,1081.2,1.32997926879881526224900371093427
53,1124.53382337681130157981135740832134,1123.2,1.33382337681130157981135740832134
54,1167.33759535227863124966096594418084,1166.0,1.33759535227863124966096594418084
55,1210.94129785520354224196091023327655,1209.6,1.34129785520354224196091023327655
56,1255.34493340099984670597306104028829,1254.0,1.34493340099984670597306104028829
57,1300.54850437079153270539973591994163,1299.2,1.34850437079153270539973591994163
58,1346.55201302081045456014750334760065,1345.2,1.35201302081045456014750334760065
59,1393.35546149098569258958170091404528,1392.0,1.35546149098569258958170091404528
60,1440.95885181280663854464013361830016,1439.6,1.35885181280663854464013361830016
61,1489.36218591653229878867172539358916,1488.0,1.36218591653229878867172539358916
62,1538.56546563781100628175405306470850,1537.2,1.36546563781100628175405306470850
63,1588.56869272376749053422452372606316,1587.2,1.36869272376749053422452372606316
64,1639.37186883860794221523910361682103,1638.0,1.37186883860794221523910361682103
65,1690.97499556878817426220070573179182,1689.6,1.37499556878817426220070573179182
66,1743.37807442778513399784619294073718,1742.0,1.37807442778513399784619294073718
67,1796.58110686050775847045592670843407,1795.2,1.38110686050775847045592670843407
68,1850.58409424737940907184191871867198,1849.2,1.38409424737940907184191871867198
69,1905.38703790812080881704442864757967,1904.0,1.38703790812080881704442864757967
70,1960.98993910525947740140339534655191,1959.6,1.38993910525947740140339534655191
71,2017.39279904738906044694031062039708,2016.0,1.39279904738906044694031062039708
72,2074.59561889219965110760679004073311,2073.2,1.39561889219965110760679004073311
73,2132.59839974929814919655285998381496,2131.2,1.39839974929814919655285998381496
74,2191.40114268283588415001553529356973,2190.0,1.40114268283588415001553529356973
75,2251.00384871395909704132546529649760,2249.6,1.40384871395909704132546529649760
76,2311.40651882309642730177440838653751,2310.0,1.40651882309642730177440838653751
77,2372.60915395209624740666833774689502,2371.2,1.40915395209624740666833774689502
78,2434.61175500622552298671094050548763,2433.2,1.41175500622552298671094050548763
79,2497.41432285604082900487016395341629,2496.0,1.41432285604082900487016395341629
80,2561.01685833914121451323610596846667,2559.6,1.41685833914121451323610596846667
81,2625.41936226181175916290202912857532,2624.0,1.41936226181175916290202912857532
82,2690.62183540056590318934684726751443,2689.2,1.42183540056590318934684726751443
83,2756.62427850359394386200781569668676,2755.2,1.42427850359394386200781569668676
84,2823.42669229212446709501608934170450,2822.0,1.42669229212446709501608934170450
85,2891.02907746170492363989415716220793,2889.6,1.42907746170492363989415716220793
86,2959.43143468340704341562489647717224,2958.0,1.43143468340704341562489647717224
87,3028.63376460496232406070212972189886,3027.2,1.43376460496232406070212972189886
88,3098.63606785183240641403689859931200,3097.2,1.43606785183240641403689859931200
89,3169.43834502821876612943219900895579,3168.0,1.43834502821876612943219900895579
90,3241.04059671801580741160964565755877,3239.6,1.44059671801580741160964565755877
91,3313.44282348571112340972086910874127,3312.0,1.44282348571112340972086910874127
92,3386.64502587723639950673731780311733,3385.2,1.44502587723639950673731780311733
93,3460.64720442077217348805652508843977,3459.2,1.44720442077217348805652508843977
94,3535.44935962750942364392480342850610,3534.0,1.44935962750942364392480342850610
95,3611.05149199237073470624731984959028,3609.6,1.45149199237073470624731984959028
96,3687.45360199469358969824009431552838,3686.0,1.45360199469358969824009431552838
97,3764.65569009887815143326884186652945,3763.2,1.45569009887815143326884186652945
98,3842.65775675500172452492490070782344,3841.2,1.45775675500172452492490070782344
99,3921.45980239940193529819934123040268,3920.0,1.45980239940193529819934123040268
100,4001.06182745523052065120030273105750,3999.6,1.46182745523052065120030273105750
101,4081.46383233297948761270411312022822,4080.0,1.46383233297948761270411312022822
102,4162.66581743098127976610968088618090,4161.2,1.46581743098127976610968088618090
103,4244.66778313588447879675275348482307,4243.2,1.46778313588447879675275348482307
104,4327.46972982310646215482624813495466,4326.0,1.46972982310646215482624813495466
105,4411.07165785726434475239593627364560,4409.6,1.47165785726434475239593627364560
106,4495.47356759258544184875707552908700,4494.0,1.47356759258544184875707552908700
107,4580.67545937329841219642214516609300,4579.2,1.47545937329841219642214516609300
108,4666.67733353400616128047548417148714,4665.2,1.47733353400616128047548417148714
109,4753.47919040004151589049644489800816,4752.0,1.47919040004151589049644489800816
110,4841.08103028780661884412761829513776,4839.6,1.48103028780661884412761829513776
111,4929.48285350509692682016618341687998,4928.0,1.48285350509692682016618341687998
112,5018.68466035141064482542294081152523,5017.2,1.48466035141064482542294081152523
113,5108.68645111824437528379952212328406,5107.2,1.48645111824437528379952212328406
114,5199.48822608937571097827792159172520,5198.0,1.48822608937571097827792159172520
115,5291.08998554113346062801393435906851,5289.6,1.48998554113346062801393435906851
116,5383.49172974265614755107785987404799,5382.0,1.49172974265614755107785987404799
117,5476.69345895613939015037905172764448,5475.2,1.49345895613939015037905172764448
118,5570.69517343707273192920535766522306,5569.2,1.49517343707273192920535766522306
119,5665.49687343446645502909215490808208,5664.0,1.49687343446645502909215490808208
120,5761.09855919106888544050073681515294,5759.6,1.49855919106888544050073681515294
121,5857.50023094357465976954156881703202,5856.0,1.50023094357465976954156881703202
122,5954.70188892282440453084513696262104,5953.2,1.50188892282440453084513696262104
123,6052.70353335399624674375112181580762,6051.2,1.50353335399624674375112181580762
124,6151.50516445678955692917797609785450,6150.0,1.50516445678955692917797609785450
125,6251.10678244560129603827186184753471,6249.6,1.50678244560129603827186184753471
126,6351.50838752969532264663636479033623,6350.0,1.50838752969532264663636479033623
127,6452.70997991336499617005797298137153,6451.2,1.50997991336499617005797298137153
128,6554.71155979608938927045246154484092,6553.2,1.51155979608938927045246154484092
129,6657.51312737268341054751918126649299,6656.0,1.51312737268341054751918126649299
130,6761.11468283344212022972300271866162,6759.6,1.51468283344212022972300271866162
131,6865.51622636427950617410559226116080,6864.0,1.51622636427950617410559226116080
132,6970.71775814686197250722687311224644,6969.2,1.51775814686197250722687311224644
133,7076.71927835873678145795361583770890,7075.2,1.51927835873678145795361583770890
134,7183.52078717345567765685319713560595,7182.0,1.52078717345567765685319713560595
135,7291.12228476069390606860810902726036,7289.6,1.52228476069390606860810902726036
136,7399.52377128636483103633642183869467,7398.0,1.52377128636483103633642183869467
137,7508.72524691273035060875983699364679,7507.2,1.52524691273035060875983699364679
138,7618.72671179850728670917033640643776,7617.2,1.52671179850728670917033640643776
139,7729.52816609896992959924084451421534,7728.0,1.52816609896992959924084451421534
140,7841.12960996604889964475704472707608,7839.6,1.52960996604889964475704472707608
141,7953.53104354842648483285753411154040,7952.0,1.53104354842648483285753411154040
142,8066.73246699162860441710240161513095,8065.2,1.53246699162860441710240161513095
143,8180.73388043811354041652108648894764,8179.2,1.53388043811354041652108648894764
144,8295.53528402735757151515327806372894,8294.0,1.53528402735757151515327806372894
145,8411.13667789593763972083765716458395,8409.6,1.53667789593763972083765716458395
146,8527.53806217761117227325225323900984,8526.0,1.53806217761117227325225323900984
147,8644.73943700339317308824422347356573,8643.2,1.53943700339317308824422347356573
148,8762.74080250163069906745352991548562,8761.2,1.54080250163069906745352991548562
149,8881.54215879807482307416069185754242,8880.0,1.54215879807482307416069185754242
150,9001.14350601595018721621163061181604,8999.6,1.54350601595018721621163061181604
151,9121.54484427602224235024875541005138,9120.0,1.54484427602224235024875541005138
152,9242.74617369666226410639295817782181,9241.2,1.54617369666226410639295817782181
153,9364.74749439391023438304434932046447,9363.2,1.54749439391023438304434932046447
154,9487.54880648153567221101765014712982,9486.0,1.54880648153567221101765014712982
155,9611.15011007109649222297838502734400,9609.6,1.55011007109649222297838502734400
156,9735.55140527199596859451594346381502,9734.0,1.55140527199596859451594346381502
157,9860.75269219153787550342949174006731,9859.2,1.55269219153787550342949174006731
158,9986.75397093497987592530035804467377,9985.2,1.55397093497987592530035804467377
159,10113.5552416055852224381563591594762,10112.0,1.5552416055852224381563591594762
160,10241.1565043046728363737379802198529,10239.6,1.5565043046728363737379802198529
161,10369.5577591316658238114574292533253,10368.0,1.5577591316658238114574292533253
162,10498.7590061841384878761221027779114,10497.2,1.5590061841384878761221027779114
163,10628.7602455578618921926918674588065,10627.2,1.5602455578618921926918674588065
164,10759.5614773468480301346352387591256,10758.0,1.5614773468480301346352387591256
165,10891.1627016433926484660722122409311,10889.6,1.5627016433926484660722122409311
166,11023.5639185381167758932625653198633,11022.0,1.5639185381167758932625653198633
167,11156.7651281200070037577291568810617,11155.2,1.5651281200070037577291568810617
168,11290.7663304764545615598998276339349,11289.2,1.5663304764545615598998276339349
169,11425.5675256932932323753285417522991,11424.0,1.5675256932932323753285417522991
170,11561.1687138548361479065815360397708,11559.6,1.5687138548361479065815360397708
171,11697.5698950439115033652193242840683,11696.0,1.5698950439115033652193242840683
172,11834.7710693418972300505024817869649,11833.2,1.5710693418972300505024817869649
173,11972.7722368287546610271220045364378,11971.2,1.5722368287546610271220045364378
174,12111.5733975830612257454382130366660,12110.0,1.5733975830612257454382130366660
175,12251.1745516820422075891312348080652,12249.6,1.5745516820422075891312348080652
176,12391.5756992016015940565857887355998,12390.0,1.5756992016015940565857887355998
177,12532.7768402163520528365177218481687,12531.2,1.5768402163520528365177218481687
178,12674.7779747996440629322084026561553,12673.2,1.5779747996440629322084026561553
179,12817.5791030235942272792626753572411,12816.0,1.5791030235942272792626753572411
180,12961.1802249591127978032591616949481,12959.6,1.5802249591127978032591616949481
181,13105.5813406759304355658488842033752,13104.0,1.5813406759304355658488842033752
182,13250.7824502426242336946573950507211,13249.2,1.5824502426242336946573950507211
183,13396.7835537266430261462341175572715,13395.2,1.5835537266430261462341175572715
184,13543.5846511943320065435545854269914,13542.0,1.5846511943320065435545854269914
185,13691.1857427109566788961685858083408,13689.6,1.5857427109566788961685858083408
186,13839.5868283407261611715830472493887,13838.0,1.5868283407261611715830472493887
187,13988.7879081468158655183464797260443,13987.2,1.5879081468158655183464797260443
188,14138.7889821913895705771187590416848,14137.2,1.5889821913895705771187590416848
189,14289.5900505356209096107830588795849,14288.0,1.5900505356209096107830588795849
190,14441.1911132397142901046437005694022,14439.6,1.5911132397142901046437005694022
191,14593.5921703629252640592274211395491,14592.0,1.5921703629252640592274211395491
192,14746.7932219635803653578560287171436,14745.2,1.5932219635803653578560287171436
193,14900.7942680990964325128027862479133,14899.2,1.5942680990964325128027862479133
194,15055.5953088259994301307789280240931,15054.0,1.5953088259994301307789280240931
195,15211.1963441999427870300722141846322,15209.6,1.5963441999427870300722141846322
196,15367.5973742757252647012000946528221,15366.0,1.5973742757252647012000946528221
197,15524.7983991073083704863606029526420,15523.2,1.5983991073083704863606029526420
198,15682.7994187478333296396219738755924,15681.2,1.5994187478333296396219738755924
199,15841.6004332496376291016663498315870,15840.0,1.6004332496376291016663498315870
200,16001.2014426642711469292483971675615,15999.6,1.6014426642711469292483971675615
201,16161.6024470425118783557474962158279,16160.0,1.6024470425118783557474962158279
202,16322.8034464343812718589246902757719,16321.2,1.6034464343812718589246902757719
203,16484.8044408891591858905662343135621,16483.2,1.6044408891591858905662343135621
204,16647.6054304553984778828751345042198,16646.0,1.6054304553984778828751345042198
205,16811.2064151809392354969225023909780,16809.6,1.6064151809392354969225023909780
206,16975.6073951129226631318555261284501,16974.0,1.6073951129226631318555261284501
207,17140.8083702978046295654873611306961,17139.2,1.6083702978046295654873611306961
208,17306.8093407813688909476733876529690,17305.2,1.6093407813688909476733876529690
209,17473.6103066087399948893012898681233,17472.0,1.6103066087399948893012898681233
210,17641.2112678243958771424937902440789,17639.6,1.6112678243958771424937902440789
211,17809.6122244721801582309802921321164,17808.0,1.6122244721801582309802921321164
212,17978.8131765953141502577593459616099,17977.2,1.6131765953141502577593459616099
213,18148.8141242364085782679396708383746,18147.2,1.6141242364085782679396708383746
214,18319.6150674374750311424431370778822,18318.0,1.6150674374750311424431370778822
215,18491.2160062399371412287941485889897,18489.6,1.6160062399371412287941485889897
216,18663.6169406846415066634457602496902,18662.0,1.6169406846415066634457602496902
217,18836.8178708118683603446777915499772,18835.2,1.6178708118683603446777915499772
218,19010.8187966613419945285095430287441,19009.2,1.6187966613419945285095430287441
219,19185.6197182722409443205558675300316,19184.0,1.6197182722409443205558675300316
220,19361.2206356832079425719469705992964,19359.6,1.6206356832079425719469705992964
221,19537.6215489323596440815942095671911,19536.0,1.6215489323596440815942095671911
222,19714.8224580572961363021598527326800,19713.2,1.6224580572961363021598527326800
223,19892.8233630951102301105541851306902,19891.2,1.6233630951102301105541851306902
224,20071.6242640823965457022503703044820,20070.0,1.6242640823965457022503703044820
225,20251.2251610552603961659517146185143,20249.6,1.6251610552603961659517146185143
226,20431.6260540493264722765440236963862,20430.0,1.6260540493264722765440236963862
227,20612.8269430997473371491715466807585,20611.2,1.6269430997473371491715466807585
228,20794.8278282412117325646276216190078,20793.2,1.6278282412117325646276216190078
229,20977.6287095079527041181951014679815,20976.0,1.6287095079527041181951014679815
230,21161.2295869337555498781647662909259,21159.6,1.6295869337555498781647662909259
231,21345.6304605519655943432858752085775,21344.0,1.6304605519655943432858752085775
232,21530.8313303954957981080532417687341,21529.2,1.6313303954957981080532417687341
233,21716.8321964968341982213187197782519,21715.2,1.6321964968341982213187197782519
234,21903.6330588880511953842763972373348,21902.0,1.6330588880511953842763972373348
235,22091.2339176008066811589045810906212,22089.6,1.6339176008066811589045810906212
236,22279.6347726663570148856158634995631,22278.0,1.6347726663570148856158634995631
237,22468.8356241155618539302250390742419,22467.2,1.6356241155618539302250390742419
238,22658.8364719788908389912282088878893,22657.2,1.6364719788908389912282088878893
