Eigenstate,Energy,Kinetic Energy,Potential Energy
1,0.500000000026368772470942253616330640,0.0,0.500000000026368772470942253616330640
2,1.84623093782323614368588036253542080,1.2,0.64623093782323614368588036253542080
3,3.93633761021056819544409988178327730,3.2,0.73633761021056819544409988178327730
4,6.79966527886732901869512882932116555,6.0,0.79966527886732901869512882932116555
5,10.4480465771098506607440584495971548,9.6,0.8480465771098506607440584495971548
6,14.8870659996929845090005996682239707,14.0,0.8870659996929845090005996682239707
7,20.1197208280549875207326696826729933,19.2,0.9197208280549875207326696826729933
8,26.1477838485728550728879909683484215,25.2,0.9477838485728550728879909683484215
9,32.9723835602528986480721089141511085,32.0,0.9723835602528986480721089141511085
10,40.5942802172437128829090824226007578,39.6,0.9942802172437128829090824226007578
11,49.0140093896863537415170339278301301,48.0,1.0140093896863537415170339278301301
12,58.2319621728854645713668263049898083,57.2,1.0319621728854645713668263049898083
13,68.2484326969068648660676969309147338,67.2,1.0484326969068648660676969309147338
14,79.0636476594337100464354171824044067,78.0,1.0636476594337100464354171824044067
15,90.6777854415806752909624418311933985,89.6,1.0777854415806752909624418311933985
16,103.090988912764400005449305218413741,102.0,1.090988912764400005449305218413741
17,116.303374264164991870277391416494734,115.2,1.103374264164991870277391416494734
18,130.315037259732226197457999757906233,129.2,1.115037259732226197457999757906233
19,145.126057759289523542613215719457433,144.0,1.126057759289523542613215719457433
20,160.736503056167886188977696647481161,159.6,1.136503056167886188977696647481161
21,177.146430383287595384850356677398536,176.0,1.146430383287595384850356677398536
22,194.355888824316951539111243102493783,193.2,1.155888824316951539111243102493783
23,212.364920791608798935456722154802006,211.2,1.164920791608798935456722154802006
24,231.173563183600947944957214334147708,230.0,1.173563183600947944957214334147708
25,250.781848301612101465020287915868535,249.6,1.181848301612101465020287915868535
26,271.189804583649442711676296367394044,270.0,1.189804583649442711676296367394044
27,292.397457197371211091685477748126209,291.2,1.197457197371211091685477748126209
28,314.404828523445742072343879425859598,313.2,1.204828523445742072343879425859598
29,337.211938552753419145695023678686703,336.0,1.211938552753419145695023678686703
30,360.818805215228498414783568648946654,359.6,1.218805215228498414783568648946654
31,385.225444653991827829667116258334814,384.0,1.225444653991827829667116258334814
32,410.431871455347583516293547206238203,409.2,1.231871455347583516293547206238203
33,436.438098842907497837312422541931236,435.2,1.238098842907497837312422541931236
34,463.244138842355507557810164424526559,462.0,1.244138842355507557810164424526559
35,490.850002422026555423328872027724918,489.6,1.250002422026555423328872027724918
36,519.255699613439799579043159459909024,518.0,1.255699613439799579043159459909024
37,548.461239615122400710510478083665685,547.2,1.261239615122400710510478083665685
38,578.466630882429638043319719975691129,577.2,1.266630882429638043319719975691129
39,609.271881205569256689488086254876955,608.0,1.271881205569256689488086254876955
40,640.876997777642128044947430271616937,639.6,1.276997777642128044947430271616937
41,673.281987254194554668770921970163385,672.0,1.281987254194554668770921970163385
42,706.486855805522558473311292324650101,705.2,1.286855805522558473311292324650101
43,740.491609162762004709527384878924375,739.2,1.291609162762004709527384878924375
44,775.296252658630320216290162183548202,774.0,1.296252658630320216290162183548202
45,810.900791263547994833478187066888003,809.6,1.300791263547994833478187066888003
46,847.305229617754918596092760315424005,846.0,1.305229617754918596092760315424005
47,884.509572059943130714303151312217724,883.2,1.309572059943130714303151312217724
48,922.513822652849969980094290095392388,921.2,1.313822652849969980094290095392388
49,961.317985206190953697301341024724092,960.0,1.317985206190953697301341024724092
50,1000.92206329725758951816961930105996,999.6,1.32206329725758951816961930105996
51,1041.32606028945985760711200755340450,1040.0,1.32606028945985760711200755340450
52,1082.52997934905475533804185781884915,1081.2,1.32997934905475533804185781884915
53,1124.53382346026984661311780095854375,1123.2,1.33382346026984661311780095854375
54,1167.33759543900319675928454029669523,1166.0,1.33759543900319675928454029669523
55,1210.94129794525759846648505811520841,1209.6,1.34129794525759846648505811520841
56,1255.34493349444691966129727914873678,1254.0,1.34493349444691966129727914873678
57,1300.54850446769520524463154474234455,1299.2,1.34850446769520524463154474234455
58,1346.55201312123436743583639558903193,1345.2,1.35201312123436743583639558903193
59,1393.35546159499354551828668033279682,1392.0,1.35546159499354551828668033279682
60,1440.95885192046219127382731904012782,1439.6,1.35885192046219127382731904012782
61,1489.36218602789937216594272771759943,1488.0,1.36218602789937216594272771759943
62,1538.56546575295348332640959957336328,1537.2,1.36546575295348332640959957336328
63,1588.56869284274931751117111729110954,1587.2,1.36869284274931751117111729110954
64,1639.37186896149312971124944045101111,1638.0,1.37186896149312971124944045101111
65,1690.97499569564079826454123244857540,1689.6,1.37499569564079826454123244857540
66,1743.37807455866933697528750018541293,1742.0,1.37807455866933697528750018541293
67,1796.58110699548775045668378081425919,1795.2,1.38110699548775045668378081425919
68,1850.58409438651946875128862332899328,1849.2,1.38409438651946875128862332899328
69,1905.38703805148528461316191576410611,1904.0,1.38703805148528461316191576410611
70,1960.98993925291278856740092544367993,1959.6,1.38993925291278856740092544367993
71,2017.39279919939569815901113306583503,2016.0,1.39279919939569815901113306583503
72,2074.59561904862417956066928415835276,2073.2,1.39561904862417956066928415835276
73,2132.59839991020520670253289257478448,2131.2,1.39839991020520670253289257478448
74,2191.40114284829018423869778141946998,2190.0,1.40114284829018423869778141946998
75,2251.00384888402542956380242407575844,2249.6,1.40384888402542956380242407575844
76,2311.40651899783965953652269524084972,2310.0,1.40651899783965953652269524084972
77,2372.60915413158132516828267907418625,2371.2,1.40915413158132516828267907418625
78,2434.61175519051747173732703402043669,2433.2,1.41175519051747173732703402043669
79,2497.41432304520475496830827322968599,2496.0,1.41432304520475496830827322968599
80,2561.01685853324230579189788832970688,2559.6,1.41685853324230579189788832970688
81,2625.41936246091528685745373134899804,2624.0,1.41936246091528685745373134899804
82,2690.62183560473722252122254708577448,2689.2,1.42183560473722252122254708577448
83,2756.62427871289849529876693169437219,2755.2,1.42427871289849529876693169437219
84,2823.42669250662777747858987625668438,2822.0,1.42669250662777747858987625668438
85,2891.02907768147260731775639247781320,2889.6,1.42907768147260731775639247781320
86,2959.43143490850480337492239566293326,2958.0,1.43143490850480337492239566293326
87,3028.63376483545595306538117382930744,3027.2,1.43376483545595306538117382930744
88,3098.63606808778778814500206085498339,3097.2,1.43606808778778814500206085498339
89,3169.43834526970187632777444836809459,3168.0,1.43834526970187632777444836809459
90,3241.04059696509271502494097063901791,3239.6,1.44059696509271502494097063901791
91,3313.44282373844799174165305397720466,3312.0,1.44282373844799174165305397720466
92,3386.64502613569948736954282079545140,3385.2,1.44502613569948736954282079545140
93,3460.64720468502783635854977879845714,3459.2,1.44720468502783635854977879845714
94,3535.44935989762411482260255909557600,3534.0,1.44935989762411482260255909557600
95,3611.05149226841100647972700315481368,3609.6,1.45149226841100647972700315481368
96,3687.45360227672609450503541445396679,3686.0,1.45360227672609450503541445396679
97,3764.65569038696964303294225972589704,3763.2,1.45569038696964303294225972589704
98,3842.65775704921905917065679232955688,3841.2,1.45775704921905917065679232955688
99,3921.45980269981207291281405387691682,3920.0,1.45980269981207291281405387691682
100,4001.06182776190052600668953484800828,3999.6,1.46182776190052600668953484800828
101,4081.46383264597653151328837464011574,4080.0,1.46383264597653151328837464011574
102,4162.66581775037264023487885312726691,4161.2,1.46581775037264023487885312726691
103,4244.66778346173754226592703400705855,4243.2,1.46778346173754226592703400705855
104,4327.46973015548872465967909307928896,4326.0,1.46973015548872465967909307928896
105,4411.07165819624341312888082738433479,4409.6,1.47165819624341312888082738433479
106,4495.47356793822903493488024511179858,4494.0,1.47356793822903493488024511179858
107,4580.67545972567436203740366982361573,4579.2,1.47545972567436203740366982361573
108,4666.67733389318241433774139237771903,4665.2,1.47733389318241433774139237771903
109,4753.47919076608613425454479907177111,4752.0,1.47919076608613425454479907177111
110,4841.08103066078778145131177401017455,4839.6,1.48103066078778145131177401017455
111,4929.48285388508293067343870248129146,4928.0,1.48285388508293067343870248129146
112,5018.68466073846990621908390967649146,5017.2,1.48466073846990621908390967649146
113,5108.68645151244543103229328362002356,5107.2,1.48645151244543103229328362002356
114,5199.48822649078721964908252480021701,5198.0,1.48822649078721964908252480021701
115,5291.08998594982420377866784990182564,5289.6,1.48998594982420377866784990182564
116,5383.49173015869503097038880058327259,5382.0,1.49173015869503097038880058327259
117,5476.69345937959544510385999780793425,5475.2,1.49345937959544510385999780793425
118,5570.69517386801511640878316797592839,5569.2,1.49517386801511640878316797592839
119,5665.49687387296445500713442064580274,5664.0,1.49687387296445500713442064580274
120,5761.09855963719191612820680468357069,5759.6,1.49855963719191612820680468357069
121,5857.50023139739226687974395257810665,5856.0,1.50023139739226687974395257810665
122,5954.70188938440626554526780290282481,5953.2,1.50188938440626554526780290282481
123,6052.70353382341217218477142713410659,6051.2,1.50353382341217218477142713410659
124,6151.50516493410949163613930735239874,6150.0,1.50516493410949163613930735239874
125,6251.10678293089532044839433522481886,6249.6,1.50678293089532044839433522481886
126,6351.50838802303365408057320241253938,6350.0,1.50838802303365408057320241253938
127,6452.70998041481799012214548798694651,6451.2,1.50998041481799012214548798694651
128,6554.71156030572754070370187722037429,6553.2,1.51156030572754070370187722037429
129,6657.51312789057735519339877739256366,6656.0,1.51312789057735519339877739256366
130,6761.11468335966263589277941313739853,6759.6,1.51468335966263589277941313739853
131,6865.51622689889751404147334981263508,6864.0,1.51622689889751404147334981263508
132,6970.71775868994853846307565070451500,6969.2,1.51775868994853846307565070451500
133,7076.71927891036311740292281828395264,7075.2,1.51927891036311740292281828395264
134,7183.52078773369314283252398397202803,7182.0,1.52078773369314283252398397202803
135,7291.12228532961400838706320106765212,7289.6,1.52228532961400838706320106765212
136,7399.52377186403922841485828195390486,7398.0,1.52377186403922841485828195390486
137,7508.72524749923085230971823521679448,7507.2,1.52524749923085230971823521679448
138,7618.72671239390585468515058335861754,7617.2,1.52671239390585468515058335861754
139,7729.52816670333867984346432079598287,7728.0,1.52816670333867984346432079598287
140,7841.12961057946010354684594808061535,7839.6,1.52961057946010354684594808061535
141,7953.53104417095257053999608474383483,7952.0,1.53104417095257053999608474383483
142,8066.73246762334215820064718852925709,8065.2,1.53246762334215820064718852925709
143,8180.73388107908730804411337777851331,8179.2,1.53388107908730804411337777851331
144,8295.53528467766445962838669428860605,8294.0,1.53528467766445962838669428860605
145,8411.13667855565071721853475646432823,8409.6,1.53667855565071721853475646432823
146,8527.53806284680367170040398522467550,8526.0,1.53806284680367170040398522467550
147,8644.73943768213849203066661704543326,8643.2,1.53943768213849203066661704543326
148,8762.74080319000240155221623786640835,8761.2,1.54080319000240155221623786640835
149,8881.54215949614664097584242144197491,8880.0,1.54215949614664097584242144197491
150,9001.14350672379602166903785623349681,8999.6,1.54350672379602166903785623349681
151,9121.54484499371616516616748597505231,9120.0,1.54484499371616516616748597505231
152,9242.74617442427851919914462767292304,9241.2,1.54617442427851919914462767292304
153,9364.74749513152323919828235574695721,9363.2,1.54749513152323919828235574695721
154,9487.54880722922001916253636851424099,9486.0,1.54880722922001916253636851424099
155,9611.15011082892695013510590719512163,9609.6,1.55011082892695013510590719512163
156,9735.55140604004748415072920572399272,9734.0,1.55140604004748415072920572399272
157,9860.75269296988557470124976542222034,9859.2,1.55269296988557470124976542222034
158,9986.75397172369906553752747363088391,9985.2,1.55397172369906553752747363088391
159,10113.5552424047513914805005327373380,10112.0,1.5552424047513914805005327373380
160,10241.1565051143616575789083769278423,10239.6,1.5565051143616575789083769278423
161,10369.5577599519531551097670884359446,10368.0,1.5577599519531551097670884359446
162,10498.7590070151003738826692398052879,10497.2,1.5590070151003738826692398052879
163,10628.7602463995745657011779099257041,10627.2,1.5602463995745657011779099257041
164,10759.5614781993879136178804862563964,10758.0,1.5614781993879136178804862563964
165,10891.1627025068363555832903699487732,10889.6,1.5627025068363555832903699487732
166,11023.5639194125411130041557844379179,11022.0,1.5639194125411130041557844379179
167,11156.7651290054889714434656964614581,11155.2,1.5651290054889714434656964614581
168,11290.7663313730713561510369171276016,11289.2,1.5663313730713561510369171276016
169,11425.5675266011222474867433255066650,11424.0,1.5675266011222474867433255066650
170,11561.1687147739549759794736342659260,11559.6,1.5687147739549759794736342659260
171,11697.5698959743979372162487652246018,11696.0,1.5698959743979372162487652246018
172,11834.7710702838292644281273928370986,11833.2,1.5710702838292644281273928370986
173,11972.7722377822104941752007581417368,11971.2,1.5722377822104941752007581417368
174,12111.5733985481192609741613179246251,12110.0,1.5733985481192609741613179246251
175,12251.1745526587810548533486410269980,12249.6,1.5745526587810548533486410269980
176,12391.5757001901000715415957673335761,12390.0,1.5757001901000715415957673335761
177,12532.7768412166891885513839535698495,12531.2,1.5768412166891885513839535698495
178,12674.7779758118990963106724017203910,12673.2,1.5779758118990963106724017203910
179,12817.5791040478466107883191533447672,12816.0,1.5791040478466107883191533447672
180,12961.1802259954421985594624040444840,12959.6,1.5802259954421985594624040444840
181,13105.5813417244167369594187540960646,13104.0,1.5813417244167369594187540960646
182,13250.7824513033475370214540285835678,13249.2,1.5824513033475370214540285835678
183,13396.7835547996836522476709012511864,13395.2,1.5835547996836522476709012511864
184,13543.5846522797704974545195525572240,13542.0,1.5846522797704974545195525572240
185,13691.1857438088737995010248033623276,13689.6,1.5857438088737995010248033623276
186,13839.5868294512029008683191372162263,13838.0,1.5868294512029008683191372162263
187,13988.7879092699334398909489721688435,13987.2,1.5879092699334398909489721688435
188,14138.7889833272294230762384526287965,14137.2,1.5889833272294230762384526287965
189,14289.5900516842647132427681090880172,14288.0,1.5900516842647132427681090880172
190,14441.1911144012439491290127306686177,14439.6,1.5911144012439491290127306686177
191,14593.5921715374229156946564726624881,14592.0,1.5921715374229156946564726624881
192,14746.7932231511283814967537335850671,14745.2,1.5932231511283814967537335850671
193,14900.7942692997774214445486866954529,14899.2,1.5942692997774214445486866954529
194,15055.5953100398962382737004614426444,15054.0,1.5953100398962382737004614426444
195,15211.1963454271385006722364376956701,15209.6,1.5963454271385006722364376956701
196,15367.5973755163032117500967681881398,15366.0,1.5973755163032117500967681881398
197,15524.7984003613521222275539283666064,15523.2,1.5984003613521222275539283666064
198,15682.7994200154267025044487459893020,15681.2,1.5994200154267025044487459893020
199,15841.6004345308646864440589925453218,15840.0,1.6004345308646864440589925453218
200,16001.2014439592162008117618766724913,15999.6,1.6014439592162008117618766724913
201,16161.6024483512594913448697239041970,16160.0,1.6024483512594913448697239041970
202,16322.8034477570162588297507163678500,16321.2,1.6034477570162588297507163678500
203,16484.8044422257666158409170267744285,16483.2,1.6044422257666158409170267744285
204,16647.6054318060636757569424905677435,16646.0,1.6054318060636757569424905677435
205,16811.2064165457477840185221593610793,16809.6,1.6064165457477840185221593610793
206,16975.6073964919604046473713009550944,16974.0,1.6073964919604046473713009550944
207,17140.8083716911576678965896254972933,17139.2,1.6083716911576678965896254972933
208,17306.8093421891235932538960525194876,17305.2,1.6093421891235932538960525194876
209,17473.6103080309829935405619504888135,17472.0,1.6103080309829935405619504888135
210,17641.2112692612140716016424391423185,17639.6,1.6112692612140716016424391423185
211,17809.6122259236607169464626605453220,17808.0,1.6122259236607169464626605453220
212,17978.8131780615445125664815901826484,17977.2,1.6131780615445125664815901826484
213,18148.8141257174764563084218944313241,18147.2,1.6141257174764563084218944313241
214,18319.6150689334684117783497882057697,18318.0,1.6150689334684117783497882057697
215,18491.2160077509442879829301723484028,18489.6,1.6160077509442879829301723484028
216,18663.6169422107509616623080547655022,18662.0,1.6169422107509616623080547655022
217,18836.8178723531689462736521473743757,18835.2,1.6178723531689462736521473743757
218,19010.8187982179228165978040845305101,19009.2,1.6187982179228165978040845305101
219,19185.6197198441913922419627416181240,19184.0,1.6197198441913922419627416181240
220,19361.2206372706176925465246152675692,19359.6,1.6206372706176925465246152675692
221,19537.6215505353186607983634880663579,19536.0,1.6215505353186607983634880663579
222,19714.8224596758946749479079726605169,19713.2,1.6224596758946749479079726605169
223,19892.8233647294388383908410829871644,19891.2,1.6233647294388383908410829871644
224,20071.6242657325460658737130714037369,20070.0,1.6242657325460658737130714037369
225,20251.2251627213219670800028636100527,20249.6,1.6251627213219670800028636100527
226,20431.6260557313915314345617075993993,20430.0,1.6260557313915314345617075993993
227,20612.8269447979076227692781817551965,20611.2,1.6269447979076227692781817551965
228,20794.8278299555592856601565296279448,20793.2,1.6278299555592856601565296279448
229,20977.6287112385798705879443072612228,20976.0,1.6287112385798705879443072612228
230,21161.2295886807549826085381788418440,21159.6,1.6295886807549826085381788418440
231,21345.6304623154302553224229945183660,21344.0,1.6304623154302553224229945183660
232,21530.8313321755189605520493100839669,21529.2,1.6313321755189605520493100839669
233,21716.8321982935094487126380984314856,21715.2,1.6321982935094487126380984314856
234,21903.6330607014724360224627860791132,21902.0,1.6330607014724360224627860791132
235,22091.2339194310681317236925797179895,22089.6,1.6339194310681317236925797179895
236,22279.6347745135532150125492127910079,22278.0,1.6347745135532150125492127910079
237,22468.8356259797876652988878233599561,22467.2,1.6356259797876652988878233599561
238,22658.8364738602414475261961056202049,22657.2,1.6364738602414475261961056202049
