Eigenstate,Energy,Kinetic Energy,Potential Energy
1,0.500000000078247404791173066841140560,0.0,0.500000000078247404791173066841140560
2,1.84623093816187379422445852491137240,1.2,0.64623093816187379422445852491137240
3,3.93633761120529341442202173911472254,3.2,0.73633761120529341442202173911472254
4,6.79966528093924075308100264591820718,6.0,0.79966528093924075308100264591820718
5,10.4480465806988537730939935900304142,9.6,0.8480465806988537730939935900304142
6,14.8870660052467004675262609659848231,14.0,0.8870660052467004675262609659848231
7,20.1197208360246707194585792310163314,19.2,0.9197208360246707194585792310163314
8,26.1477838594116918133829820430006346,25.2,0.9477838594116918133829820430006346
9,32.9723835744152180433606398648328005,32.0,0.9723835744152180433606398648328005
10,40.5942802351845880880255140606371909,39.6,0.9942802351845880880255140606371909
11,49.0140094118613869342656288221956148,48.0,1.0140094118613869342656288221956148
12,58.2319621997506655716215641677926166,57.2,1.0319621997506655716215641677926166
13,68.2484327289185807344742900983060602,67.2,1.0484327289185807344742900983060602
14,79.0636476970485840240928415080581635,78.0,1.0636476970485840240928415080581635
15,90.6777854852556234422497085294575489,89.6,1.0777854852556234422497085294575489
16,103.090988962956598983426138549292745,102.0,1.090988962956598983426138549292745
17,116.303374321331873919552413836152265,115.2,1.103374321331873919552413836152265
18,130.315037324331479013100744671259881,129.2,1.115037324331479013100744671259881
19,145.126057831779093476636246744577653,144.0,1.126057831779093476636246744577653
20,160.736503137005983820797039275899284,159.6,1.136503137005983820797039275899284
21,177.146430472932702797697812743077312,176.0,1.146430472932702797697812743077312
22,194.355888923227830851985235790629788,193.2,1.155888923227830851985235790629788
23,212.364920900244501775925066896346267,211.2,1.164920900244501775925066896346267
24,231.173563302420825638865931326400877,230.0,1.173563302420825638865931326400877
25,250.781848431075815781070352305429903,249.6,1.181848431075815781070352305429903
26,271.189804724216977041852429837683537,270.0,1.189804724216977041852429837683537
27,292.397457349502881978926374845732222,291.2,1.197457349502881978926374845732222
28,314.404828687602211018665508271691501,313.2,1.204828687602211018665508271691501
29,337.211938729395704649864258638976428,336.0,1.211938729395704649864258638976428
30,360.818805404817988200355530345702417,359.6,1.218805404817988200355530345702417
31,385.225444856990291232945708775622804,384.0,1.225444856990291232945708775622804
32,410.431871672217184010377220821627050,409.2,1.231871672217184010377220821627050
33,436.438099074110805673423858038667438,435.2,1.238099074110805673423858038667438
34,463.244139088355512508988195235099865,462.0,1.244139088355512508988195235099865
35,490.850002683286679618576705961652562,489.6,1.250002683286679618576705961652562
36,519.255699890423910418391133966989274,518.0,1.255699890423910418391133966989274
37,548.461239908294823853320024212284827,547.2,1.261239908294823853320024212284827
38,578.466631192255170463642840619298476,577.2,1.266631192255170463642840619298476
39,609.271881532513179793489661302547279,608.0,1.271881532513179793489661302547279
40,640.876998122170220846360881807864810,639.6,1.276998122170220846360881807864810
41,673.281987616773107019140288048851789,672.0,1.281987616773107019140288048851789
42,706.486856186618384344412523206120807,705.2,1.286856186618384344412523206120807
43,740.491609562842455525887705123542455,739.2,1.291609562842455525887705123542455
44,775.296253078163298236159162232267271,774.0,1.296253078163298236159162232267271
45,810.900791703001966576965777658709366,809.6,1.300791703001966576965777658709366
46,847.305230077598928319491171088757652,846.0,1.305230077598928319491171088757652
47,884.509572540646813929863596468240863,883.2,1.309572540646813929863596468240863
48,922.513823154883567020742898625886969,921.2,1.313823154883567020742898625886969
49,961.317985730025323325960208710240222,960.0,1.317985730025323325960208710240222
50,1000.92206384336422258150311471690399,999.6,1.32206384336422258150311471690399
51,1041.32606085831089073365060297133161,1040.0,1.32606085831089073365060297133161
52,1082.52997994112298468074906176492635,1081.2,1.32997994112298468074906176492635
53,1124.53382407602874163656359532795924,1123.2,1.33382407602874163656359532795924
54,1167.33759607892691407167356074049198,1166.0,1.33759607892691407167356074049198
55,1210.94129860982099569686151570753657,1209.6,1.34129860982099569686151570753657
56,1255.34493418412556938231308200551226,1254.0,1.34493418412556938231308200551226
57,1300.54850518296540894132067434112647,1299.2,1.34850518296540894132067434112647
58,1346.55201386257316952088865669685996,1345.2,1.35201386257316952088865669685996
59,1393.35546236287874739435793647661231,1392.0,1.35546236287874739435793647661231
60,1440.95885271537236544346283248795109,1439.6,1.35885271537236544346283248795109
61,1489.36218685031387638972527946625081,1488.0,1.36218685031387638972527946625081
62,1538.56546660335247482997575850129074,1537.2,1.36546660335247482997575850129074
63,1588.56869372161376724176738624551887,1587.2,1.36869372161376724176738624551887
64,1639.37186986930483664452586057619055,1638.0,1.37186986930483664452586057619055
65,1690.97499663288240376230363639205081,1689.6,1.37499663288240376230363639205081
66,1743.37807552582433919495105514453358,1742.0,1.37807552582433919495105514453358
67,1796.58110799304051881319029657952397,1795.2,1.38110799304051881319029657952397
68,1850.58409541495525843226841113554455,1849.2,1.38409541495525843226841113554455
69,1905.38703911129025114813816113418664,1904.0,1.38703911129025114813816113418664
70,1960.98994034457400245185011906449185,1959.6,1.38994034457400245185011906449185
71,2017.39280032340115953410843901934879,2016.0,1.39280032340115953410843901934879
72,2074.59562020546283294956139401612356,2073.2,1.39562020546283294956139401612356
73,2132.59840110036695580399459497321229,2131.2,1.39840110036695580399459497321229
74,2191.40114407226590677904094136259083,2190.0,1.40114407226590677904094136259083
75,2251.00385014230699220791840317529616,2249.6,1.40385014230699220791840317529616
76,2311.40652029091993285895067364151420,2310.0,1.40652029091993285895067364151420
77,2372.60915545995419868520780102598578,2371.2,1.40915545995419868520780102598578
78,2434.61175655467786900042310260693774,2433.2,1.41175655467786900042310260693774
79,2497.41432444564864872135036209129588,2496.0,1.41432444564864872135036209129588
80,2561.01685997046673319108042538055204,2559.6,1.41685997046673319108042538055204
81,2625.41936393541836475635989535441120,2624.0,1.41936393541836475635989535441120
82,2690.62183711701816282140066484588661,2689.2,1.42183711701816282140066484588661
83,2756.62428026345762036687927148500057,2755.2,1.42428026345762036687927148500057
84,2823.42669409596653563110897589081664,2822.0,1.42669409596653563110897589081664
85,2891.02907931009358837419359321268781,2889.6,1.42907931009358837419359321268781
86,2959.43143657691175428058259691422773,2958.0,1.43143657691175428058259691422773
87,3028.63376654415379358464742839410325,3027.2,1.43376654415379358464742839410325
88,3098.63606983728262662616287013706886,3097.2,1.43606983728262662616287013706886
89,3169.43834706050102554041600495484138,3168.0,1.43834706050102554041600495484138
90,3241.04059879770470807093587247405957,3239.6,1.44059879770470807093587247405957
91,3313.44282561338259804078654038431709,3312.0,1.44282561338259804078654038431709
92,3386.64502805346772872082673126098182,3385.2,1.44502805346772872082673126098182
93,3460.64720664614200307828397173023364,3459.2,1.44720664614200307828397173023364
94,3535.44936190259778196025295591720872,3534.0,1.44936190259778196025295591720872
95,3611.05149431775905011269883966466090,3609.6,1.45149431775905011269883966466090
96,3687.45360437096470811342988497884734,3686.0,1.45360437096470811342988497884734
97,3764.65569252661635395539439403646669,3763.2,1.45569252661635395539439403646669
98,3842.65775923479274514236192008552345,3841.2,1.45775923479274514236192008552345
99,3921.45980493183297868686024835874371,3920.0,1.45980493183297868686024835874371
100,4001.06183004089028005982300947156189,3999.6,1.46183004089028005982300947156189
101,4081.46383497245816283724897416918530,4080.0,1.46383497245816283724897416918530
102,4162.66582012487059521445269778768370,4161.2,1.46582012487059521445269778768370
103,4244.66778588477770164487344327593572,4243.2,1.46778588477770164487344327593572
104,4327.46973262759842059569951770460852,4326.0,1.46973262759842059569951770460852
105,4411.07166071795144633880752007041395,4409.6,1.47166071795144633880752007041395
106,4495.47357051006569193127311737147194,4494.0,1.47357051006569193127311737147194
107,4580.67546234817143245775423543823925,4579.2,1.47546234817143245775423543823925
108,4666.67733656687320836749361699814558,4665.2,1.47733656687320836749361699814558
109,4753.47919349150550014515346288905800,4752.0,1.47919349150550014515346288905800
110,4841.08103343847212313456994407014608,4839.6,1.48103343847212313456994407014608
111,4929.48285671557022547331702171533138,4928.0,1.48285671557022547331702171533138
112,5018.68466362229972266233583959983954,5017.2,1.48466362229972266233583959983954
113,5108.68645445015894675909175152459836,5107.2,1.48645445015894675909175152459836
114,5199.48822948292723942496506551295886,5198.0,1.48822948292723942496506551295886
115,5291.08998899693517760907900946276917,5289.6,1.48998899693517760907900946276917
116,5383.49173326132307231912052508870921,5382.0,1.49173326132307231912052508870921
117,5476.69346253828834921670277594681303,5475.2,1.49346253828834921670277594681303
118,5570.69517708332237874371279879949028,5569.2,1.49517708332237874371279879949028
119,5665.49687714543728977237176672280231,5664.0,1.49687714543728977237176672280231
120,5761.09856296738327492950050252596113,5759.6,1.49856296738327492950050252596113
121,5857.50023478585685747823852086362881,5856.0,1.50023478585685747823852086362881
122,5954.70189283170057072733271423642415,5953.2,1.50189283170057072733271423642415
123,6052.70353733009446874517966767981164,6051.2,1.50353733009446874517966767981164
124,6151.50516850073986947599715057192613,6150.0,1.50516850073986947599715057192613
125,6251.10678655803570178923760400270885,6249.6,1.50678655803570178923760400270885
126,6351.50839171124781279605884016737654,6350.0,1.50839171124781279605884016737654
127,6452.70998416467157118878098308203151,6451.2,1.50998416467157118878098308203151
128,6554.71156411778807977206927974057720,6553.2,1.51156411778807977206927974057720
129,6657.51313176541429828134409197996276,6656.0,1.51313176541429828134409197996276
130,6761.11468729784735920205250113250609,6759.6,1.51468729784735920205250113250609
131,6865.51623090100334389931804347443778,6864.0,1.51623090100334389931804347443778
132,6970.71776275655077139028504245410528,6969.2,1.51776275655077139028504245410528
133,7076.71928304203904030988882868044462,7075.2,1.51928304203904030988882868044462
134,7183.52079193102205334482626257161133,7182.0,1.52079193102205334482626257161133
135,7291.12228959317723530215762866380630,7289.6,1.52228959317723530215762866380630
136,7399.52377619442015229144072520180764,7398.0,1.52377619442015229144072520180764
137,7508.72525189701492619135541116604481,7507.2,1.52525189701492619135541116604481
138,7618.72671685968062495978581157505174,7617.2,1.52671685968062495978581157505174
139,7729.52817123769380724042227558048569,7728.0,1.52817123769380724042227558048569
140,7841.12961518298738427297714361332955,7839.6,1.52961518298738427297714361332955
141,7953.53104884424595755661835531770299,7952.0,1.53104884424595755661835531770299
142,8066.73247236699778264295880835240576,8065.2,1.53247236699778264295880835240576
143,8180.73388589370350078476935867393137,8179.2,1.53388589370350078476935867393137
144,8295.53528956384177298694760892341662,8294.0,1.53528956384177298694760892341662
145,8411.13668351399194681851487006152534,8409.6,1.53668351399194681851487006152534
146,8527.53806787791387847566379731321925,8526.0,1.53806787791387847566379731321925
147,8644.73944278662502438291289443297434,8643.2,1.53944278662502438291289443297434
148,8762.74080836847491766139122814236628,8761.2,1.54080836847491766139122814236628
149,8881.54216474921713126520293322128064,8880.0,1.54216474921713126520293322128064
150,9001.14351205207883142674322790458094,8999.6,1.54351205207883142674322790458094
151,9121.54485039782801732521586595281602,9120.0,1.54485039782801732521586595281602
152,9242.74617990483853727751552065886767,9241.2,1.54617990483853727751552065886767
153,9364.74750068915297040116393649372672,9363.2,1.54750068915297040116393649372672
154,9487.54881286454345764853579941286147,9486.0,1.54881286454345764853579941286147
155,9611.15011654257056044836150236963987,9609.6,1.55011654257056044836150236963987
156,9735.55141183264022482086424273479472,9734.0,1.55141183264022482086424273479472
157,9860.75269884205892201312817091060468,9859.2,1.55269884205892201312817091060468
158,9986.75397767608703747279348534146350,9985.2,1.55397767608703747279348534146350
159,10113.5552484379905718329057190093883,10112.0,1.5552484379905718329057190093883
160,10241.1565112290912202454514653522403,10239.6,1.5565112290912202454514653522403
161,10369.5577661488148885596943045637517,10368.0,1.5577661488148885596943045637517
162,10498.7590132947387058064054521542507,10497.2,1.5590132947387058064054521542507
163,10628.7602527626365878412813362929335,10627.2,1.5602527626365878412813362929335
164,10759.5614846465234067841375990271920,10758.0,1.5614846465234067841375990271920
165,10891.1627090386978148540908485264513,10889.6,1.5627090386978148540908485264513
166,11023.5639260297837731163109614859409,11022.0,1.5639260297837731163109614859409
167,11156.7651357087708323726585907960826,11155.2,1.5651357087708323726585907960826
168,11290.7663381630532088851164426687019,11289.2,1.5663381630532088851164426687019
169,11425.5675334784676999940997558772597,11424.0,1.5675334784676999940997558772597
170,11561.1687217393304793747584369911914,11559.6,1.5687217393304793747584369911914
171,11697.5699030284728121257267120020406,11696.0,1.5699030284728121257267120020406
172,11834.7710774272757275569755959567197,11833.2,1.5710774272757275569755959567197
173,11972.7722450157036850790950661628937,11971.2,1.5722450157036850790950661628937
174,12111.5734058723372690375176996058537,12110.0,1.5734058723372690375176996058537
175,12251.1745600744049464766140196390438,12249.6,1.5745600744049464766140196390438
176,12391.5757076978139175400106665110009,12390.0,1.5757076978139175400106665110009
177,12532.7768488171800917676667370462401,12531.2,1.5768488171800917676667370462401
178,12674.7779835058572194441037605197597,12673.2,1.5779835058572194441037605197597
179,12817.5791118359652044427337762789315,12816.0,1.5791118359652044427337762789315
180,12961.1802338784176295126843644062968,12959.6,1.5802338784176295126843644062968
181,13105.5813497029485166567063648686763,13104.0,1.5813497029485166567063648686763
182,13250.7824593781383502955500759540970,13249.2,1.5824593781383502955500759540970
183,13396.7835629714393862680846861044372,13395.2,1.5835629714393862680846861044372
184,13543.5846605492002709086978263378406,13542.0,1.5846605492002709086978263378406
185,13691.1857521766899920101008514333590,13689.6,1.5857521766899920101008514333590
186,13839.5868379181211826401593776221301,13838.0,1.5868379181211826401593776221301
187,13988.7879178366728016132505017082560,13987.2,1.5879178366728016132505017082560
188,14138.7889919945122060524626669643573,14137.2,1.5889919945122060524626669643573
189,14289.5900604528166397737290956982527,14288.0,1.5900604528166397737290956982527
190,14441.1911232717941531429723860578341,14439.6,1.5911232717941531429723860578341
191,14593.5921805107039736288134652850685,14592.0,1.5921805107039736288134652850685
192,14746.7932322278763434330469786710468,14745.2,1.5932322278763434330469786710468
193,14900.7942784807318425027320911268093,14899.2,1.5942784807318425027320911268093
194,15055.5953193258002102646805348932558,15054.0,1.5953193258002102646805348932558
195,15211.1963548187386840147017994347463,15209.6,1.5963548187386840147017994347463
196,15367.5973850143498676535040547115335,15366.0,1.5973850143498676535040547115335
197,15524.7984099665991451445729669514897,15523.2,1.5984099665991451445729669514897
198,15682.7994297286316528560070321471937,15681.2,1.5994297286316528560070321471937
199,15841.6004443527888236201644560187208,15840.0,1.6004443527888236201644560187208
200,16001.2014538906245164513216942146957,15999.6,1.6014538906245164513216942146957
201,16161.6024583929207428977619455141909,16160.0,1.6024583929207428977619455141909
202,16322.8034579097030034044472417231545,16321.2,1.6034579097030034044472417231545
203,16484.8044524902552443409952406984760,16483.2,1.6044524902552443409952406984760
204,16647.6054421831344473098656973449139,16646.0,1.6054421831344473098656973449139
205,16811.2064270361848607001103061334883,16809.6,1.6064270361848607001103061334883
206,16975.6074070965518865054259819724593,16974.0,1.6074070965518865054259819724593
207,17140.8083824106956282771813563911839,17139.2,1.6083824106956282771813563911839
208,17306.8093530244041144338645860570897,17305.2,1.6093530244041144338645860570897
209,17473.6103189828062026698261530441048,17472.0,1.6103189828062026698261530441048
210,17641.2112803303841769589605448445050,17639.6,1.6112803303841769589605448445050
211,17809.6122371109860445123298241927253,17808.0,1.6122371109860445123298241927253
212,17978.8131893678375429168986987774690,17977.2,1.6131893678375429168986987774690
213,18148.8141371435538618333164704886335,18147.2,1.6141371435538618333164704886335
214,18319.6150804801510942284778466754457,18318.0,1.6150804801510942284778466754457
215,18491.2160194190574163491367655757632,18489.6,1.6160194190574163491367655757632
216,18663.6169540011240103910738473220615,18662.0,1.6169540011240103910738473220615
217,18836.8178842666357338229031661941128,18835.2,1.6178842666357338229031661941128
218,19010.8188102553215443370128627307175,19009.2,1.6188102553215443370128627307175
219,19185.6197320063646837006214556701959,19184.0,1.6197320063646837006214556701959
220,19361.2206495584126330151226593244837,19359.6,1.6206495584126330151226593244837
221,19537.6215629495868372860553444765335,19536.0,1.6215629495868372860553444765335
222,19714.8224722174922165011118853762920,19713.2,1.6224722174922165011118853762920
223,19892.8233773992264567770634036404609,19891.2,1.6233773992264567770634036404609
224,20071.6242785313890966349495856737984,20070.0,1.6242785313890966349495856737984
225,20251.2251756500904109601245418106806,20249.6,1.6251756500904109601245418106806
226,20431.6260687909600961851505485494954,20430.0,1.6260687909600961851505485494954
227,20612.8269579891557653384363463565174,20611.2,1.6269579891557653384363463565174
228,20794.8278432793712547688723553772729,20793.2,1.6278432793712547688723553772729
229,20977.6287246958447496986583120503798,20976.0,1.6287246958447496986583120503798
230,21161.2296022723667332906136015763700,21159.6,1.6296022723667332906136015763700
231,21345.6304760422877610192876745911150,21344.0,1.6304760422877610192876745911150
232,21530.8313460385260707548386817915150,21529.2,1.6313460385260707548386817915150
233,21716.8322122935750235452334204175081,21715.2,1.6322122935750235452334204175081
234,21903.6330748395103912428832665084002,21902.0,1.6330748395103912428832665084002
235,22091.2339337079974841468667895040840,22089.6,1.6339337079974841468667895040840
236,22279.6347889302981283595581319706902,22278.0,1.6347889302981283595581319706902
237,22468.8356405372774964778396164571335,22467.2,1.6356405372774964778396164571335
238,22658.8364885594107933499630170941168,22657.2,1.6364885594107933499630170941168
