Eigenstate,Energy,Kinetic Energy,Potential Energy
1,0.500000000023706546644307694909336465,0.0,0.500000000023706546644307694909336465
2,1.84623093780585852347042238299938077,1.2,0.64623093780585852347042238299938077
3,3.93633761015952285009666000184838731,3.2,0.73633761015952285009666000184838731
4,6.79966527876100742665563970591182655,6.0,0.79966527876100742665563970591182655
5,10.4480465769256799805090078520653833,9.6,0.8480465769256799805090078520653833
6,14.8870659994079968950164131104825110,14.0,0.8870659994079968950164131104825110
7,20.1197208276460299356621692361090204,19.2,0.9197208276460299356621692361090204
8,26.1477838480166768304657388853730087,25.2,0.9477838480166768304657388853730087
9,32.9723835595261921596289762446659874,32.0,0.9723835595261921596289762446659874
10,40.5942802163231343739793613959072133,39.6,0.9942802163231343739793613959072133
11,49.0140093885485345392947172300135953,48.0,1.0140093885485345392947172300135953
12,58.2319621715070175872283877809644687,57.2,1.0319621715070175872283877809644687
13,68.2484326952643884622892303594477060,67.2,1.0484326952643884622892303594477060
14,79.0636476575037903975272287846092648,78.0,1.0636476575037903975272287846092648
15,90.6777854393398878368519172729001847,89.6,1.0777854393398878368519172729001847
16,103.090988910189310334223718305553300,102.0,1.090988910189310334223718305553300
17,116.303374261232156229877755244870395,115.2,1.103374261232156229877755244870395
18,130.315037256418191758552202717678721,129.2,1.115037256418191758552202717678721
19,145.126057755570828490080577720502881,144.0,1.126057755570828490080577720502881
20,160.736503052021059692502448046315990,159.6,1.136503052021059692502448046315990
21,177.146430378689157482415024907220358,176.0,1.146430378689157482415024907220358
22,194.355888819243412956527240785964428,193.2,1.155888819243412956527240785964428
23,212.364920786036660858104641829205874,211.2,1.164920786036660858104641829205874
24,231.173563177506701753253032824249413,230.0,1.173563177506701753253032824249413
25,250.781848294972228441946963260610221,249.6,1.181848294972228441946963260610221
26,271.189804576440413728512639814098140,270.0,1.189804576440413728512639814098140
27,292.397457189569486276504028498147717,291.2,1.197457189569486276504028498147717
28,314.404828515027770464729794518032524,313.2,1.204828515027770464729794518032524
29,337.211938543695638340322921763335897,336.0,1.211938543695638340322921763335897
30,360.818805205507334195888153105776758,359.6,1.218805205507334195888153105776758
31,385.225444643583693797994694409193973,384.0,1.225444643583693797994694409193973
32,410.431871444228880709782856287019975,409.2,1.231871444228880709782856287019975
33,436.438098831054614346494819260885295,435.2,1.238098831054614346494819260885295
34,463.244138829744818136720255885928043,462.0,1.244138829744818136720255885928043
35,490.850002408634421096562022492133261,489.6,1.250002408634421096562022492133261
36,519.255699599242567245475096293073270,518.0,1.255699599242567245475096293073270
37,548.461239600096402744098454527383512,547.2,1.261239600096402744098454527383512
38,578.466630866551191891328467361865280,577.2,1.266630866551191891328467361865280
39,609.271881188814664468422687194993913,608.0,1.271881188814664468422687194993913
40,640.876997759987676134425932519995276,639.6,1.276997759987676134425932519995276
41,673.281987235616513303529486008532020,672.0,1.281987235616513303529486008532020
42,706.486855785997181333501953986114010,705.2,1.286855785997181333501953986114010
43,740.491609142265528509441652619777011,739.2,1.291609142265528509441652619777011
44,775.296252637138964291619489020244737,774.0,1.296252637138964291619489020244737
45,810.900791241037960727203935975730056,809.6,1.300791241037960727203935975730056
46,847.305229594202389643082927096990004,846.0,1.305229594202389643082927096990004
47,884.509572035324271624680238327828579,883.2,1.309572035324271624680238327828579
48,922.513822627140926421427890037233208,921.2,1.313822627140926421427890037233208
49,961.317985179367851875669838685278358,960.0,1.317985179367851875669838685278358
50,1000.92206326929653575812764785956320,999.6,1.32206326929653575812764785956320
51,1041.32606026033693793059367295827836,1040.0,1.32606026033693793059367295827836
52,1082.52997931874603504222408819508845,1081.2,1.32997931874603504222408819508845
53,1124.53382342875136984726331769978436,1123.2,1.33382342875136984726331769978436
54,1167.33759540625098610057976115435162,1166.0,1.33759540625098610057976115435162
55,1210.94129791124765449488462463688443,1209.6,1.34129791124765449488462463688443
56,1255.34493345915522053338376338567117,1254.0,1.34493345915522053338376338567117
57,1300.54850443109770626649616791284618,1299.2,1.34850443109770626649616791284618
58,1346.55201308330700063498419551678622,1345.2,1.35201308330700063498419551678622
59,1393.35546155571221921456749260861204,1392.0,1.35546155571221921456749260861204
60,1440.95885187980278964939210080595918,1439.6,1.35885187980278964939210080595918
61,1489.36218598583775483422313883243697,1488.0,1.36218598583775483422313883243697
62,1538.56546570946548490011733142911300,1537.2,1.36546570946548490011733142911300
63,1588.56869279781074716931219649464576,1587.2,1.36869279781074716931219649464576
64,1639.37186891507977076514761969566356,1638.0,1.37186891507977076514761969566356
65,1690.97499564772840772286356733116718,1689.6,1.37499564772840772286356733116718
66,1743.37807450923364510806432938937933,1742.0,1.37807450923364510806432938937933
67,1796.58110694450446035831452254881650,1795.2,1.38110694450446035831452254881650
68,1850.58409433396425590252407314526669,1849.2,1.38409433396425590252407314526669
69,1905.38703799733379644205308780400710,1904.0,1.38703799733379644205308780400710
70,1960.98993919714064400920390177451662,1959.6,1.38993919714064400920390177451662
71,2017.39279914197848721503682275542001,2016.0,1.39279914197848721503682275542001
72,2074.59561898953746285606654377527973,2073.2,1.39561898953746285606654377527973
73,2132.59839984942451504299298887552575,2131.2,1.39839984942451504299298887552575
74,2191.40114278579101816606778675030002,2190.0,1.40114278579101816606778675030002
75,2251.00384881978325891059475161012844,2249.6,1.40384881978325891059475161012844
76,2311.40651893182992297930765440874877,2310.0,1.40651893182992297930765440874877
77,2372.60915406377942977995059098487253,2371.2,1.40915406377942977995059098487253
78,2434.61175512089879253820617180583106,2433.2,1.41175512089879253820617180583106
79,2497.41432297374463447612460334372165,2496.0,1.41432297374463447612460334372165
80,2561.01685845991605357056234486433418,2559.6,1.41685845991605357056234486433418
81,2625.41936238569817906466250532769197,2624.0,1.41936238569817906466250532769197
82,2690.62183552760450145485564877693809,2689.2,1.42183552760450145485564877693809
83,2756.62427863382536894207007810634258,2755.2,1.42427863382536894207007810634258
84,2823.42669242558941904412454471411132,2822.0,1.42669242558941904412454471411132
85,2891.02907759844415479010269657784427,2889.6,1.42907759844415479010269657784427
86,2959.43143482346135905211925334549742,2958.0,1.43143482346135905211925334549742
87,3028.63376474837258309908806628571976,3027.2,1.43376474837258309908806628571976
88,3098.63606799863952207936650971222517,3097.2,1.43606799863952207936650971222517
89,3169.43834517846370663698917719601813,3168.0,1.43834517846370663698917719601813
90,3241.04059687173959664947457399625773,3239.6,1.44059687173959664947457399625773
91,3313.44282364295484162313782854760329,3312.0,1.44282364295484162313782854760329
92,3386.64502603804118398430328388492944,3385.2,1.44502603804118398430328388492944
93,3460.64720458517921924975524354536820,3459.2,1.44720458517921924975524354536820
94,3535.44935979555998413102701259119780,3534.0,1.44935979555998413102701259119780
95,3611.05149216410612247309938166036850,3609.6,1.45149216410612247309938166036850
96,3687.45360217015517710596326274671704,3686.0,1.45360217015517710596326274671704
97,3764.65569027810737134539159533365653,3763.2,1.45569027810737134539159533365653
98,3842.65775693804007100497090977564537,3841.2,1.45775693804007100497090977564537
99,3921.45980258629096430925384140642281,3920.0,1.45980258629096430925384140642281
100,4001.06182764601185075747777697796421,3999.6,1.46182764601185075747777697796421
101,4081.46383252769480068314037503940346,4080.0,1.46383252769480068314037503940346
102,4162.66581762967232168000159539194541,4161.2,1.46581762967232168000159539194541
103,4244.66778333859306015146899132780863,4243.2,1.46778333859306015146899132780863
104,4327.46973002987445897561264231686779,4326.0,1.46973002987445897561264231686779
105,4411.07165806813369920429913914082758,4409.6,1.47165806813369920429913914082758
106,4495.47356780759816295069038758884558,4494.0,1.47356780759816295069038758884558
107,4580.67545959249657653739753351301541,4579.2,1.47545959249657653739753351301541
108,4666.67733375743191373802595239359478,4665.2,1.47733375743191373802595239359478
109,4753.47919062773707035131308188395984,4752.0,1.47919062773707035131308188395984
110,4841.08103051981425892693579219683367,4839.6,1.48103051981425892693579219683367
111,4929.48285374145900660086550488875873,4928.0,1.48285374145900660086550488875873
112,5018.68466059216958956451576648680200,5017.2,1.48466059216958956451576648680200
113,5108.68645136344268215613291255327824,5107.2,1.48645136344268215613291255327824
114,5199.48822633905594980512413169018290,5198.0,1.48822633905594980512413169018290
115,5291.08998579533827461151465813208914,5289.6,1.48998579533827461151465813208914
116,5383.49173000142825401107759845668353,5382.0,1.49173000142825401107759845668353
117,5476.69345921952158126367313112524946,5475.2,1.49345921952158126367313112524946
118,5570.69517370510787547122826706056920,5569.2,1.49517370510787547122826706056920
119,5665.49687370719749511807203466680167,5664.0,1.49687370719749511807203466680167
120,5761.09855946853884328410599890396787,5759.6,1.49855946853884328410599890396787
121,5857.50023122582663441404578028413357,5856.0,1.50023122582663441404578028413357
122,5954.70188920990157361283645600724994,5953.2,1.50188920990157361283645600724994
123,6052.70353364594186724441273041341358,6051.2,1.50353364594186724441273041341358
124,6151.50516475364696593116610503413332,6150.0,1.50516475364696593116610503413332
125,6251.10678274741391148521817200401222,6249.6,1.50678274741391148521817200401222
126,6351.50838783650664410530158821372137,6350.0,1.50838783650664410530158821372137
127,6452.70998022521860559516390799757902,6451.2,1.50998022521860559516390799757902
128,6554.71156011302895177221953682654689,6553.2,1.51156011302895177221953682654689
129,6657.51312769475267516193700029130873,6656.0,1.51312769475267516193700029130873
130,6761.11468316068492069158141962529266,6759.6,1.51468316068492069158141962529266
131,6865.51622669673976169281404603032176,6864.0,1.51622669673976169281404603032176
132,6970.71775848458368854544988692219833,6969.2,1.51775848458368854544988692219833
133,7076.71927870176405051309048798179382,7075.2,1.51927870176405051309048798179382
134,7183.52078752183268004539013556962450,7182.0,1.52078752183268004539013556962450
135,7291.12228511446491071337120393855792,7289.6,1.52228511446491071337120393855792
136,7399.52377164557419625667400468723171,7398.0,1.52377164557419625667400468723171
137,7508.72524727742252491368299081273386,7507.2,1.52524727742252491368299081273386
138,7618.72671216872680959348045192820684,7617.2,1.52671216872680959348045192820684
139,7729.52816647476143234267335040284404,7728.0,1.52816647476143234267335040284404
140,7841.12961034745710611417054052872343,7839.6,1.52961034745710611417054052872343
141,7953.53104393549621228749777176565064,7952.0,1.53104393549621228749777176565064
142,8066.73246738440476431697080197191037,8065.2,1.53246738440476431697080197191037
143,8180.73388083664113923387751730246084,8179.2,1.53388083664113923387751730246084
144,8295.53528443168171154918320087038886,8294.0,1.53528443168171154918320087038886
145,8411.13667830610351991551374252671339,8409.6,1.53667830610351991551374252671339
146,8527.53806259366408903842085275939180,8526.0,1.53806259366408903842085275939180
147,8644.73943742537852112396729087930113,8643.2,1.53943742537852112396729087930113
148,8762.74080292959397219163672969830081,8761.2,1.54080292959397219163672969830081
149,8881.54215923206161505349863483395206,8880.0,1.54215923206161505349863483395206
150,9001.14350645600619260048137654199436,8999.6,1.54350645600619260048137654199436
151,9121.54484472219325730998296232745532,9120.0,1.54484472219325730998296232745532
152,9242.74617414899418727396417914436613,9241.2,1.54617414899418727396417914436613
153,9364.74749485244906769719224347362582,9363.2,1.54749485244906769719224347362582
154,9487.54880694632752176485104364307648,9486.0,1.54880694632752176485104364307648
155,9611.15011054218756911548434059846271,9609.6,1.55011054218756911548434059846271
156,9735.55140574943258978560818739916504,9734.0,1.55140574943258978560818739916504
157,9860.75269267536646467256879752026024,9859.2,1.55269267536646467256879752026024
158,9986.75397142524696433371963420698947,9985.2,1.55397142524696433371963420698947
159,10113.5552421023374497947234512262606,10112.0,1.5552421023374497947234512262606
160,10241.1565048079569517044894071705496,10239.6,1.5565048079569517044894071705496
161,10369.5577596415286863328364713990489,10368.0,1.5577596415286863328364713990489
162,10498.7590067006270678719549020859944,10497.2,1.5590067006270678719549020859944
163,10628.7602460810232718949353977731056,10627.2,1.5602460810232718949353977731056
164,10759.5614778767294046079312721314485,10758.0,1.5614778767294046079312721314485
165,10891.1627021800413264961415776094327,10889.6,1.5627021800413264961415776094327
166,11023.5639190815801808791742765939643,11022.0,1.5639190815801808791742765939643
167,11156.7651286703326746080791698647552,11155.2,1.5651286703326746080791698647552
168,11290.7663310336901535929345024167839,11289.2,1.5663310336901535929345024167839
169,11425.5675262574865182230479848935027,11424.0,1.5675262574865182230479848935027
170,11561.1687144260350184228584106979007,11559.6,1.5687144260350184228584106979007
171,11697.5698956221639685379687979908769,11696.0,1.5698956221639685379687979908769
172,11834.7710699272514199179393126124899,11833.2,1.5710699272514199179393126124899
173,11972.7722374212588265981410156160151,11971.2,1.5722374212588265981410156160151
174,12111.5733981827637399241546156311833,12110.0,1.5733981827637399241546156311833
175,12251.1745522889915661036175094340252,12249.6,1.5745522889915661036175094340252
176,12391.5756998158464163918421352694725,12390.0,1.5756998158464163918421352694725
177,12532.7768408379410831717133110778430,12531.2,1.5768408379410831717133110778430
178,12674.7779754286261710822309336815149,12673.2,1.5779754286261710822309336815149
179,12817.5791036600184096406139472434328,12816.0,1.5791036600184096406139472434328
180,12961.1802256030281783043347661913177,12959.6,1.5802256030281783043347661913177
181,13105.5813413273862666216402419232874,13104.0,1.5813413273862666216402419232874
182,13250.7824509016698971659147213353860,13249.2,1.5824509016698971659147213353860
183,13396.7835543933280343031291412006013,13395.2,1.5835543933280343031291412006013
184,13543.5846518687060030338821520629798,13542.0,1.5846518687060030338821520629798
185,13691.1857433930694397181264925309256,13689.6,1.5857433930694397181264925309256
186,13839.5868290306275956511698081264955,13838.0,1.5868290306275956511698081264955
187,13988.7879088445560172914169418218421,13987.2,1.5879088445560172914169418218421
188,14138.7889828970186185761378342305384,14137.2,1.5889828970186185761378342305384
189,14289.5900512491891690563180680570612,14288.0,1.5900512491891690563180680570612
190,14441.1911139612722135016361768506254,14439.6,1.5911139612722135016361768506254
191,14593.5921710925234421980854571695903,14592.0,1.5921710925234421980854571695903
192,14746.7932227012695283204085929403725,14745.2,1.5932227012695283204085929403725
193,14900.7942688449274506831577166927291,14899.2,1.5942688449274506831577166927291
194,15055.5953095800233152111266158060823,15054.0,1.5953095800233152111266158060823
195,15211.1963449622106930614773040963486,15209.6,1.5963449622106930614773040963486
196,15367.5973750462884890894238358849029,15366.0,1.5973750462884890894238358849029
197,15524.7983998862183550327567970150119,15523.2,1.5983998862183550327567970150119
198,15682.7994195351416615771497779260684,15681.2,1.5994195351416615771497779260684
199,15841.6004340453960421360635090591922,15840.0,1.6004340453960421360635090591922
200,16001.2014434685315222854088512544666,15999.6,1.6014434685315222854088512544666
201,16161.6024478553262458293475510802179,16160.0,1.6024478553262458293475510802179
202,16322.8034472558018108733423312054919,16321.2,1.6034472558018108733423312054919
203,16484.8044417192382265591384787236812,16483.2,1.6044417192382265591384787236812
204,16647.6054312941885020765386688496672,16646.0,1.6054312941885020765386688496672
205,16811.2064160284928779172831303756532,16809.6,1.6064160284928779172831303756532
206,16975.6073959692927123897323953481014,16974.0,1.6073959692927123897323953481014
207,17140.8083711630440292649781961883456,17139.2,1.6083711630440292649781961883456
208,17306.8093416555307407757873455872883,17305.2,1.6093416555307407757873455872883
209,17473.6103074918775517112064054910969,17472.0,1.6103074918775517112064054910969
210,17641.2112687165625561024263630544269,17639.6,1.6112687165625561024263630544269
211,17809.6122253734295338588638268787751,17808.0,1.6122253734295338588638268787751
212,17978.8131775056999575815811380229233,17977.2,1.6131775056999575815811380229233
213,18148.8141251559847139319334901083592,18147.2,1.6141251559847139319334901083592
214,18319.6150683662955545311267164190367,18318.0,1.6150683662955545311267164190367
215,18491.2160071780562755969106873968311,18489.6,1.6160071780562755969106873968311
216,18663.6169416321136402718589777160074,18662.0,1.6169416321136402718589777160074
217,18836.8178717687480476022704501816310,18835.2,1.6178717687480476022704501816310
218,19010.8187976276839571401357670871108,19009.2,1.6187976276839571401357670871108
219,19185.6197192481000724410979389980544,19184.0,1.6197192481000724410979389980544
220,19361.2206366686392959665277118480984,19359.6,1.6206366686392959665277118480984
221,19537.6215499274184532919964491688066,19536.0,1.6215499274184532919964491688066
222,19714.8224590620378038195048894357058,19713.2,1.6224590620378038195048894357058
223,19892.8233641095903315542915202141880,19891.2,1.6233641095903315542915202141880
224,20071.6242651066708310055114508119762,20070.0,1.6242651066708310055114508119762
225,20251.2251620893847907673208100372149,20249.6,1.6251620893847907673208100372149
226,20431.6260550933570783182998230184216,20430.0,1.6260550933570783182998230184216
227,20612.8269441537404346820534102844849,20611.2,1.6269441537404346820534102844849
228,20794.8278293052237807591808923312433,20793.2,1.6278293052237807591808923312433
229,20977.6287105820403424827503555840054,20976.0,1.6287105820403424827503555840054
230,21161.2295880179755994835062401666950,21159.6,1.6295880179755994835062401666950
231,21345.6304616463750590540647761517614,21344.0,1.6304616463750590540647761517614
232,21530.8313315001518658210021309471118,21529.2,1.6313315001518658210021309471118
233,21716.8321976117942421103235896826045,21715.2,1.6321976117942421103235896826045
234,21903.6330600133727751523634445586937,21902.0,1.6330600133727751523634445586937
235,22091.2339187365475442971992669765853,22089.6,1.6339187365475442971992669765853
236,22279.6347738125750979393322223068905,22278.0,1.6347738125750979393322223068905
237,22468.8356252723152837717437032550781,22467.2,1.6356252723152837717437032550781
238,22658.8364731462379341003220437067933,22657.2,1.6364731462379341003220437067933
