Eigenstate,Energy,Kinetic Energy,Potential Energy
1,0.500000000018638922277497066738686651,0.0,0.500000000018638922277497066738686651
2,1.84623093777277973464848376604289598,1.2,0.64623093777277973464848376604289598
3,3.93633761006235667792176339203338930,3.2,0.73633761006235667792176339203338930
4,6.79966527855862167262139546427368005,6.0,0.79966527855862167262139546427368005
5,10.4480465765751070740996864479979098,9.6,0.8480465765751070740996864479979098
6,14.8870659988655176853934480625247627,14.0,0.8870659988655176853934480625247627
7,20.1197208268675731578012292894114400,19.2,0.9197208268675731578012292894114400
8,26.1477838469579858279812639344724170,25.2,0.9477838469579858279812639344724170
9,32.9723835581429025294879600688670333,32.0,0.9723835581429025294879600688670333
10,40.5942802145708134837476138775404701,39.6,0.9942802145708134837476138775404701
11,49.0140093863827030957818714287322397,48.0,1.0140093863827030957818714287322397
12,58.2319621688831620588643533902673043,57.2,1.0319621688831620588643533902673043
13,68.2484326921379685223025557380360090,67.2,1.0484326921379685223025557380360090
14,79.0636476538302435016509322376596216,78.0,1.0636476538302435016509322376596216
15,90.6777854350746320724066088681873619,89.6,1.0777854350746320724066088681873619
16,103.090988905287746183426048054828281,102.0,1.090988905287746183426048054828281
17,116.303374255649667626925334625893654,115.2,1.103374255649667626925334625893654
18,130.315037250110146673154639295783849,129.2,1.115037250110146673154639295783849
19,145.126057748492579184835745272890677,144.0,1.126057748492579184835745272890677
20,160.736503044127942750246384461394301,159.6,1.136503044127942750246384461394301
21,177.146430369936493667872610859967060,176.0,1.146430369936493667872610859967060
22,194.355888809586506956311276331793553,193.2,1.155888809586506956311276331793553
23,212.364920775430800929853320797665577,211.2,1.164920775430800929853320797665577
24,231.173563165907159305832462085441383,230.0,1.173563165907159305832462085441383
25,250.781848282334257562598432179631049,249.6,1.181848282334257562598432179631049
26,271.189804562719250668622152625645574,270.0,1.189804562719250668622152625645574
27,292.397457174720348904701839772834620,291.2,1.197457174720348904701839772834620
28,314.404828499005857693896307483614750,313.2,1.204828499005857693896307483614750
29,337.211938526456129533525816251657500,336.0,1.211938526456129533525816251657500
30,360.818805187005388555131394249194808,359.6,1.218805187005388555131394249194808
31,385.225444623774449738805969405795425,384.0,1.225444623774449738805969405795425
32,410.431871423067455224021262980198689,409.2,1.231871423067455224021262980198689
33,436.438098808496102355268871254746626,435.2,1.238098808496102355268871254746626
34,463.244138805744291834927523777263382,462.0,1.244138805744291834927523777263382
35,490.850002383146929290267378303676435,489.6,1.250002383146929290267378303676435
36,519.255699572223134683113822577918536,518.0,1.255699572223134683113822577918536
37,548.461239571500029442308202062932162,547.2,1.261239571500029442308202062932162
38,578.466630836332852456068966016326435,577.2,1.266630836332852456068966016326435
39,609.271881156929307411925825893757760,608.0,1.271881156929307411925825893757760
40,640.876997726390223188424982848828646,639.6,1.276997726390223188424982848828646
41,673.281987200261858729140053914697039,672.0,1.281987200261858729140053914697039
42,706.486855748840191228065014283323998,705.2,1.286855748840191228065014283323998
43,740.491609103261040110587897770835095,739.2,1.291609103261040110587897770835095
44,775.296252596241785278772021643880212,774.0,1.296252596241785278772021643880212
45,810.900791198202868520701297800365976,809.6,1.300791198202868520701297800365976
46,847.305229549384130701075238712473152,846.0,1.305229549384130701075238712473152
47,884.509571988477560737926754237827133,883.2,1.309571988477560737926754237827133
48,922.513822578220446006103664111540938,921.2,1.313822578220446006103664111540938
49,961.317985128328251264271798248119268,960.0,1.317985128328251264271798248119268
50,1000.92206321609243048855560708360541,999.6,1.32206321609243048855560708360541
51,1041.32606020492290903346922902299523,1040.0,1.32606020492290903346922902299523
52,1082.52997926107662832649959472067761,1081.2,1.32997926107662832649959472067761
53,1124.53382336878109518416391017421764,1123.2,1.33382336878109518416391017421764
54,1167.33759534393431670591344789539514,1166.0,1.33759534393431670591344789539514
55,1210.94129784653902620974861643299527,1209.6,1.34129784653902620974861643299527
56,1255.34493339200903110328924706381579,1254.0,1.34493339200903110328924706381579
57,1300.54850436146831461892858297503635,1299.2,1.34850436146831461892858297503635
58,1346.55201301114872615541153115489084,1345.2,1.35201301114872615541153115489084
59,1393.35546148097934102090521613728021,1392.0,1.35546148097934102090521613728021
60,1440.95885180244954586492983789817383,1439.6,1.35885180244954586492983789817383
61,1489.36218590581834185901520801205573,1488.0,1.36218590581834185901520801205573
62,1538.56546562673405668083652516951132,1537.2,1.36546562673405668083652516951132
63,1588.56869271232141446756384523719008,1587.2,1.36869271232141446756384523719008
64,1639.37186882678660042423886743263014,1638.0,1.37186882678660042423886743263014
65,1690.97499555658542193302089335002054,1689.6,1.37499555658542193302089335002054
66,1743.37807441519482067009070237828575,1742.0,1.37807441519482067009070237828575
67,1796.58110684752372794567606238286750,1795.2,1.38110684752372794567606238286750
68,1850.58409423399549932185476972837683,1849.2,1.38409423399549932185476972837683
69,1905.38703789433085189206489005829304,1904.0,1.38703789433085189206489005829304
70,1960.98993909105729933798844988993401,1959.6,1.38993909105729933798844988993401
71,2017.39279903276848117574405987678759,2016.0,1.39279903276848117574405987678759
72,2074.59561887715448436094460178243726,2073.2,1.39561887715448436094460178243726
73,2132.59839973382220241577289612502354,2131.2,1.39839973382220241577289612502354
74,2191.40114266692295839267582732396329,2190.0,1.40114266692295839267582732396329
75,2251.00384869760298688817461895413226,2249.6,1.40384869760298688817461895413226
76,2311.40651880629092076353392971958232,2310.0,1.40651880629092076353392971958232
77,2372.60915393483512583061450680924437,2371.2,1.40915393483512583061450680924437
78,2434.61175498850256096305409166692873,2433.2,1.41175498850256096305409166692873
79,2497.41432283784979427292916140795316,2496.0,1.41432283784979427292916140795316
80,2561.01685832047586786740575417613751,2559.6,1.41685832047586786740575417613751
81,2625.41936224266585435841110124346906,2624.0,1.41936224266585435841110124346906
82,2690.62183538093318684780436029232291,2689.2,1.42183538093318684780436029232291
83,2756.62427848346815537673514047060831,2755.2,1.42427848346815537673514047060831
84,2823.42669227149933853616243637883778,2822.0,1.42669227149933853616243637883778
85,2891.02907744057417965933294082406519,2889.6,1.42907744057417965933294082406519
86,2959.43143466176440115162844259456663,2958.0,1.43143466176440115162844259456663
87,3028.63376458280149304239214941110144,3027.2,1.43376458280149304239214941110144
88,3098.63606782914708846560812652349893,3097.2,1.43606782914708846560812652349893
89,3169.43834500500265527414655391775633,3168.0,1.43834500500265527414655391775633
90,3241.04059669426258977555824408535224,3239.6,1.44059669426258977555824408535224
91,3313.44282346141447712535119139392442,3312.0,1.44282346141447712535119139392442
92,3386.64502585238999461614280007640237,3385.2,1.44502585238999461614280007640237
93,3460.64720439536967184602582536675596,3459.2,1.44720439536967184602582536675596
94,3535.44935960154447882074795497925642,3534.0,1.44935960154447882074795497925642
95,3611.05149196583699189027597246093570,3609.6,1.45149196583699189027597246093570
96,3687.45360196758468559819900844662207,3686.0,1.45360196758468559819900844662207
97,3764.65569007118771418031578634844780,3763.2,1.45569007118771418031578634844780
98,3842.65775672672337357445607729974729,3841.2,1.45775672672337357445607729974729
99,3921.45980237052928133139743682132861,3920.0,1.45980237052928133139743682132861
100,4001.06182742575716547632225074187742,3999.6,1.46182742575716547632225074187742
101,4081.46383230289902406610562253581212,4080.0,1.46383230289902406610562253581212
102,4162.66581740028729161300356969555417,4161.2,1.46581740028729161300356969555417
103,4244.66778310457054063169810701796083,4243.2,1.46778310457054063169810701796083
104,4327.46972979116613930194539794201306,4326.0,1.46972979116613930194539794201306
105,4411.07165782469119316531623704314359,4409.6,1.47165782469119316531623704314359
106,4495.47356755937300801027444094803742,4494.0,1.47356755937300801027444094803742
107,4580.67545933944023301788328311083271,4579.2,1.47545933944023301788328311083271
108,4666.67733349949576400087574515048285,4665.2,1.47733349949576400087574515048285
109,4753.47919036487241797529018509269073,4752.0,1.47919036487241797529018509269073
110,4841.08103025197232788374797079819591,4839.6,1.48103025197232788374797079819591
111,4929.48285346859094042825108672563602,4928.0,1.48285346859094042825108672563602
112,5018.68466031422645053674427773491742,5017.2,1.48466031422645053674427773491742
113,5108.68645108037545045189219091136245,5107.2,1.48645108037545045189219091136245
114,5199.48822605081552267276565051790110,5198.0,1.48822605081552267276565051790110
115,5291.08998550187546553162862458753330,5289.6,1.48998550187546553162862458753330
116,5383.49172970269379185636923195544307,5382.0,1.49172970269379185636923195544307
117,5476.69345891546610945611134652675563,5475.2,1.49345891546610945611134652675563
118,5570.69517339568195113643781848803778,5569.2,1.49517339568195113643781848803778
119,5665.49687339235158823694001877181966,5664.0,1.49687339235158823694001877181966
120,5761.09855914822333584157341992214985,5759.6,1.49855914822333584157341992214985
121,5857.50023089999181954505472523399903,5856.0,1.50023089999181954505472523399903
122,5954.70188887849765474540325673912217,5953.2,1.50188887849765474540325673912217
123,6052.70353330891895723979730607861868,6051.2,1.50353330891895723979730607861868
124,6151.50516441095508622110750250788901,6150.0,1.50516441095508622110750250788901
125,6251.10678239900299120620615390961893,6249.6,1.50678239900299120620615390961893
126,6351.50838748232651922985393751865998,6350.0,1.50838748232651922985393751865998
127,6452.70997986521901806007893196036692,6451.2,1.50997986521901806007893196036692
128,6554.71155974715954860377308882246559,6553.2,1.51155974715954860377308882246559
129,6657.51312732296300759799313960455022,6656.0,1.51312732296300759799313960455022
130,6761.11468278292444330058566386555874,6759.6,1.51468278292444330058566386555874
131,6865.51622631295783148963796943998086,6864.0,1.51622631295783148963796943998086
132,6970.71775809472956410405563427719794,6969.2,1.51775809472956410405563427719794
133,7076.71927830578689107598361812275894,7075.2,1.51927830578689107598361812275894
134,7183.52078711968154462982897027091930,7182.0,1.52078711968154462982897027091930
135,7291.12228470608875721430068835248291,7289.6,1.52228470608875721430068835248291
136,7399.52377123092188054635193197921171,7398.0,1.52377123092188054635193197921171
137,7508.72524685644279993796617239052239,7507.2,1.52524685644279993796617239052239
138,7618.72671174136832446473829896923735,7617.2,1.52671174136832446473829896923735
139,7729.52816604097273142929604946954151,7728.0,1.52816604097273142929604946954151
140,7841.12960990718662812663891188702815,7839.6,1.52960990718662812663891188702815
141,7953.53104348869228936098163011803645,7952.0,1.53104348869228936098163011803645
142,8066.73246693101562109042240251373489,8065.2,1.53246693101562109042240251373489
143,8180.73388037661489192558659780366015,8179.2,1.53388037661489192558659780366015
144,8295.53528396496636702875972620911697,8294.0,1.53528396496636702875972620911697
145,8411.13667783264697477226445096508800,8409.6,1.53667783264697477226445096508800
146,8527.53806211341412864608538473785979,8526.0,1.53806211341412864608538473785979
147,8644.73943693828281870177944993177204,8643.2,1.53943693828281870177944993177204
148,8762.74080243560008786167627956590983,8761.2,1.54080243560008786167627956590983
149,8881.54215873111699489429879391804156,8880.0,1.54215873111699489429879391804156
150,9001.14350594805816769685693184434242,8999.6,1.54350594805816769685693184434242
151,9121.54484420718904279904371448793820,9120.0,1.54484420718904279904371448793820
152,9242.74617362688088138727822368065354,9241.2,1.54617362688088138727822368065354
153,9364.74749432317365079906335206765483,9363.2,1.54749432317365079906335206765483
154,9487.54880640983685538667417878120270,9486.0,1.54880640983685538667417878120270
155,9611.15010999842839498614312437281754,9609.6,1.55010999842839498614312437281754
156,9735.55140519835152885787789394950795,9734.0,1.55140519835152885787789394950795
157,9860.75269211691001614548821570090090,9859.2,1.55269211691001614548821570090090
158,9986.75397085936150467089490124476886,9985.2,1.55397085936150467089490124476886
159,10113.5552415289692317385267492446870,10112.0,1.5552415289692317385267492446870
160,10241.1565042270521032861151157082923,10239.6,1.5565042270521032861151157082923
161,10369.5577590530332098781771873932717,10368.0,1.5577590530332098781771873932717
162,10498.7590061044868390032594340149045,10497.2,1.5590061044868390032594340149045
163,10628.7602454771840385282106642921793,10627.2,1.5602454771840385282106642921793
164,10759.5614772651367859460496927784065,10758.0,1.5614772651367859460496927784065
165,10891.1627015606408120176153749105204,10889.6,1.5627015606408120176153749105204
166,11023.5639184543171293225577973852157,11022.0,1.5639184543171293225577973852157
167,11156.7651280351523129519601157733215,11155.2,1.5651280351523129519601157733215
168,11290.7663303905375760314746200110894,11289.2,1.5663303905375760314746200110894
169,11425.5675256063066851370336426258842,11424.0,1.5675256063066851370336426258842
170,11561.1687137667727553462210573074989,11559.6,1.5687137667727553462210573074989
171,11697.5698949547639651197351437603083,11696.0,1.5698949547639651197351437603083
172,11834.7710692516582288795707912988178,11833.2,1.5710692516582288795707912988178
173,11972.7722367374168626862217234952567,11971.2,1.5722367374168626862217234952567
174,12111.5733974906172788583867638919433,12110.0,1.5733974906172788583867638919433
175,12251.1745515884847435200830615449785,12249.6,1.5745515884847435200830615449785
176,12391.5756991069232267814890633788102,12390.0,1.5756991069232267814890633788102
177,12532.7768401205453788140245822512950,12531.2,1.5768401205453788140245822512950
178,12674.7779747027016609740340683276447,12673.2,1.5779747027016609740340683276447
179,12817.5791029255086584199887442681395,12816.0,1.5791029255086584199887442681395
180,12961.1802248598766051695763713201531,12959.6,1.5802248598766051695763713201531
181,13105.5813405755361442452345798198231,13104.0,1.5813405755361442452345798198231
182,13250.7824501410643506034829320005193,13249.2,1.5824501410643506034829320005193
183,13396.7835536239100398972973552932327,13395.2,1.5835536239100398972973552932327
184,13543.5846510904183873130326649101994,13542.0,1.5846510904183873130326649101994
185,13691.1857426058548782899860729802846,13689.6,1.5857426058548782899860729802846
186,13839.5868282344286120911905419818067,13838.0,1.5868282344286120911905419818067
187,13988.7879080393149820259047608829174,13987.2,1.5879080393149820259047608829174
188,14138.7889820826777477600834605834563,14137.2,1.5889820826777477600834605834563
189,14289.5900504256905234458848898380132,14288.0,1.5900504256905234458848898380132
190,14441.1911131285576973212591475168581,14439.6,1.5911131285576973212591475168581
191,14593.5921702505348020021348536060143,14592.0,1.5921702505348020021348536060143
192,14746.7932218499483518493720985474144,14745.2,1.5932218499483518493720985474144
193,14900.7942679842151657142939744723820,14899.2,1.5942679842151657142939744723820
194,15055.5953087098611884035430476638002,15054.0,1.5953087098611884035430476638002
195,15211.1963440825398287955846537446951,15209.6,1.5963440825398287955846537446951
196,15367.5973741570498283007195380182603,15366.0,1.5973741570498283007195380182603
197,15524.7983989873526740398889624964583,15523.2,1.5983989873526740398889624964583
198,15682.7994186265895709042131552181114,15681.2,1.5994186265895709042131552181114
199,15841.6004331270979853290785391905720,15840.0,1.6004331270979853290785391905720
200,16001.2014425404277747229344486412693,15999.6,1.6014425404277747229344486412693
201,16161.6024469173569135271779590496903,16160.0,1.6024469173569135271779590496903
202,16322.8034463079068292832380248198064,16321.2,1.6034463079068292832380248198064
203,16484.8044407613573593615406958448081,16483.2,1.6044407613573593615406958448081
204,16647.6054303262613399672167481347770,16646.0,1.6054303262613399672167481347770
205,16811.2064150504588373878635760761828,16809.6,1.6064150504588373878635760761828
206,16975.6073949810910345020580431162497,16974.0,1.6073949810910345020580431162497
207,17140.8083701646137784192455633478775,17139.2,1.6083701646137784192455633478775
208,17306.8093406468108034724098740466428,17305.2,1.6093406468108034724098740466428
209,17473.6103064728066353063508477086267,17472.0,1.6103064728066353063508477086267
210,17641.2112676870791875571691782229993,17639.6,1.6112676870791875571691782229993
211,17809.6122243334720584819141364626838,17808.0,1.6122243334720584819141364626838
212,17978.8131764552065377655162642862118,17977.2,1.6131764552065377655162642862118
213,18148.8141240948933278828927283050546,18147.2,1.6141240948933278828927283050546
214,18319.6150672945439949919086358221640,18318.0,1.6150672945439949919086358221640
215,18491.2160060955821485634187724937593,18489.6,1.6160060955821485634187724937593
216,18663.6169405388543637028400271713494,18662.0,1.6169405388543637028400271713494
217,18836.8178706646408501222896873671033,18835.2,1.6178706646408501222896873671033
218,19010.8187965126658767357322540105485,19009.2,1.6187965126658767357322540105485
219,19185.6197181221079551500633895339154,19184.0,1.6197181221079551500633895339154
220,19361.2206355316097945602513634673201,19359.6,1.6206355316097945602513634673201
221,19537.6215487792880259508182736534613,19536.0,1.6215487792880259508182736534613
222,19714.8224579027427128010188407964129,19713.2,1.6224579027427128010188407964129
223,19892.8233629390666418545402466025564,19891.2,1.6233629390666418545402466025564
224,20071.6242639248544090130132998032038,20070.0,1.6242639248544090130132998032038
225,20251.2251608962113029098694938892321,20249.6,1.6251608962113029098694938892321
226,20431.6260538887619897024767422048578,20430.0,1.6260538887619897024767422048578
227,20612.8269429376590077253920708609842,20611.2,1.6269429376590077253920708609842
228,20794.8278280775910738149224439611244,20793.2,1.6278280775910738149224439611244
229,20977.6287093427912084571287250055411,20976.0,1.6287093427912084571287250055411
230,21161.2295867670446844455008809494969,21159.6,1.6295867670446844455008809494969
231,21345.6304603836968008375586343497545,21344.0,1.6304603836968008375586343497545
232,21530.8313302256604926192817708861771,21529.2,1.6313302256604926192817708861771
233,21716.8321963254237710628580538322994,21715.2,1.6321963254237710628580538322994
234,21903.6330587150570109237979172173082,21902.0,1.6330587150570109237979172173082
235,22091.2339174262200776484989906780029,22089.6,1.6339174262200776484989906780029
236,22279.6347724901693042910117288082915,22278.0,1.6347724901693042910117288082915
237,22468.8356239377643217591157713347142,22467.2,1.6356239377643217591157713347142
238,22658.8364717994747441207004102589582,22657.2,1.6364717994747441207004102589582
