Eigenstate,Energy,Kinetic Energy,Potential Energy
1,0.500000000121557621443233849748469530,0.0,0.500000000121557621443233849748469530
2,1.84623093844458236596227545455178544,1.2,0.64623093844458236596227545455178544
3,3.93633761203573637282056737519147942,3.2,0.73633761203573637282056737519147942
4,6.79966528266898526700332478631103145,6.0,0.79966528266898526700332478631103145
5,10.4480465836951840752381019508782879,9.6,0.8480465836951840752381019508782879
6,14.8870660098833660033731404503672075,14.0,0.8870660098833660033731404503672075
7,20.1197208426784828643261598761371117,19.2,0.9197208426784828643261598761371117
8,26.1477838684611097315734673067852534,25.2,0.9477838684611097315734673067852534
9,32.9723835862396958614820324493762519,32.0,0.9723835862396958614820324493762519
10,40.5942802501642479352602506856393781,39.6,0.9942802501642479352602506856393781
11,49.0140094303768453922046141834785132,48.0,1.0140094303768453922046141834785132
12,58.2319622221829383055604028531992901,57.2,1.0319622221829383055604028531992901
13,68.2484327556490296933152940429582261,67.2,1.0484327556490296933152940429582261
14,79.0636477284588891449472667730575329,78.0,1.0636477284588891449472667730575329
15,90.6777855217277691447500547035359800,89.6,1.0777855217277691447500547035359800
16,103.090989004872869960785924290195566,102.0,1.090989004872869960785924290195566
17,116.303374369074856983711214175422052,115.2,1.103374369074856983711214175422052
18,130.315037378284069006641654349369514,129.2,1.115037378284069006641654349369514
19,145.126057892324501992948554844851046,144.0,1.126057892324501992948554844851046
20,160.736503204527749912159258435967188,159.6,1.136503204527749912159258435967188
21,177.146430547814705122759574045638753,176.0,1.146430547814705122759574045638753
22,194.355889005854300887457481584290627,193.2,1.155889005854300887457481584290627
23,212.364920991000037830604507580393698,211.2,1.164920991000037830604507580393698
24,231.173563401690407483879552641871217,230.0,1.173563401690407483879552641871217
25,250.781848539244819761914281393849197,249.6,1.181848539244819761914281393849197
26,271.189804841671191573721303196228322,270.0,1.189804841671191573721303196228322
27,292.397457476628523352217883895893420,291.2,1.197457476628523352217883895893420
28,314.404828824785939459767772475920741,313.2,1.204828824785939459767772475920741
29,337.211938877024640595600502100011143,336.0,1.211938877024640595600502100011143
30,360.818805563279728754246451903505085,359.6,1.218805563279728754246451903505085
31,385.225445026672926778756447939823460,384.0,1.225445026672926778756447939823460
32,410.431871853509314963932836711785632,409.2,1.231871853509314963932836711785632
33,436.438099267401559357887073962978299,435.2,1.238099267401559357887073962978299
34,463.244139294034560142037183186515712,462.0,1.244139294034560142037183186515712
35,490.850002901744253402443574383962501,489.6,1.250002901744253402443574383962501
36,519.255700122050820725700884087067426,518.0,1.255700122050820725700884087067426
37,548.461240153482476503235081395070017,547.2,1.261240153482476503235081395070017
38,578.466631451395584084065854419480178,577.2,1.266631451395584084065854419480178
39,609.271881805999003266079052971739207,608.0,1.271881805999003266079052971739207
40,640.876998410394750831923678712913639,639.6,1.276998410394750831923678712913639
41,673.281987920130305561626177909984072,672.0,1.281987920130305561626177909984072
42,706.486856505502896552273492445911325,705.2,1.286856505502896552273492445911325
43,740.491609897649627330013128953793429,739.2,1.291609897649627330013128953793429
44,775.296253429289194223965860712772145,774.0,1.296253429289194223965860712772145
45,810.900792070843387902531190954852890,809.6,1.300792070843387902531190954852890
46,847.305230462553430689876842806002264,846.0,1.305230462553430689876842806002264
47,884.509572943112725667994922954935075,883.2,1.309572943112725667994922954935075
48,922.513823575260007205397081082571975,921.2,1.313823575260007205397081082571975
49,961.317986168712220009573141564965290,960.0,1.317986168712220009573141564965290
50,1000.92206430076233108664253174711497,999.6,1.32206430076233108664253174711497
51,1041.32606133482181202912093678585228,1040.0,1.32606133482181202912093678585228
52,1082.52998043714918383839620660627947,1081.2,1.32998043714918383839620660627947
53,1124.53382459197356636993773415298944,1123.2,1.33382459197356636993773415298944
54,1167.33759661519461335778750932513743,1166.0,1.33759661519461335778750932513743
55,1210.94129916681673848235230895685546,1209.6,1.34129916681673848235230895685546
56,1255.34493476225546337537730531320109,1254.0,1.34493476225546337537730531320109
57,1300.54850578263651949085030914925045,1299.2,1.34850578263651949085030914925045
58,1346.55201448419353858428541692990639,1345.2,1.35201448419353858428541692990639
59,1393.35546300685741259555029742625928,1392.0,1.35546300685741259555029742625928
60,1440.95885338211937922269266007942484,1439.6,1.35885338211937922269266007942484
61,1489.36218754024032524671028306700838,1488.0,1.36218754024032524671028306700838
62,1538.56546731687049866209055095287107,1537.2,1.36546731687049866209055095287107
63,1588.56869445913657877892012259793139,1587.2,1.36869445913657877892012259793139
64,1639.37187063124674098243955573007950,1638.0,1.37187063124674098243955573007950
65,1690.97499741965881799594196714638307,1689.6,1.37499741965881799594196714638307
66,1743.37807633785181215385736996287664,1742.0,1.37807633785181215385736996287664
67,1796.58110883073675090053649767687827,1795.2,1.38110883073675090053649767687827
68,1850.58409627873912156943728437922207,1849.2,1.38409627873912156943728437922207
69,1905.38704000158180882668885619005101,1904.0,1.38704000158180882668885619005101
70,1960.98994126179452989474157814531818,1959.6,1.38994126179452989474157814531818
71,2017.39280126797316396808070397237624,2016.0,1.39280126797316396808070397237624
72,2074.59562117781007399059875218737630,2073.2,1.39562117781007399059875218737630
73,2132.59840210091446595781872942497222,2131.2,1.39840210091446595781872942497222
74,2191.40114510144001205860578910665130,2190.0,1.40114510144001205860578910665130
75,2251.00385120053533286990207823480870,2249.6,1.40385120053533286990207823480870
76,2311.40652137863148426126301830019438,2310.0,1.40652137863148426126301830019438
77,2372.60915657757929226755552324066140,2371.2,1.40915657757929226755552324066140
78,2434.61175770264821338999776665383017,2433.2,1.41175770264821338999776665383017
79,2497.41432562439735096572775575114555,2496.0,1.41432562439735096572775575114555
80,2561.01686118042832012044309367601164,2559.6,1.41686118042832012044309367601164
81,2625.41936517702880447717834436927903,2624.0,1.41936517702880447717834436927903
82,2690.62183839071488634373204486028249,2689.2,1.42183839071488634373204486028249
83,2756.62428156967954336746642308840317,2755.2,1.42428156967954336746642308840317
84,2823.42669543515408035448646352045891,2822.0,1.42669543515408035448646352045891
85,2891.02908068268870567403169225596623,2889.6,1.42908068268870567403169225596623
86,2959.43143798335794580352449818973918,2958.0,1.43143798335794580352449818973918
87,3028.63376798489613409891986673930596,3027.2,1.43376798489613409891986673930596
88,3098.63607131276778649726517219472014,3097.2,1.43607131276778649726517219472014
89,3169.43834857117729335621789672478983,3168.0,1.43834857117729335621789672478983
90,3241.04060034402201341854001921616575,3239.6,1.44060034402201341854001921616575
91,3313.44282719579253443753792099832204,3312.0,1.44282719579253443753792099832204
92,3386.64502967242357670187691945280991,3385.2,1.44502967242357670187691945280991
93,3460.64720830209875344314548544184203,3459.2,1.44720830209875344314548544184203
94,3535.44936359601215918080563693645083,3534.0,1.44936359601215918080563693645083
95,3611.05149604908953590513788042853915,3609.6,1.45149604908953590513788042853915
96,3687.45360614067156517667272844176599,3686.0,1.45360614067156517667272844176599
97,3764.65569433516164987849256087876876,3763.2,1.45569433516164987849256087876876
98,3842.65776108264037648349186632575972,3841.2,1.45776108264037648349186632575972
99,3921.45980681944869522649727674847948,3920.0,1.45980681944869522649727674847948
100,4001.06183196874170923073130384885102,3999.6,1.46183196874170923073130384885102
101,4081.46383694101483433395141999634771,4080.0,1.46383694101483433395141999634771
102,4162.66582213460396578487435349396951,4161.2,1.46582213460396578487435349396951
103,4244.66778793616118006688389086805171,4243.2,1.46778793616118006688389086805171
104,4327.46973472110739284131098070443107,4326.0,1.46973472110739284131098070443107
105,4411.07166285406330092881742173363908,4409.6,1.47166285406330092881742173363908
106,4495.47357268925984548317267964981127,4494.0,1.47357268925984548317267964981127
107,4580.67546457092935542975789795371984,4579.2,1.47546457092935542975789795371984
108,4666.67733883367845100157752586191919,4665.2,1.47733883367845100157752586191919
109,4753.47919580284371861202590662729665,4752.0,1.47919580284371861202590662729665
110,4841.08103579483110588353109186252767,4839.6,1.48103579483110588353109186252767
111,4929.48285911743991979000111203430943,4928.0,1.48285911743991979000111203430943
112,5018.68466607017226143736478848541789,5017.2,1.48466607017226143736478848541789
113,5108.68645694452867547070564791174196,5107.2,1.48645694452867547070564791174196
114,5199.48823202429074333873255083499736,5198.0,1.48823202429074333873255083499736
115,5291.08999158579130919782818518355884,5289.6,1.48999158579130919782818518355884
116,5383.49173589817297890626958425218944,5382.0,1.49173589817297890626958425218944
117,5476.69346522363550084620861757921566,5475.2,1.49346522363550084620861757921566
118,5570.69517981767259627989592611701824,5569.2,1.49517981767259627989592611701824
119,5665.49687992929877323291570723427032,5664.0,1.49687992929877323291570723427032
120,5761.09856580126663205496575824209619,5759.6,1.49856580126663205496575824209619
121,5857.50023767027513254147253233472507,5856.0,1.50023767027513254147253233472507
122,5954.70189576716927358619986150940934,5953.2,1.50189576716927358619986150940934
123,6052.70354031713160414207870244105177,6051.2,1.50354031713160414207870244105177
124,6151.50517153986596658767737987531440,6150.0,1.50517153986596658767737987531440
125,6251.10678964977384403046991394719947,6249.6,1.50678964977384403046991394719947
126,6351.50839485612366788076313608299337,6350.0,1.50839485612366788076313608299337
127,6452.70998736321342145225782620627804,6451.2,1.50998736321342145225782620627804
128,6554.71156737052685275803063347047350,6553.2,1.51156737052685275803063347047350
129,6657.51313507288359759748584158602192,6656.0,1.51313507288359759748584158602192
130,6761.11469066058349564796013384695313,6759.6,1.51469066058349564796013384695313
131,6865.51623431954536687054635742525478,6864.0,1.51623431954536687054635742525478
132,6970.71776623144050056250299260084493,6969.2,1.51776623144050056250299260084493
133,7076.71928657382109760703181840949528,7075.2,1.51928657382109760703181840949528
134,7183.52079552024389519525033972762655,7182.0,1.52079552024389519525033972762655
135,7291.12229324038918518684290822061193,7289.6,1.52229324038918518684290822061193
136,7399.52377990017543358834497382263306,7398.0,1.52377990017543358834497382263306
137,7508.72525566186969532007388631269473,7507.2,1.52525566186969532007388631269473
138,7618.72672068419400483072890081712377,7617.2,1.52672068419400483072890081712377
139,7729.52817512242792101277901689316387,7728.0,1.52817512242792101277901689316387
140,7841.12961912850738942579066144552955,7839.6,1.52961912850738942579066144552955
141,7953.53105285112008027735732711481966,7952.0,1.53105285112008027735732711481966
142,8066.73247643579735253802903340935339,8065.2,1.53247643579735253802903340935339
143,8180.73389002500298591647016848607189,8179.2,1.53389002500298591647016848607189
144,8295.53529375821881524143923989308379,8294.0,1.53529375821881524143923989308379
145,8411.13668777202739760942559293230978,8409.6,1.53668777202739760942559293230978
146,8527.53807220019183478802974488370692,8526.0,1.53807220019183478802974488370692
147,8644.73944717373286516220824658386791,8643.2,1.53944717373286516220824658386791
148,8762.74081282100334055247192933357530,8761.2,1.54081282100334055247192933357530
149,8881.54216926776018970605527359382293,8880.0,1.54216926776018970605527359382293
150,9001.14351663723397210199573759635337,8999.6,1.54351663723397210199573759635337
151,9121.54485505019611798444342647260486,9120.0,1.54485505019611798444342647260486
152,9242.74618462502394492343452954562390,9241.2,1.54618462502394492343452954562390
153,9364.74750547776353985288989631209739,9363.2,1.54750547776353985288989631209739
154,9487.54881772219059048514711881429895,9486.0,1.54881772219059048514711881429895
155,9611.15012146986924433808835684668444,9609.6,1.55012146986924433808835684668444
156,9735.55141683020907324129686995388679,9734.0,1.55141683020907324129686995388679
157,9860.75270391052021436791536289560912,9859.2,1.55270391052021436791536289560912
158,9986.75398281606675961038163849654220,9985.2,1.55398281606675961038163849654220
159,10113.5552536501184569729469748995137,10112.0,1.5552536501184569729469748995137
160,10241.1565165140007903185921092561915,10239.6,1.5565165140007903185921092561915
161,10369.5577715071434959665359271843882,10368.0,1.5577715071434959665359271843882
162,10498.7590187271275756015158817515671,10497.2,1.5590187271275756015158817515671
163,10628.7602582697308603482178394648168,10627.2,1.5602582697308603482178394648168
164,10759.5614902289721806475314451395348,10758.0,1.5614902289721806475314451395348
165,10891.1627146971541905349309926979805,10889.6,1.5627146971541905349309926979805
166,11023.5639317649048968366549092522576,11022.0,1.5639317649048968366549092522576
167,11156.7651415212179405160890623637350,11155.2,1.5651415212179405160890623637350
168,11290.7663440534916728593571173843319,11289.2,1.5663440534916728593571173843319
169,11425.5675394475670715622970655958629,11424.0,1.5675394475670715622970655958629
170,11561.1687277877645364620333965351232,11559.6,1.5687277877645364620333965351232
171,11697.5699091569196051076991079317378,11696.0,1.5699091569196051076991079317378
172,11834.7710836364176260370624364480131,11833.2,1.5710836364176260370624364480131
173,11972.7722513062274251614871583883654,11971.2,1.5722513062274251614871583883654
174,12111.5734122449340011028421011311717,12110.0,1.5734122449340011028421011311717
175,12251.1745665297702834673950305339436,12249.6,1.5745665297702834673950305339436
176,12391.5757142366479837631493139797142,12390.0,1.5757142366479837631493139797142
177,12532.7768554401875722212686712889456,12531.2,1.5768554401875722212686712889456
178,12674.7779902137474096760952905399750,12673.2,1.5779902137474096760952905399750
179,12817.5791186294520609488203162479925,12816.0,1.5791186294520609488203162479925
180,12961.1802407582198206813200588471348,12959.6,1.5802407582198206813200588471348
181,13105.5813566697894742688606081891397,13104.0,1.5813566697894742688606081891397
182,13250.7824664327463215871768114003741,13249.2,1.5824664327463215871768114003741
183,13396.7835701145474865633212308380236,13395.2,1.5835701145474865633212308380236
184,13543.5846677815465368319439213552258,13542.0,1.5846677815465368319439213552258
185,13691.1857594990174352852547990869921,13689.6,1.5857594990174352852547990869921
186,13839.5868453311778444854159670446339,13838.0,1.5868453311778444854159670446339
187,13988.7879253412118077399959850846003,13987.2,1.5879253412118077399959850846003
188,14138.7889995912918222769357805170963,14137.2,1.5889995912918222769357805170963
189,14289.5900681426003282502512947946792,14288.0,1.5900681426003282502512947946792
190,14441.1911310553506292276892226463805,14439.6,1.5911310553506292276892226463805
191,14593.5921883888072633830289138466049,14592.0,1.5921883888072633830289138466049
192,14746.7932402013058417753759792877939,14745.2,1.5932402013058417753759792877939
193,14900.7942865502723720194410439313392,14899.2,1.5942865502723720194410439313392
194,15055.5953274922420806877354004495603,15054.0,1.5953274922420806877354004495603
195,15211.1963630828777523771926746782545,15209.6,1.5963630828777523771926746782545
196,15367.5973933769875991322700677902142,15366.0,1.5973933769875991322700677902142
197,15524.7984184285426746000073622590973,15523.2,1.5984184285426746000073622590973
198,15682.7994382906938470791819951699457,15681.2,1.5994382906938470791819951699457
199,15841.6004530157883442975778347973647,15840.0,1.6004530157883442975778347973647
200,16001.2014626553858838577328505695563,15999.6,1.6014626553858838577328505695563
201,16161.6024672602744003277528430457181,16160.0,1.6024672602744003277528430457181
202,16322.8034668804853823535167581017233,16321.2,1.6034668804853823535167581017233
203,16484.8044615653088304471691248677588,16483.2,1.6044615653088304471691248677588
204,16647.6054513633078470669832735459570,16646.0,1.6054513633078470669832735459570
205,16811.2064363223328689541301168643021,16809.6,1.6064363223328689541301168643021
206,16975.6074164895355547452783330231216,16974.0,1.6074164895355547452783330231216
207,17140.8083919113823337318830511766433,17139.2,1.6083919113823337318830511766433
208,17306.8093626336676299878043276310172,17305.2,1.6093626336676299878043276310172
209,17473.6103287015267676083239133559679,17472.0,1.6103287015267676083239133559679
210,17641.2112901594485685564040070825052,17639.6,1.6112901594485685564040070825052
211,17809.6122470512876504753939338783565,17808.0,1.6122470512876504753939338783565
212,17978.8131994202764346955614161831874,17977.2,1.6131994202764346955614161831874
213,18148.8141473090368688125954880845707,18147.2,1.6141473090368688125954880845707
214,18319.6150907595918788140265857433110,18318.0,1.6150907595918788140265857433110
215,18491.2160298133765499600584541600409,18489.6,1.6160298133765499600584541600409
216,18663.6169645112490503735355761755144,18662.0,1.6169645112490503735355761755144
217,18836.8178948935013012983589179257914,18835.2,1.6178948935013012983589179257914
218,19010.8188209998694029990769885097745,19009.2,1.6188209998694029990769885097745
219,19185.6197428695438195748707473531743,19184.0,1.6197428695438195748707473531743
220,19361.2206605411793351963458386316356,19359.6,1.6206605411793351963458386316356
221,19537.6215740529047796677147359657276,19536.0,1.6215740529047796677147359657276
222,19714.8224834423325405120331303219666,19713.2,1.6224834423325405120331303219666
223,19892.8233887465678551406237572193015,19891.2,1.6233887465678551406237572193015
224,20071.6242900022178981662958520197296,20070.0,1.6242900022178981662958520197296
225,20251.2251872454006664172184119857578,20249.6,1.6251872454006664172184119857578
226,20431.6260805117536651897084205596990,20430.0,1.6260805117536651897084205596990
227,20612.8269698364424043831069354173473,20611.2,1.6269698364424043831069354173473
228,20794.8278552541687063272784767176471,20793.2,1.6278552541687063272784767176471
229,20977.6287367991788324552147220717925,20976.0,1.6287367991788324552147220717925
230,21161.2296145052714335073254926635010,21159.6,1.6296145052714335073254926635010
231,21345.6304884058053250570346158091660,21344.0,1.6304884058053250570346158091660
232,21530.8313585337070987669514792147030,21529.2,1.6313585337070987669514792147030
233,21716.8322249214785643614830086261771,21715.2,1.6322249214785643614830086261771
234,21903.6330876012040384623176311832917,21902.0,1.6330876012040384623176311832917
235,22091.2339466045574734582546321215125,22089.6,1.6339466045574734582546321215125
236,22279.6348019628094361085268832524804,22278.0,1.6348019628094361085268832524804
237,22468.8356537068339395001338712005954,22467.2,1.6356537068339395001338712005954
238,22658.8365018671151300905900746810079,22657.2,1.6365018671151300905900746810079
