Eigenstate,Energy,Kinetic Energy,Potential Energy
1,0.500000000130003916068385070983010796,0.0,0.500000000130003916068385070983010796
2,1.84623093849971588875963018700518048,1.2,0.64623093849971588875963018700518048
3,3.93633761219768898779854435824694170,3.2,0.73633761219768898779854435824694170
4,6.79966528300632075052891942880553458,6.0,0.79966528300632075052891942880553458
5,10.4480465842795329062820289652535251,9.6,0.8480465842795329062820289652535251
6,14.8870660107876216268005764131912781,14.0,0.8870660107876216268005764131912781
7,20.1197208439761385340527893136007294,19.2,0.9197208439761385340527893136007294
8,26.1477838702259832740817190255847442,25.2,0.9477838702259832740817190255847442
9,32.9723835885458029105455595170563697,32.0,0.9723835885458029105455595170563697
10,40.5942802530857387176404315277702314,39.6,0.9942802530857387176404315277702314
11,49.0140094339879714319892545102330406,48.0,1.0140094339879714319892545102330406
12,58.2319622265580343763388376121232895,57.2,1.0319622265580343763388376121232895
13,68.2484327608625040731010605416625678,67.2,1.0484327608625040731010605416625678
14,79.0636477345852186511369970206855486,78.0,1.0636477345852186511369970206855486
15,90.6777855288414970546052371530572998,89.6,1.0777855288414970546052371530572998
16,103.090989013048605746301210020113459,102.0,1.090989013048605746301210020113459
17,116.303374378387277228585702592546205,115.2,1.103374378387277228585702592546205
18,130.315037388807919117887863229702758,129.2,1.115037388807919117887863229702758
19,145.126057904134598461801954601613189,144.0,1.126057904134598461801954601613189
20,160.736503217698982964410034379511581,159.6,1.136503217698982964410034379511581
21,177.146430562422041651635987172948744,176.0,1.146430562422041651635987172948744
22,194.355889021972787595993840357788668,193.2,1.155889021972787595993840357788668
23,212.364921008704804532526385683939431,211.2,1.164921008704804532526385683939431
24,231.173563421056670526814226740900913,230.0,1.173563421056670526814226740900913
25,250.781848560347885546815301492053912,249.6,1.181848560347885546815301492053912
26,271.189804864586460151402226857471992,270.0,1.189804864586460151402226857471992
27,292.397457501431492082842146694590567,291.2,1.197457501431492082842146694590567
28,314.404828851552206724696179232777552,313.2,1.204828851552206724696179232777552
29,337.211938905829909553585790501258166,336.0,1.211938905829909553585790501258166
30,360.818805594199811135873532789121945,359.6,1.218805594199811135873532789121945
31,385.225445059783746714452554120454705,384.0,1.225445059783746714452554120454705
32,410.431871888886912841948473529202842,409.2,1.231871888886912841948473529202842
33,436.438099305122095709470417736074912,435.2,1.238099305122095709470417736074912
34,463.244139334174319551657993973979165,462.0,1.244139334174319551657993973979165
35,490.850002944379648441415502286736234,489.6,1.250002944379648441415502286736234
36,519.255700167258395907937834371958111,518.0,1.255700167258395907937834371958111
37,548.461240201338912262183418828424224,547.2,1.261240201338912262183418828424224
38,578.466631501977700770098401425895441,577.2,1.266631501977700770098401425895441
39,609.271881859383765163833099527680835,608.0,1.271881859383765163833099527680835
40,640.876998466659270197224127211961059,639.6,1.276998466659270197224127211961059
41,673.281987979351846677764492583609913,672.0,1.281987979351846677764492583609913
42,706.486856567758879805519456410273347,705.2,1.286856567758879805519456410273347
43,740.491609963017633304324373983326626,739.2,1.291609963017633304324373983326626
44,775.296253497846967814933200986284944,774.0,1.296253497846967814933200986284944
45,810.900792142668842450659050008974345,809.6,1.300792142668842450659050008974345
46,847.305230537724652133349685844747365,846.0,1.305230537724652133349685844747365
47,884.509573021707976715124398820427214,883.2,1.309573021707976715124398820427214
48,922.513823657357731526981979245967093,921.2,1.313823657357731526981979245967093
49,961.317986254391046451436457500784574,960.0,1.317986254391046451436457500784574
50,1000.92206439010107790263774251306896,999.6,1.32206439010107790263774251306896
51,1041.32606142789949113492390653477216,1040.0,1.32606142789949113492390653477216
52,1082.52998053404500508642046158373709,1081.2,1.32998053404500508642046158373709
53,1124.53382469276694184572966078904754,1123.2,1.33382469276694184572966078904754
54,1167.33759671996516169827490792225236,1166.0,1.33759671996516169827490792225236
55,1210.94129927564428921633475914868954,1209.6,1.34129927564428921633475914868954
56,1255.34493487522006128666048287493645,1254.0,1.34493487522006128666048287493645
57,1300.54850589981842900443881286469548,1299.2,1.34850589981842900443881286469548
58,1346.55201460567324817606014262427926,1345.2,1.35201460567324817606014262427926
59,1393.35546313271563922586691714094873,1392.0,1.35546313271563922586691714094873
60,1440.95885351243707279434766119382096,1439.6,1.35885351243707279434766119382096
61,1489.36218767509867308773026888660472,1488.0,1.36218767509867308773026888660472
62,1538.56546745635093003380928563100035,1537.2,1.36546745635093003380928563100035
63,1588.56869460332076940981611802399915,1587.2,1.36869460332076940981611802399915
64,1639.37187078021661762821498590614751,1638.0,1.37187078021661762821498590614751
65,1690.97499757349656302633143030125144,1689.6,1.37499757349656302633143030125144
66,1743.37807649663986816666242636329054,1742.0,1.37807649663986816666242636329054
67,1796.58110899455782536338923134826870,1795.2,1.38110899455782536338923134826870
68,1850.58409644767619148980317754458439,1849.2,1.38409644767619148980317754458439
69,1905.38704017571812545062634307573531,1904.0,1.38704017571812545062634307573531
70,1960.98994144121362343494246369325303,1959.6,1.38994144121362343494246369325303
71,2017.39280145275884836172253713018719,2016.0,1.39280145275884836172253713018719
72,2074.59562136804645168754693320145560,2073.2,1.39562136804645168754693320145560
73,2132.59840229668593273972297712018002,2131.2,1.39840229668593273972297712018002
74,2191.40114530283126188944231447623986,2190.0,1.40114530283126188944231447623986
75,2251.00385140763136277851954585653143,2249.6,1.40385140763136277851954585653143
76,2311.40652159151759925649718420849543,2310.0,1.40652159151759925649718420849543
77,2372.60915679634111028648425322892843,2371.2,1.40915679634111028648425322892843
78,2434.61175792737167027991496534046867,2433.2,1.41175792737167027991496534046867
79,2497.41432585516870550042166836570022,2496.0,1.41432585516870550042166836570022
80,2561.01686141733415905137141334439373,2559.6,1.41686141733415905137141334439373
81,2625.41936542015604762013965273108236,2624.0,1.41936542015604762013965273108236
82,2690.62183864015079170164006580550774,2689.2,1.42183864015079170164006580550774
83,2756.62428182551171228984101758119871,2755.2,1.42428182551171228984101758119871
84,2823.42669569747046273428238509719057,2822.0,1.42669569747046273428238509719057
85,2891.02908095157760518243368385491411,2889.6,1.42908095157760518243368385491411
86,2959.43143825890802516334465172911957,2958.0,1.43143825890802516334465172911957
87,3028.63376826719642039724096696487775,3027.2,1.43376826719642039724096696487775
88,3098.63607160190767653798125526972937,3097.2,1.43607160190767653798125526972937
89,3169.43834886724655905313126683692606,3168.0,1.43834886724655905313126683692606
90,3241.04060064711080722968186033358321,3239.6,1.44060064711080722968186033358321
91,3313.44282750599139484138771270418048,3312.0,1.44282750599139484138771270418048
92,3386.64502998982343371616416550514566,3385.2,1.44502998982343371616416550514566
93,3460.64720862679093418692552172439197,3459.2,1.44720862679093418692552172439197
94,3535.44936392808839348050985592919340,3534.0,1.44936392808839348050985592919340
95,3611.05149638864196194530729416653569,3609.6,1.45149638864196194530729416653569
96,3687.45360648779273519609267454597004,3686.0,1.45360648779273519609267454597004
97,3764.65569468994453591245512161359085,3763.2,1.45569468994453591245512161359085
98,3842.65776144517837615292186199409175,3841.2,1.45776144517837615292186199409175
99,3921.45980718983563757468676478463770,3920.0,1.45980718983563757468676478463770
100,4001.06183234707186060843705937992646,3999.6,1.46183234707186060843705937992646
101,4081.46383732738290433361931584237339,4080.0,1.46383732738290433361931584237339
102,4162.66582252910511322476444794811659,4161.2,1.46582252910511322476444794811659
103,4244.66778833889101902587982474298356,4243.2,1.46778833889101902587982474298356
104,4327.46973513216199874520744136988692,4326.0,1.46973513216199874520744136988692
105,4411.07166327353921668888959494269545,4409.6,1.47166327353921668888959494269545
106,4495.47357311725408768784219978203954,4494.0,1.47357311725408768784219978203954
107,4580.67546500753942059018042850662864,4579.2,1.47546500753942059018042850662864
108,4666.67733927900232185198774457799657,4665.2,1.47733927900232185198774457799657
109,4753.47919625697987046568689028157886,4752.0,1.47919625697987046568689028157886
110,4841.08103625787851304514634067390386,4839.6,1.48103625787851304514634067390386
111,4929.48285958949806202545854904812061,4928.0,1.48285958949806202545854904812061
112,5018.68466655134113050169407726609025,5017.2,1.48466655134113050169407726609025
113,5108.68645743490878169514187338378069,5107.2,1.48645743490878169514187338378069
114,5199.48823252398312227779113905171168,5198.0,1.48823252398312227779113905171168
115,5291.08999209489752833730850983210157,5289.6,1.48999209489752833730850983210157
116,5383.49173641679514443311711235047807,5382.0,1.49173641679514443311711235047807
117,5476.69346575187626448117797304360110,5475.2,1.49346575187626448117797304360110
118,5570.69518035563516217397025087450872,5569.2,1.49518035563516217397025087450872
119,5665.49688047708690492845129666709170,5664.0,1.49688047708690492845129666709170
120,5761.09856635898465951254349669925398,5759.6,1.49856635898465951254349669925398
121,5857.50023823802795923345220116091347,5856.0,1.50023823802795923345220116091347
122,5954.70189634506238365798665126345172,5953.2,1.50189634506238365798665126345172
123,6052.70354090527106964212581463761076,6051.2,1.50354090527106964212581463761076
124,6151.50517213835845476726265764339697,6150.0,1.50517213835845476726265764339697
125,6251.10679025872662471429950239241253,6249.6,1.50679025872662471429950239241253
126,6351.50839547564462090946984974556891,6350.0,1.50839547564462090946984974556891
127,6452.70998799341104419787709610994169,6451.2,1.50998799341104419787709610994169
128,6554.71156801151026771355251847813277,6553.2,1.51156801151026771355251847813277
129,6657.51313572476256004159733568959791,6656.0,1.51313572476256004159733568959791
130,6761.11469132346840138610790613519644,6759.6,1.51469132346840138610790613519644
131,6865.51623499354726005346658569067526,6864.0,1.51623499354726005346658569067526
132,6970.71776691667108158338166398949387,6969.2,1.51776691667108158338166398949387
133,7076.71928727039273107847540922978639,7075.2,1.51928727039273107847540922978639
134,7183.52079622826961800726450941961449,7182.0,1.52079622826961800726450941961449
135,7291.12229395998271464703428995939331,7289.6,1.52229395998271464703428995939331
136,7399.52378063145117564557879417961235,7398.0,1.52378063145117564557879417961235
137,7508.72525640494275287283875098962478,7507.2,1.52525640494275287283875098962478
138,7618.72672143918018612147826981587375,7617.2,1.52672143918018612147826981587375
139,7729.52817588944374810953823642554989,7728.0,1.52817588944374810953823642554989
140,7841.12961990767010679233708548072126,7839.6,1.52961990767010679233708548072126
141,7953.53105364254766343330125891381665,7952.0,1.53105364254766343330125891381665
142,8066.73247723960851681014291245506856,8065.2,1.53247723960851681014291245506856
143,8180.73389084131719528263357219072682,8179.2,1.53389084131719528263357219072682
144,8295.53529458715629126858831268263795,8294.0,1.53529458715629126858831268263795
145,8411.13668861370912848691653852446193,8409.6,1.53668861370912848691653852446193
146,8527.53807305473958445784731036050233,8526.0,1.53807305473958445784731036050233
147,8644.73944804126918254747208731970733,8643.2,1.53944804126918254747208731970733
148,8762.74081370165156888571640551595362,8761.2,1.54081370165156888571640551595362
149,8881.54217016164447595878016983567607,8880.0,1.54217016164447595878016983567607
150,9001.14351754447927651700923243499831,8999.6,1.54351754447927651700923243499831
151,9121.54485597092822371254188322063845,9120.0,1.54485597092822371254188322063845
152,9242.74618555936946776598776176277257,9241.2,1.54618555936946776598776176277257
153,9364.74750642584993811192472848817452,9363.2,1.54750642584993811192472848817452
154,9487.54881868414617492254767899992638,9486.0,1.54881868414617492254767899992638
155,9611.15012244582318824555593301692380,9609.6,1.55012244582318824555593301692380
156,9735.55141782029142262273852832357460,9734.0,1.55141782029142262273852832357460
157,9860.75270491486189823595737807020508,9859.2,1.55270491486189823595737807020508
158,9986.75398383479960039872956156823177,9985.2,1.55398383479960039872956156823177
159,10113.5552546833751810663421267092349,10112.0,1.5552546833751810663421267092349
160,10241.1565175619150387021420871674525,10239.6,1.5565175619150387021420871674525
161,10369.5577725698498349962250633238982,10368.0,1.5577725698498349962250633238982
162,10498.7590198047615078977303358056213,10497.2,1.5590198047615078977303358056213
163,10628.7602593624288358141496939128304,10627.2,1.5602593624288358141496939128304
164,10759.5614913368716076143559934634871,10758.0,1.5614913368716076143559934634871
165,10891.1627158203934470356823593436221,10889.6,1.5627158203934470356823593436221
166,11023.5639329036233420107557482534196,11022.0,1.5639329036233420107557482534196
167,11156.7651426755559261465224697506666,11155.2,1.5651426755559261465224697506666
168,11290.7663452235905550445007633559437,11289.2,1.5663452235905550445007633559437
169,11425.5675406335692225244729272134821,11424.0,1.5675406335692225244729272134821
170,11561.1687289898133564948598176141869,11559.6,1.5687289898133564948598176141869
171,11697.5699103751595346643665390030708,11696.0,1.5699103751595346643665390030708
172,11834.7710848709941579616888207547574,11833.2,1.5710848709941579616888207547574
173,11972.7722525572871170657443249096793,11971.2,1.5722525572871170657443249096793
174,12111.5734135126244878900819253854338,12110.0,1.5734135126244878900819253854338
175,12251.1745678142402900065396833892877,12249.6,1.5745678142402900065396833892877
176,12391.5757155380473377146486239160824,12390.0,1.5757155380473377146486239160824
177,12532.7768567586672170174657996482617,12531.2,1.5768567586672170174657996482617
178,12674.7779915494594176583812315024431,12673.2,1.5779915494594176583812315024431
179,12817.5791199825496466639970795403312,12816.0,1.5791199825496466639970795403312
180,12961.1802421288573543396344042327131,12959.6,1.5802421288573543396344042327131
181,13105.5813580581224953662105217325246,13104.0,1.5813580581224953662105217325246
182,13250.7824678389315526940357699422123,13249.2,1.5824678389315526940357699422123
183,13396.7835715387428472829686904211828,13395.2,1.5835715387428472829686904211828
184,13543.5846692239111579306342712341457,13542.0,1.5846692239111579306342712341457
185,13691.1857609597116729970019168344652,13689.6,1.5857609597116729970019168344652
186,13839.5868468103632949941161408030734,13838.0,1.5868468103632949941161408030734
187,13988.7879268390513218416597981012538,13987.2,1.5879268390513218416597981012538
188,14138.7890011079495202248451169493774,14137.2,1.5890011079495202248451169493774
189,14289.5900696782416147859083878580577,14288.0,1.5900696782416147859083878580577
190,14441.1911326101422088004727568890053,14439.6,1.5911326101422088004727568890053
191,14593.5921899629171555615234499104889,14592.0,1.5921899629171555615234499104889
192,14746.7932417949033968533920037358830,14745.2,1.5932417949033968533920037358830
193,14900.7942881635282868197963756473519,14899.2,1.5942881635282868197963756473519
194,15055.5953291253284145669212594140322,15054.0,1.5953291253284145669212594140322
195,15211.1963647359679434341032102884144,15209.6,1.5963647359679434341032102884144
196,15367.5973950502564806242298216340274,15366.0,1.5973950502564806242298216340274
197,15524.7984201221664915693879168159856,15523.2,1.5984201221664915693879168159856
198,15682.7994400048502731939571952021147,15681.2,1.5994400048502731939571952021147
199,15841.6004547506564989092266479309786,15840.0,1.6004547506564989092266479309786
200,16001.2014644111463492799587873659277,15999.6,1.6014644111463492799587873659277
201,16161.6024690371092393395508752213573,16160.0,1.6024690371092393395508752213573
202,16322.8034686785781559301822021735113,16321.2,1.6034686785781559301822021735113
203,16484.8044633848446157229061560165348,16483.2,1.6044633848446157229061560165348
204,16647.6054532044732555328376160156446,16646.0,1.6054532044732555328376160156446
205,16811.2064381853160648950357980260762,16809.6,1.6064381853160648950357980260762
206,16975.6074183745262739200786341760664,16974.0,1.6074183745262739200786341760664
207,17140.8083938185719023002537586547048,17139.2,1.6083938185719023002537586547048
208,17306.8093645632489836880797346093752,17305.2,1.6093645632489836880797346093752
209,17473.6103306536944711902983426195619,17472.0,1.6103306536944711902983426195619
210,17641.2112921343988354732554170733629,17639.6,1.6112921343988354732554170733629
211,17809.6122490492183628389526664480560,17808.0,1.6122490492183628389526664480560
212,17978.8132014413871634992236247648411,17977.2,1.6132014413871634992236247648411
213,18148.8141493535288944262599262542012,18147.2,1.6141493535288944262599262542012
214,18319.6150928276682117555148904716860,18318.0,1.6150928276682117555148904716860
215,18491.2160319052419519475601022839357,18489.6,1.6160319052419519475601022839357
216,18663.6169666271100556637028701334333,18662.0,1.6169666271100556637028701334333
217,18836.8178970335662383147640463472650,18835.2,1.6178970335662383147640463472650
218,19010.8188231643484162558295979016248,19009.2,1.6188231643484162558295979016248
219,19185.6197450586488919002853423237738,19184.0,1.6197450586488919002853423237738
220,19361.2206627551243102616376134834338,19359.6,1.6206627551243102616376134834338
221,19537.6215762919053848257983624570228,19536.0,1.6215762919053848257983624570228
222,19714.8224857066064099515915452440605,19713.2,1.6224857066064099515915452440605
223,19892.8233910363345533607136370294343,19891.2,1.6233910363345533607136370294343
224,20071.6242923176989437768547665216859,20070.0,1.6242923176989437768547665216859
225,20251.2251895868195562709400640080374,20249.6,1.6251895868195562709400640080374
226,20431.6260828793358988508566248163518,20430.0,1.6260828793358988508566248163518
227,20612.8269722304155089389451997965449,20611.2,1.6269722304155089389451997965449
228,20794.8278576747622615478993044834531,20793.2,1.6278576747622615478993044834531
229,20977.6287392466244963076643373278275,20976.0,1.6287392466244963076643373278275
230,21161.2296169798029680300327572032093,21159.6,1.6296169798029680300327572032093
231,21345.6304909076586226006676818827854,21344.0,1.6304909076586226006676818827854
232,21530.8313610631202086079445174718816,21529.2,1.6313610631202086079445174718816
233,21716.8322274786917196945955656082760,21715.2,1.6322274786917196945955656082760
234,21903.6330901864596837787128908524639,21902.0,1.6330901864596837787128908524639
235,22091.2339492181002923157079962026409,22089.6,1.6339492181002923157079962026409
236,22279.6348046048863793005066911027881,22278.0,1.6348046048863793005066911027881
237,22468.8356563776942536306256334540027,22467.2,1.6356563776942536306256334540027
238,22658.8365045670103865616720335116202,22657.2,1.6365045670103865616720335116202
