Eigenstate,Energy,Kinetic Energy,Potential Energy
1,0.500000000062252137845617513472072907,0.0,0.500000000062252137845617513472072907
2,1.84623093805746453804480613701976344,1.2,0.64623093805746453804480613701976344
3,3.93633761089859741760681631268162220,3.2,0.73633761089859741760681631268162220
4,6.79966528030042164343394329889095211,6.0,0.79966528030042164343394329889095211
5,10.4480465795922742933478607580918561,9.6,0.8480465795922742933478607580918561
6,14.8870660035343406364006473104559036,14.0,0.8870660035343406364006473104559036
7,20.1197208335673860095340033607290924,19.2,0.9197208335673860095340033607290924
8,26.1477838560697367035835318621743068,25.2,0.9477838560697367035835318621743068
9,32.9723835700484884057451991312480174,32.0,0.9723835700484884057451991312480174
10,40.5942802296527432276916922009489875,39.6,0.9942802296527432276916922009489875
11,49.0140094050239149741724813016964189,48.0,1.0140094050239149741724813016964189
12,58.2319621914669199655912216967151725,57.2,1.0319621914669199655912216967151725
13,68.2484327190478010610098051907412911,67.2,1.0484327190478010610098051907412911
14,79.0636476854499077325123938415716212,78.0,1.0636476854499077325123938415716212
15,90.6777854717880921392390690208884704,89.6,1.0777854717880921392390690208884704
16,103.090988947479161288845997284214797,102.0,1.090988947479161288845997284214797
17,116.303374303703386089265149482759550,115.2,1.103374303703386089265149482759550
18,130.315037304410704062961598777392980,129.2,1.115037304410704062961598777392980
19,145.126057809424699272643055376542629,144.0,1.126057809424699272643055376542629
20,160.736503112076540438558986487390971,159.6,1.136503112076540438558986487390971
21,177.146430445286679354003783477446705,176.0,1.146430445286679354003783477446705
22,194.355888892723591947239840080599746,193.2,1.155888892723591947239840080599746
23,212.364920866740303644372129522791111,211.2,1.164920866740303644372129522791111
24,231.173563265774812075541203222940317,230.0,1.173563265774812075541203222940317
25,250.781848391146013895337047049935062,249.6,1.181848391146013895337047049935062
26,271.189804680861292874107912323253385,270.0,1.189804680861292874107912323253385
27,292.397457302579096007693142797120371,291.2,1.197457302579096007693142797120371
28,314.404828636967973578550790234150068,313.2,1.204828636967973578550790234150068
29,337.211938674908531275974133309691181,336.0,1.211938674908531275974133309691181
30,360.818805346335254911136607245709707,359.6,1.218805346335254911136607245709707
31,385.225444794369229760730264719312545,384.0,1.225444794369229760730264719312545
32,410.431871605314876986871450483111723,409.2,1.231871605314876986871450483111723
33,436.438099002784181775825452971010009,435.2,1.238099002784181775825452971010009
34,463.244139012461341571222744054022796,462.0,1.244139012461341571222744054022796
35,490.850002602681567711212049410210318,489.6,1.250002602681567711212049410210318
36,519.255699804964294900059311360245836,518.0,1.255699804964294900059311360245836
37,548.461239817836968395899806127663898,547.2,1.261239817836968395899806127663898
38,578.466631096655160052996577934395114,577.2,1.266631096655160052996577934395114
39,609.271881431626915707179762202237601,608.0,1.271881431626915707179762202237601
40,640.876998015853415609473628963273575,639.6,1.276998015853415609473628963273575
41,673.281987504881279339102816195930193,672.0,1.281987504881279339102816195930193
42,706.486856069006854025490878881357225,705.2,1.286856069006854025490878881357225
43,740.491609439366338363891071585908086,739.2,1.291609439366338363891071585908086
44,775.296252948677500893740585032354472,774.0,1.296252948677500893740585032354472
45,810.900791567361181439797591391207351,809.6,1.300791567361181439797591391207351
46,847.305229935657628333499486473006485,846.0,1.305229935657628333499486473006485
47,884.509572392259247419627347751141458,883.2,1.309572392259247419627347751141458
48,922.513822999903752489096226214020609,921.2,1.313822999903752489096226214020609
49,961.317985568307044234780296037835502,960.0,1.317985568307044234780296037835502
50,1000.92206367476102211361728080960108,999.6,1.32206367476102211361728080960108
51,1041.32606068267606653575487052244146,1040.0,1.32606068267606653575487052244146
52,1082.52997975830958358719470461038681,1081.2,1.32997975830958358719470461038681
53,1124.53382388588955437383716136462413,1123.2,1.33382388588955437383716136462413
54,1167.33759588131446994336882924615351,1166.0,1.33759588131446994336882924615351
55,1210.94129840458755724891825751365220,1209.6,1.34129840458755724891825751365220
56,1255.34493397112312704827672743147183,1254.0,1.34493397112312704827672743147183
57,1300.54850496204567566735858845737500,1299.2,1.34850496204567566735858845737500
58,1346.55201363358757537028239426286442,1345.2,1.35201363358757537028239426286442
59,1393.35546212567843413117630484548655,1392.0,1.35546212567843413117630484548655
60,1440.95885246980818109510743886456208,1439.6,1.35885246980818109510743886456208
61,1489.36218659623636978802842619630535,1488.0,1.36218659623636978802842619630535
62,1538.56546634061189013051976332261409,1537.2,1.36546634061189013051976332261409
63,1588.56869345006003842108464251175853,1587.2,1.36869345006003842108464251175853
64,1639.37186958878758197482987099202673,1638.0,1.37186958878758197482987099202673
65,1690.97499634325092026339292854704361,1689.6,1.37499634325092026339292854704361
66,1743.37807522692759706292016866502365,1742.0,1.37807522692759706292016866502365
67,1796.58110768472715582557475593371415,1795.2,1.38110768472715582557475593371415
68,1850.58409509707357432924383274175301,1849.2,1.38409509707357432924383274175301
69,1905.38703878368820198938715681464625,1904.0,1.38703878368820198938715681464625
70,1960.98994000709919494870467310365829,1959.6,1.38994000709919494870467310365829
71,2017.39279997590084535656945879595999,2016.0,1.39279997590084535656945879595999
72,2074.59561984778390300779170098425211,2073.2,1.39561984778390300779170098425211
73,2132.59840073235593450387613707320975,2131.2,1.39840073235593450387613707320975
74,2191.40114369376894625138183804742137,2190.0,1.40114369376894625138183804742137
75,2251.00384975316986651089035578778029,2249.6,1.40384975316986651089035578778029
76,2311.40651989098803215333239370718426,2310.0,1.40651989098803215333239370718426
77,2372.60915504907252338200517523152331,2371.2,1.40915504907252338200517523152331
78,2434.61175613269102388043215418503152,2433.2,1.41175613269102388043215418503152
79,2497.41432401240083702622431260120727,2496.0,1.41432401240083702622431260120727
80,2561.01685952580175068545758171950877,2559.6,1.41685952580175068545758171950877
81,2625.41936347917959376060449076920073,2624.0,1.41936347917959376060449076920073
82,2690.62183664904856621450418081501179,2689.2,1.42183664904856621450418081501179
83,2756.62427978359973555906530915831910,2755.2,1.42427978359973555906530915831910
84,2823.42669360406246850568015187693043,2822.0,1.42669360406246850568015187693043
85,2891.02907880598500719815442496018285,2889.6,1.42907880598500719815442496018285
86,2959.43143606043988358356786023226455,2958.0,1.43143606043988358356786023226455
87,3028.63376601515940800568086588965193,3027.2,1.43376601515940800568086588965193
88,3098.63606929560604472776662491480013,3097.2,1.43606929560604472776662491480013
89,3169.43834650598210358958651833494737,3168.0,1.43834650598210358958651833494737
90,3241.04059823018283378649750672462681,3239.6,1.44059823018283378649750672462681
91,3313.44282503269668430662934846051523,3312.0,1.44282503269668430662934846051523
92,3386.64502745945620726453031332559182,3385.2,1.44502745945620726453031332559182
93,3460.64720603864281811462455742244448,3459.2,1.44720603864281811462455742244448
94,3535.44936128144838379908604671863659,3534.0,1.44936128144838379908604671863659
95,3611.05149368279638873070509299157902,3609.6,1.45149368279638873070509299157902
96,3687.45360372202522668920688290993724,3686.0,1.45360372202522668920688290993724
97,3764.65569186353598236737216314602605,3763.2,1.45569186353598236737216314602605
98,3842.65775855740689342901507707172509,3841.2,1.45775855740689342901507707172509
99,3921.45980423997653046868456803384509,3920.0,1.45980423997653046868456803384509
100,4001.06182933439758592253922195357640,3999.6,1.46182933439758592253922195357640
101,4081.46383425116303367569137815989696,4080.0,1.46383425116303367569137815989696
102,4162.66581938860629553659497721197759,4161.2,1.46581938860629553659497721197759
103,4244.66778513337694283543882674574744,4243.2,1.46778513337694283543882674574744
104,4327.46973186089335413879710165758806,4326.0,1.46973186089335413879710165758806
105,4411.07165993577365699903101319099591,4409.6,1.47165993577365699903101319099591
106,4495.47356971224619089269297593358008,4494.0,1.47356971224619089269297593358008
107,4580.67546153454065042022840370866021,4579.2,1.47546153454065042022840370866021
108,4666.67733573726098859971658719887689,4665.2,1.47733573726098859971658719887689
109,4753.47919264574109149385752380170411,4752.0,1.47919264574109149385752380170411
110,4841.08103257638417298928677130543291,4839.6,1.48103257638417298928677130543291
111,4929.48285583698677268610188282888437,4928.0,1.48285583698677268610188282888437
112,5018.68466272704819042185062231798635,5017.2,1.48466272704819042185062231798635
113,5108.68645353806613541843709161636185,5107.2,1.48645353806613541843709161636185
114,5199.48822855381931928264553510771416,5198.0,1.48822855381931928264553510771416
115,5291.08998805063768164247933442302080,5289.6,1.48998805063768164247933442302080
116,5383.49173229766088886986425134807671,5382.0,1.49173229766088886986425134807671
117,5476.69346155708571462725850839440327,5475.2,1.49346155708571462725850839440327
118,5570.69517608440286994460666415008826,5569.2,1.49517608440286994460666415008826
119,5665.49687612862381681935798231037396,5664.0,1.49687612862381681935798231037396
120,5761.09856193249807349003542299992079,5759.6,1.49856193249807349003542299992079
121,5857.50023373272148126659660720545312,5856.0,1.50023373272148126659660720545312
122,5954.70189176013588388769609745931258,5953.2,1.50189176013588388769609745931258
123,6052.70353623992063818202573497324245,6051.2,1.50353623992063818202573497324245
124,6151.50516739177635713110180903933135,6150.0,1.50516739177635713110180903933135
125,6251.10678543010125686460441213041074,6249.6,1.50678543010125686460441213041074
126,6351.50839056416046392207695339985312,6350.0,1.50839056416046392207695339985312
127,6452.70998299824861853690752114186318,6451.2,1.50998299824861853690752114186318
128,6554.71156293184608711132404587557092,6553.2,1.51156293184608711132404587557092
129,6657.51313055976908497789701744302948,6656.0,1.51313055976908497789701744302948
130,6761.11468607231399216117641783796471,6759.6,1.51468607231399216117641783796471
131,6865.51622965539612944897154335348191,6864.0,1.51622965539612944897154335348191
132,6970.71776149068324710558200792874488,6969.2,1.51776149068324710558200792874488
133,7076.71928175572396677770340461466533,7075.2,1.51928175572396677770340461466533
134,7183.52079062407140586777360210430706,7182.0,1.52079062407140586777360210430706
135,7291.12228826540219554118232625854470,7289.6,1.52228826540219554118232625854470
136,7399.52377484563109984623663171310449,7398.0,1.52377484563109984623663171310449
137,7508.72525052702143011783169367736325,7507.2,1.52525052702143011783169367736325
138,7618.72671546829143522378543947249066,7617.2,1.52671546829143522378543947249066
139,7729.52816982471684610689033710770499,7728.0,1.52816982471684610689033710770499
140,7841.12961374822973762976721985522869,7839.6,1.52961374822973762976721985522869
141,7953.53104738751386617211627599155639,7952.0,1.53104738751386617211627599155639
142,8066.73247088809663335669358224298399,8065.2,1.53247088809663335669358224298399
143,8180.73388439243781763017195513283813,8179.2,1.53388439243781763017195513283813
144,8295.53528804001520824540845586194901,8294.0,1.53528804001520824540845586194901
145,8411.13668196740727200388143253120677,8409.6,1.53668196740727200388143253120677
146,8527.53806630837297524830955526553042,8526.0,1.53806630837297524830955526553042
147,8644.73944119392887539249934984995448,8643.2,1.53944119392887539249934984995448
148,8762.74080675242359731743416147356204,8761.2,1.54080675242359731743416147356204
149,8881.54216310960979643454390524965973,8880.0,1.54216310960979643454390524965973
150,9001.14351038871371205701714070726559,8999.6,1.54351038871371205701714070726559
151,9121.54484871050240699339431933190414,9120.0,1.54484871050240699339431933190414
152,9242.74617819334878366259545709332149,9241.2,1.54617819334878366259545709332149
153,9364.74749895329446568005967457146185,9363.2,1.54749895329446568005967457146185
154,9487.54881110411062881422191450814688,9486.0,1.54881110411062881422191450814688
155,9611.15011475735685954930247227566348,9609.6,1.55011475735685954930247227566348
156,9735.55141002243811912075536995728152,9734.0,1.55141002243811912075536995728152
157,9860.75269700665988406996089381614815,9859.2,1.55269700665988406996089381614815
158,9986.75397581528153513624624821374892,9985.2,1.55397581528153513624624821374892
159,10113.5552465515680581590497071894835,10112.0,1.5552465515680581590497071894835
160,10241.1565093168401233277483767520989,10239.6,1.5565093168401233277483767520989
161,10369.5577642105226012752510375567976,10368.0,1.5577642105226012752510375567976
162,10498.7590113301915754764379211222615,10497.2,1.5590113301915754764379211222615
163,10628.7602507716199058047274215162833,10627.2,1.5602507716199058047274215162833
164,10759.5614826288213978833457941665052,10758.0,1.5614826288213978833457941665052
165,10891.1627069940936268314983968973929,10889.6,1.5627069940936268314983968973929
166,11023.5639239580594659210121269798153,11022.0,1.5639239580594659210121269798153
167,11156.7651336097073673757498909929322,11155.2,1.5651336097073673757498909929322
168,11290.7663360364304380026922966373193,11289.2,1.5663360364304380026922966373193
169,11425.5675313240643547167581179029432,11424.0,1.5675313240643547167581179029432
170,11561.1687195569241597024615466442370,11559.6,1.5687195569241597024615466442370
171,11697.5699008178399754068483759197895,11696.0,1.5699008178399754068483759197895
172,11834.7710751881916772303512886008297,11833.2,1.5710751881916772303512886008297
173,11972.7722427479425593178768978266397,11971.2,1.5722427479425593178768978266397
174,12111.5734035756720292936209216143361,12110.0,1.5734035756720292936209216143361
175,12251.1745577486073659245269291388502,12249.6,1.5745577486073659245269291388502
176,12391.5757053426545694187238882719585,12390.0,1.5757053426545694187238882719585
177,12532.7768464324283376194627793874212,12531.2,1.5768464324283376194627793874212
178,12674.7779810912811972489312475324402,12673.2,1.5779810912811972489312475324402
179,12817.5791093913318166468750453184261,12816.0,1.5791093913318166468750453184261
180,12961.1802314034925309504084264715310,12959.6,1.5802314034925309504084264715310
181,13105.5813471974961023635828705022110,13104.0,1.5813471974961023635828705022110
182,13250.7824568419217432120827321760268,13249.2,1.5824568419217432120827321760268
183,13396.7835604042204248323056318706017,13395.2,1.5835604042204248323056318706017
184,13543.5846579507394965363470311225578,13542.0,1.5846579507394965363470311225578
185,13691.1857495467466364609963511692258,13689.6,1.5857495467466364609963511692258
186,13839.5868352564531552693473754970754,13838.0,1.5868352564531552693473754970754
187,13988.7879151430366765055049936611092,13987.2,1.5879151430366765055049936611092
188,14138.7889892686632090386861520861984,14137.2,1.5889892686632090386861520861984
189,14289.5900576945086353277870995528788,14288.0,1.5900576945086353277870995528788
190,14441.1911204807796311574758165676379,14439.6,1.5911204807796311574758165676379
191,14593.5921776867340360683423097944141,14592.0,1.5921776867340360683423097944141
192,14746.7932293707006908632903722756094,14745.2,1.5932293707006908632903722756094
193,14900.7942755900987604939989189007114,14899.2,1.5942755900987604939989189007114
194,15055.5953164014565556682152040365332,15054.0,1.5953164014565556682152040365332
195,15211.1963518604298711102179869243155,15209.6,1.5963518604298711102179869243155
196,15367.5973820218198541663296687824621,15366.0,1.5973820218198541663296687824621
197,15524.7984069395904181307770782764890,15523.2,1.5984069395904181307770782764890
198,15682.7994266668852144538586249947315,15681.2,1.5994266668852144538586249947315
199,15841.6004412560441766662506343996037,15840.0,1.6004412560441766662506343996037
200,16001.2014507586196499596303991201377,15999.6,1.6014507586196499596303991201377
201,16161.6024552253921174000124605340949,16160.0,1.6024552253921174000124605340949
202,16322.8034547063855361499272768871960,16321.2,1.6034547063855361499272768871960
203,16484.8044492508822943541415442039857,16483.2,1.6044492508822943541415442039857
204,16647.6054389074378003038004169028108,16646.0,1.6054389074378003038004169028108
205,16811.2064237238947138443212794588446,16809.6,1.6064237238947138443212794588446
206,16975.6074037473968330457551618537639,16974.0,1.6074037473968330457551618537639
207,17140.8083790244026420062600392363435,17139.2,1.6083790244026420062600392363435
208,17306.8093496006985340101090765663708,17305.2,1.6093496006985340101090765663708
209,17473.6103155214117157830818703440657,17472.0,1.6103155214117157830818703440657
210,17641.2112768310228043408562078540060,17639.6,1.6112768310228043408562078540060
211,17809.6122335733781237893773092246861,17808.0,1.6122335733781237893773092246861
212,17978.8131857917017123043465758270175,17977.2,1.6131857917017123043465758270175
213,18148.8141335286070436677381671706416,18147.2,1.6141335286070436677381671706416
214,18319.6150768261084783370476578363419,18318.0,1.6150768261084783370476578363419
215,18491.2160157256324432535185084891544,18489.6,1.6160157256324432535185084891544
216,18663.6169502680283543438180998479008,18662.0,1.6169502680283543438180998479008
217,18836.8178804935792856742201381060787,18835.2,1.6178804935792856742201381060787
218,19010.8188064420123942297580357076977,19009.2,1.6188064420123942297580357076977
219,19185.6197281525091035913011710185830,19184.0,1.6197281525091035913011710185830
220,19361.2206456637150590186958218162353,19359.6,1.6206456637150590186958218162353
221,19537.6215590137498518422768691075463,19536.0,1.6215590137498518422768691075463
222,19714.8224682402165303601313726368965,19713.2,1.6224682402165303601313726368965
223,19892.8233733802108908019606251766600,19891.2,1.6233733802108908019606251766600
224,20071.6242744703305634188555533412870,20070.0,1.6242744703305634188555533412870
225,20251.2251715466838962555439661907482,20249.6,1.6251715466838962555439661907482
226,20431.6260646448986401430673398924968,20430.0,1.6260646448986401430673398924968
227,20612.8269538001304435547498892765092,20611.2,1.6269538001304435547498892765092
228,20794.8278390470711591356772196068515,20793.2,1.6278390470711591356772196068515
229,20977.6287204199569690578445813192930,20976.0,1.6287204199569690578445813192930
230,21161.2295979525763338872292760660305,21159.6,1.6295979525763338872292760660305
231,21345.6304716782777667520673951758967,21344.0,1.6304716782777667520673951758967
232,21530.8313416299774432212667204011977,21529.2,1.6313416299774432212667204011977
233,21716.8322078401666418784695770950336,21715.2,1.6322078401666418784695770950336
234,21903.6330703409190317378439876407718,21902.0,1.6330703409190317378439876407718
235,22091.2339291638977996727123436809069,22089.6,1.6339291638977996727123436809069
236,22279.6347843403626275557987577303094,22278.0,1.6347843403626275557987577303094
237,22468.8356359011765227312322723652672,22467.2,1.6356359011765227312322723652672
238,22658.8364838768125035493291413564401,22657.2,1.6364838768125035493291413564401
