Eigenstate,Energy,Kinetic Energy,Potential Energy
1,0.500000000640966402217658132196048860,0.0,0.500000000640966402217658132196048860
2,1.84623094183509509171116645975576593,1.2,0.64623094183509509171116645975576593
3,3.93633762199547198787101485033729338,3.2,0.73633762199547198787101485033729338
4,6.79966530341505623450089810031343691,6.0,0.79966530341505623450089810031343691
5,10.4480466196340060676920525333101152,9.6,0.8480466196340060676920525333101152
6,14.8870660654999827445148505868424001,14.0,0.8870660654999827445148505868424001
7,20.1197209224960319412207511762705956,19.2,0.9197209224960319412207511762705956
8,26.1477839770241443029261879059406695,25.2,0.9477839770241443029261879059406695
9,32.9723837281066372824338309202222569,32.0,0.9723837281066372824338309202222569
10,40.5942804299037471464021420770615776,39.6,0.9942804299037471464021420770615776
11,49.0140096525659849006267040043911735,48.0,1.0140096525659849006267040043911735
12,58.2319624914063726396805802899690393,57.2,1.0319624914063726396805802899690393
13,68.2484330764986373144902483388886183,67.2,1.0484330764986373144902483388886183
14,79.0636481055337192629647012374725015,78.0,1.0636481055337192629647012374725015
15,90.6777859596341670135841100881128967,89.6,1.0777859596341670135841100881128967
16,103.090989508224714866839359652581898,102.0,1.090989508224714866839359652581898
17,116.303374942493874127724604627504911,115.2,1.103374942493874127724604627504911
18,130.315038026400191536919888436997629,129.2,1.115038026400191536919888436997629
19,145.126058619776268188896516788835403,144.0,1.126058619776268188896516788835403
20,160.736504015962725773457043452731572,159.6,1.136504015962725773457043452731572
21,177.146431447889925880200250054355035,176.0,1.146431447889925880200250054355035
22,194.355889999236727031175278887297391,193.2,1.155889999236727031175278887297391
23,212.364922082367022611377590444661389,211.2,1.164922082367022611377590444661389
24,231.173564595730173752744098541343466,230.0,1.173564595730173752744098541343466
25,250.781849840656944634213588945533991,249.6,1.181849840656944634213588945533991
26,271.189806255167097835538049318060043,270.0,1.189806255167097835538049318060043
27,292.397459006931976832668787976694062,291.2,1.197459006931976832668787976694062
28,314.404830476633551812270320000688913,313.2,1.204830476633551812270320000688913
29,337.211940655166377091451650970688848,336.0,1.211940655166377091451650970688848
30,360.818807472479420810379153192432822,359.6,1.218807472479420810379153192432822
31,385.225447071708789030374039026036215,384.0,1.225447071708789030374039026036215
32,410.431874039174466760140044287482096,409.2,1.231874039174466760140044287482096
33,436.438101598504550610225947803016423,435.2,1.238101598504550610225947803016423
34,463.244141775399901496091650717876188,462.0,1.244141775399901496091650717876188
35,490.850005538212950734334808022289596,489.6,1.250005538212950734334808022289596
36,519.255702918480913990483584620871137,518.0,1.255702918480913990483584620871137
37,548.461243114749582982485045625831098,547.2,1.261243114749582982485045625831098
38,578.466634582393446096472913034188567,577.2,1.266634582393446096472913034188567
39,609.271885111640040418491663710385467,608.0,1.271885111640040418491663710385467
40,640.877001895610616899682059887588772,639.6,1.277001895610616899682059887588772
41,673.281991589872450096663280167437247,672.0,1.281991589872450096663280167437247
42,706.486860364743131325738520273359962,705.2,1.286860364743131325738520273359962
43,740.491613951380697723372453384894495,739.2,1.291613951380697723372453384894495
44,775.296257682525355688888361405295814,774.0,1.296257682525355688888361405295814
45,810.900796528620987615549566262295944,809.6,1.300796528620987615549566262295944
46,847.305235129931494532973755666913889,846.0,1.305235129931494532973755666913889
47,884.509577825173550671003899779991544,883.2,1.309577825173550671003899779991544
48,922.513828677109759590524520989437019,921.2,1.313828677109759590524520989437019
49,961.317991495481538982510170875015612,960.0,1.317991495481538982510170875015612
50,1000.92206985760693852270272686203686,999.6,1.32206985760693852270272686203686
51,1041.32606712692312820666076439516271,1040.0,1.32606712692312820666076439516271
52,1082.52998646971494937548721915883912,1081.2,1.32998646971494937548721915883912
53,1124.53383087023847052389544534890496,1123.2,1.33383087023847052389544534890496
54,1167.33760314442092885075133950682271,1166.0,1.33760314442092885075133950682271
55,1210.94130595229496301967212613703387,1209.6,1.34130595229496301967212613703387
56,1255.34494180930496802711768535144053,1254.0,1.34494180930496802711768535144053
57,1300.54851309660620411028762494826378,1299.2,1.34851309660620411028762494826378
58,1346.55202207046249444086369913227555,1345.2,1.35202207046249444086369913227555
59,1393.35547087083559240338296206703146,1392.0,1.35547087083559240338296206703146
60,1440.95886152924827474936964242827210,1439.6,1.35886152924827474936964242827210
61,1489.36219597599365269089578872023054,1488.0,1.36219597599365269089578872023054
62,1538.56547604675489199218862711149022,1537.2,1.36547604675489199218862711149022
63,1588.56870348869229122894673421574581,1587.2,1.36870348869229122894673421574581
64,1639.37187996604835490518160301285595,1638.0,1.37187996604835490518160301285595
65,1690.97500706531596327751268374712330,1689.6,1.37500706531596327751268374712330
66,1743.37808630000989339787392072708143,1742.0,1.37808630000989339787392072708143
67,1796.58111911507768359436288061402857,1795.2,1.38111911507768359436288061402857
68,1850.58410689098207744925228707524694,1849.2,1.38410689098207744925228707524694
69,1905.38705094748397066256760666780934,1904.0,1.38705094748397066256760666780934
70,1960.98995254715185592147355044587923,1959.6,1.38995254715185592147355044587923
71,2017.39281289862116219210800764427550,2016.0,1.39281289862116219210800764427550
72,2074.59563315962458660823279245073496,2073.2,1.39563315962458660823279245073496
73,2132.59841443981246412480340144555526,2131.2,1.39841443981246412480340144555526
74,2191.40115780338040125613044247129379,2190.0,1.40115780338040125613044247129379
75,2251.00386427151976911734521646060333,2249.6,1.40386427151976911734521646060333
76,2311.40653482470520143126125451870559,2310.0,1.40653482470520143126125451870559
77,2372.60917040483194076445871962870162,2371.2,1.40917040483194076445871962870162
78,2434.61177191721471045838441779556285,2433.2,1.41177191721471045838441779556285
79,2497.41434023245874290142744609254649,2496.0,1.41434023245874290142744609254649
80,2561.01687618821265666244415095462303,2559.6,1.41687618821265666244415095462303
81,2625.41938059081202566490088960198948,2624.0,1.41938059081202566490088960198948
82,2690.62185421682172213041891280992698,2689.2,1.42185421682172213041891280992698
83,2756.62429781448442628689313304445608,2755.2,1.42429781448442628689313304445608
84,2823.42671210508207154482750343984799,2822.0,1.42671210508207154482750343984799
85,2891.02909778421643456954245627269453,2889.6,1.42909778421643456954245627269453
86,2959.43145552301456381171589474781797,2958.0,1.43145552301456381171589474781797
87,3028.63378596926428258812492679196706,3027.2,1.43378596926428258812492679196706
88,3098.63608974848457942692257191102969,3097.2,1.43608974848457942692257191102969
89,3169.43836746493531488984101338374137,3168.0,1.43836746493531488984101338374137
90,3241.04061970257033086720216867596523,3239.6,1.44061970257033086720216867596523
91,3313.44284702593772688979787776627553,3312.0,1.44284702593772688979787776627553
92,3386.64504998103077970439427273581571,3385.2,1.44504998103077970439427273581571
93,3460.64722909609272010480622063132030,3459.2,1.44722909609272010480622063132030
94,3535.44938488237833808199765111454004,3534.0,1.44938488237833808199765111454004
95,3611.05151783487516620289859222758502,3609.6,1.45151783487516620289859222758502
96,3687.45362843298678930577219228520751,3686.0,1.45362843298678930577219228520751
97,3764.65571714118064425814232598549725,3763.2,1.45571714118064425814232598549725
98,3842.65778440960250064927214374279757,3841.2,1.45778440960250064927214374279757
99,3921.45983067465965981729609185112647,3920.0,1.45983067465965981729609185112647
100,4001.06185635957476327099293517965858,3999.6,1.46185635957476327099293517965858
101,4081.46386187491197226234523667677697,4080.0,1.46386187491197226234523667677697
102,4162.66584761907715469163720481440604,4161.2,1.46584761907715469163720481440604
103,4244.66781397879360761355740185513348,4243.2,1.46781397879360761355740185513348
104,4327.46976132955473634841970087817551,4326.0,1.46976132955473634841970087817551
105,4411.07169003605501812920151571075748,4409.6,1.47169003605501812920151571075748
106,4495.47360045260048745123431586671326,4494.0,1.47360045260048745123431586671326
107,4580.67549292349990220980283818313967,4579.2,1.47549292349990220980283818313967
108,4666.67736778343767047174765230595853,4665.2,1.47736778343767047174765230595853
109,4753.47922535782954913404261143267395,4752.0,1.47922535782954913404261143267395
110,4841.08106596316206330261080853123610,4839.6,1.48106596316206330261080853123610
111,4929.48288990731652936387935070724067,4928.0,1.48288990731652936387935070724067
112,5018.68469748987851528839280916881450,5017.2,1.48469748987851528839280916881450
113,5108.68648900243351617047150023651026,5107.2,1.48648900243351617047150023651026
114,5199.48826472884957425063067785161535,5198.0,1.48826472884957425063067785161535
115,5291.09002494554753221946847584904567,5289.6,1.49002494554753221946847584904567
116,5383.49176992175956027059658745505178,5382.0,1.49176992175956027059658745505178
117,5476.69349991977656565771806588648624,5475.2,1.49349991977656565771806588648624
118,5570.69521519518505248039538353366794,5569.2,1.49521519518505248039538353366794
119,5665.49691599709396570991479871103159,5664.0,1.49691599709396570991479871103159
120,5761.09860256835202762500182716491092,5759.6,1.49860256835202762500182716491092
121,5857.50027514575603656051193477322244,5856.0,1.50027514575603656051193477322244
122,5954.70193396025057895972525457987632,5953.2,1.50193396025057895972525457987632
123,6052.70357923711957352859104310679450,6051.2,1.50357923711957352859104310679450
124,6151.50521119617004861114213362854373,6150.0,1.50521119617004861114213362854373
125,6251.10683005190852433974304905486739,6249.6,1.50683005190852433974304905486739
126,6351.50843601371035591725992755729491,6350.0,1.50843601371035591725992755729491
127,6452.71002928598237381111520742200005,6451.2,1.51002928598237381111520742200005
128,6554.71161006831913405278363567265423,6553.2,1.51161006831913405278363567265423
129,6657.51317855565307976385280171447601,6656.0,1.51317855565307976385280171447601
130,6761.11473493839889664875398037729688,6759.6,1.51473493839889664875398037729688
131,6865.51627940259232979101810352922585,6864.0,1.51627940259232979101810352922585
132,6970.71781213002371411362210208216146,6969.2,1.51781213002371411362210208216146
133,7076.71933329836645908332974731127357,7075.2,1.51933329836645908332974731127357
134,7183.52084308130071696396888612759846,7182.0,1.52084308130071696396888612759846
135,7291.12234164863244581623632412492741,7289.6,1.52234164863244581623632412492741
136,7399.52382916640807475514244489153974,7398.0,1.52382916640807475514244489153974
137,7508.72530579702496566936175514689845,7507.2,1.52530579702496566936175514689845
138,7618.72677169933785199588048985575826,7617.2,1.52677169933785199588048985575826
139,7729.52822702876143303860857137326304,7728.0,1.52822702876143303860857137326304
140,7841.12967193736928687486896510361361,7839.6,1.52967193736928687486896510361361
141,7953.53110657398926033744893898908756,7952.0,1.53110657398926033744893898908756
142,8066.73253108429548648794826637260918,8065.2,1.53253108429548648794826637260918
143,8180.73394561089717134835445351744750,8179.2,1.53394561089717134835445351744750
144,8295.53535029342428447954636688926958,8294.0,1.53535029342428447954636688926958
145,8411.13674526861028380915331584223303,8409.6,1.53674526861028380915331584223303
146,8527.53813067037199724397197893758084,8526.0,1.53813067037199724397197893758084
147,8644.73950662988677540076545440005961,8643.2,1.53950662988677540076545440005961
148,8762.74087327566703083289468203281147,8761.2,1.54087327566703083289468203281147
149,8881.54223073363226560387989915814268,8880.0,1.54223073363226560387989915814268
150,9001.14357912717869090069456257914412,8999.6,1.54357912717869090069456257914412
151,9121.54491857724653465485097532323208,9120.0,1.54491857724653465485097532323208
152,9242.74624920238512752616407864842330,9241.2,1.54624920238512752616407864842330
153,9364.74757111881585625664273754179737,9363.2,1.54757111881585625664273754179737
154,9487.54888444049306835359327010696594,9486.0,1.54888444049306835359327010696594
155,9611.15018927916300639995741398858895,9609.6,1.55018927916300639995741398858895
156,9735.55148574442084992255739609698510,9734.0,1.55148574442084992255739609698510
157,9860.75277394376593593152053345484049,9859.2,1.55277394376593593152053345484049
158,9986.75405398265523001813555017443633,9985.2,1.55405398265523001813555017443633
159,10113.5553259645551117556846485800843,10112.0,1.5553259645551117556846485800843
160,10241.1565899909915408151880827892838,10239.6,1.5565899909915408151880827892838
161,10369.5578461615986623693728794736421,10368.0,1.5578461615986623693728794736421
162,10498.7590945741659113260668237611617,10497.2,1.5590945741659113260668237611617
163,10628.7603353246836703274518401709298,10627.2,1.5603353246836703274518401709298
164,10759.5615685073875362380878574041032,10758.0,1.5615685073875362380878574041032
165,10891.1627942148012438115271862172051,10889.6,1.5627942148012438115271862172051
166,11023.5640125377782971441692455416544,11022.0,1.5640125377782971441692455416544
167,11156.7652235655423562453295249804478,11155.2,1.5652235655423562453295249804478
168,11290.7664273857264215128526582472204,11289.2,1.5664273857264215128526582472204
169,11425.5676240844108612806822714874764,11424.0,1.5676240844108612806822714874764
170,11561.1688137461603222899412805914835,11559.6,1.5688137461603222899412805914835
171,11697.5699964540595633906751486454945,11696.0,1.5699964540595633906751486454945
172,11834.7711722897482504580915316604723,11833.2,1.5711722897482504580915316604723
173,11972.7723413334547480474575522341136,11971.2,1.5723413334547480474575522341136
174,12111.5735036640289437578914744691003,12110.0,1.5735036640289437578914744691003
175,12251.1746593589741394217935000363288,12249.6,1.5746593589741394217935000363288
176,12391.5758084944780389634163396562877,12390.0,1.5758084944780389634163396562877
177,12532.7769511454428663298428091220995,12531.2,1.5769511454428663298428091220995
178,12674.7780873855146427973223863251754,12673.2,1.5780873855146427973223863251754
179,12817.5792172871116502525792966048569,12816.0,1.5792172871116502525792966048569
180,12961.1803409214521115565515438366450,12959.6,1.5803409214521115565515438366450
181,13105.5814583585811108068860086273125,13104.0,1.5814583585811108068860086273125
182,13250.7825696673967813693223327581004,13249.2,1.5825696673967813693223327581004
183,13396.7836749156757849093325619664940,13395.2,1.5836749156757849093325619664940
184,13543.5847741700981058553164317656377,13542.0,1.5847741700981058553164317656377
185,13691.1858674962711832992993897271429,13689.6,1.5858674962711832992993897271429
186,13839.5869549587534015100185533483026,13838.0,1.5869549587534015100185533483026
187,13988.7880366210769630740136079668358,13987.2,1.5880366210769630740136079668358
188,14138.7891125457701603254248221219064,14137.2,1.5891125457701603254248221219064
189,14289.5901827943790690297277678342658,14288.0,1.5901827943790690297277678342658
190,14441.1912474274886802168181967696284,14439.6,1.5912474274886802168181967696284
191,14593.5923065047434896410649757894178,14592.0,1.5923065047434896410649757894178
192,14746.7933600848675615168561649645732,14745.2,1.5933600848675615168561649645732
193,14900.7944082256840851116177060173254,14899.2,1.5944082256840851116177060173254
194,15055.5954509841344378276473618555527,15054.0,1.5954509841344378276473618555527
195,15211.1964884162967730087040025056263,15209.6,1.5964884162967730087040025056263
196,15367.5975205774041464805644811343597,15366.0,1.5975205774041464805644811343597
197,15524.7985475218621965325794907972963,15523.2,1.5985475218621965325794907972963
198,15682.7995693032663918490695568507181,15681.2,1.5995693032663918490695568507181
199,15841.6005859744188605872415952677667,15840.0,1.6005859744188605872415952677667
200,16001.2015975873448149213791283297176,15999.6,1.6015975873448149213791283297176
201,16161.6026041933085824269853025130889,16160.0,1.6026041933085824269853025130889
202,16322.8036058428292580968489267464486,16321.2,1.6036058428292580968489267464486
203,16484.8046025856959880791398693167516,16483.2,1.6046025856959880791398693167516
204,16647.6055944709828972084772351528737,16646.0,1.6055944709828972084772351528737
205,16811.2065815470636707730537850521892,16809.6,1.6065815470636707730537850521892
206,16975.6075638616258040372376947685188,16974.0,1.6075638616258040372376947685188
207,17140.8085414616845259151315925093953,17139.2,1.6085414616845259151315925093953
208,17306.8095143935964115668241695104699,17305.2,1.6095143935964115668241695104699
209,17473.6104827030726902374296557296988,17472.0,1.6104827030726902374296557296988
210,17641.2114464351922604400876258592876,17639.6,1.6114464351922604400876258592876
211,17809.6124056344144204775054711569646,17808.0,1.6124056344144204775054711569646
212,17978.8133603445913251963783040543302,17977.2,1.6133603445913251963783040543302
213,18148.8143106089801740532883798871283,18147.2,1.6143106089801740532883798871283
214,18319.6152564702551462037971852269102,18318.0,1.6152564702551462037971852269102
215,18491.2161979705190825943860383310868,18489.6,1.6161979705190825943860383310868
216,18663.6171351513149298246828621680606,18662.0,1.6171351513149298246828621680606
217,18836.8180680536369505937959989609520,18835.2,1.6180680536369505937959989609520
218,19010.8189967179417106023381237670088,19009.2,1.6189967179417106023381237670088
219,19185.6199211841588461290562594719256,19184.0,1.6199211841588461290562594719256
220,19361.2208414917016257858854706210536,19359.6,1.6208414917016257858854706210536
221,19537.6217576794773054020723883626825,19536.0,1.6217576794773054020723883626825
222,19714.8226697858972943388765337059473,19713.2,1.6226697858972943388765337059473
223,19892.8235778488871279590760736610883,19891.2,1.6235778488871279590760736610883
224,20071.6244819058962625367350479918206,20070.0,1.6244819058962625367350479918206
225,20251.2253819939076964566653475024817,20249.6,1.6253819939076964566653475024817
226,20431.6262781494474226051783150653333,20430.0,1.6262781494474226051783150653333
227,20612.8271704085937220338523971724485,20611.2,1.6271704085937220338523971724485
228,20794.8280588069863022253436816129988,20793.2,1.6280588069863022253436816129988
229,20977.6289433798352887172161998418992,20976.0,1.6289433798352887172161998418992
230,21161.2298241619300764642358285497153,21159.6,1.6298241619300764642358285497153
231,21345.6307011876480445188290375165232,21344.0,1.6307011876480445188290375165232
232,21530.8315744909631463315254506890829,21529.2,1.6315744909631463315254506890829
233,21716.8324441054543726588275404180217,21715.2,1.6324441054543726588275404180217
234,21903.6333100643141053428288531313546,21902.0,1.6333100643141053428288531313546
235,22091.2341724003563573758833363784221,22089.6,1.6341724003563573758833363784221
236,22279.6350311460249113235095446843895,22278.0,1.6350311460249113235095446843895
237,22468.8358863334013622411882413422714,22467.2,1.6358863334013622411882413422714
238,22658.8367379942130694822429744084520,22657.2,1.6367379942130694822429744084520
