Eigenstate,Energy,Kinetic Energy,Potential Energy
1,0.500000000033018995375290369909021875,0.0,0.500000000033018995375290369909021875
2,1.84623093786664535212904934263696933,1.2,0.64623093786664535212904934263696933
3,3.93633761033807932923034491811764817,3.2,0.73633761033807932923034491811764817
4,6.79966527913292039800340697160231130,6.0,0.79966527913292039800340697160231130
5,10.4480465775699098255082039216049710,9.6,0.8480465775699098255082039216049710
6,14.8870660004048861936327124326870995,14.0,0.8870660004048861936327124326870995
7,20.1197208290765696666917186737768672,19.2,0.9197208290765696666917186737768672
8,26.1477838499622002695579592340787776,25.2,0.9477838499622002695579592340787776
9,32.9723835620682324706781837135161906,32.0,0.9723835620682324706781837135161906
10,40.5942802195433522651399286660554761,39.6,0.9942802195433522651399286660554761
11,49.0140093925286789022053180453649236,48.0,1.0140093925286789022053180453649236
12,58.2319621763289029439646218679151239,57.2,1.0319621763289029439646218679151239
13,68.2484327010098815624933611390272474,67.2,1.0484327010098815624933611390272474
14,79.0636476642548020814675594741357334,78.0,1.0636476642548020814675594741357334
15,90.6777854471783680753086240047330803,89.6,1.0777854471783680753086240047330803
16,103.090988919197245263894994216445344,102.0,1.090988919197245263894994216445344
17,116.303374271491566486845068619088264,115.2,1.103374271491566486845068619088264
18,130.315037268011131682259009961053396,129.2,1.115037268011131682259009961053396
19,145.126057768579385926975586751806387,144.0,1.126057768579385926975586751806387
20,160.736503066527356222715900210362731,159.6,1.136503066527356222715900210362731
21,177.146430394775348951275902275116387,176.0,1.146430394775348951275902275116387
22,194.355888836991690229995964017970727,193.2,1.155888836991690229995964017970727
23,212.364920805529250745558712169185952,211.2,1.164920805529250745558712169185952
24,231.173563198825868057350857152640017,230.0,1.173563198825868057350857152640017
25,250.781848318200273106407318477500494,249.6,1.181848318200273106407318477500494
26,271.189804601659678062369458470160499,270.0,1.189804601659678062369458470160499
27,292.397457216862352238853652957148843,291.2,1.197457216862352238853652957148843
28,314.404828544476661997904644903799745,313.2,1.204828544476661997904644903799745
29,337.211938575383022742276688087811366,336.0,1.211938575383022742276688087811366
30,360.818805239515723524680353673569709,359.6,1.218805239515723524680353673569709
31,385.225444679995646302832054945251749,384.0,1.225444679995646302832054945251749
32,410.431871483127002284259794798296470,409.2,1.231871483127002284259794798296470
33,436.438098872521560000579077010185679,435.2,1.238098872521560000579077010185679
34,463.244138873863293484725769320054694,462.0,1.244138873863293484725769320054694
35,490.850002455487183858892114632965536,489.6,1.250002455487183858892114632965536
36,519.255699648912428762343090295507054,518.0,1.255699648912428762343090295507054
37,548.461239652666229499767831758890623,547.2,1.261239652666229499767831758890623
38,578.466630922103907047681364679281448,577.2,1.266630922103907047681364679281448
39,609.271881247433249406879292948518001,608.0,1.271881247433249406879292948518001
40,640.876997821755172005409858920213622,639.6,1.276997821755172005409858920213622
41,673.281987300616022582814263205542421,672.0,1.281987300616022582814263205542421
42,706.486855854311869384888226804575681,705.2,1.286855854311869384888226804575681
43,740.491609213978625153308676276695758,739.2,1.291609213978625153308676276695758
44,775.296252712333765378972139522287143,774.0,1.296252712333765378972139522287143
45,810.900791319797829718900914635899700,809.6,1.300791319797829718900914635899700
46,847.305229676610759193985603191609032,846.0,1.305229676610759193985603191609032
47,884.509572121464645172506619934290675,883.2,1.309572121464645172506619934290675
48,922.513822717096879780134158147289911,921.2,1.313822717096879780134158147289911
49,961.317985273223034833213934867266524,960.0,1.317985273223034833213934867266524
50,1000.92206336713467367849662254646384,999.6,1.32206336713467367849662254646384
51,1041.32606036224183335999971159989422,1040.0,1.32606036224183335999971159989422
52,1082.52997942480156931939397046376736,1081.2,1.32997942480156931939397046376736
53,1124.53382353904150471776310408355203,1123.2,1.33382353904150471776310408355203
54,1167.33759552085976533513119311484475,1166.0,1.33759552085976533513119311484475
55,1210.94129803025920551164242191475896,1209.6,1.34129803025920551164242191475896
56,1255.34493358265375602415402195841247,1254.0,1.34493358265375602415402195841247
57,1300.54850455916752582688564586715279,1299.2,1.34850455916752582688564586715279
58,1346.55201321603249239847868313808229,1345.2,1.35201321603249239847868313808229
59,1393.35546169317786149054477495824928,1392.0,1.35546169317786149054477495824928
60,1440.95885202209315256508148874598364,1439.6,1.35885202209315256508148874598364
61,1489.36218613303750198062924541250480,1488.0,1.36218613303750198062924541250480
62,1538.56546586165937498193079878945222,1537.2,1.36546586165937498193079878945222
63,1588.56869295508363565883455778248234,1587.2,1.36869295508363565883455778248234
64,1639.37186907751661156026144159498851,1638.0,1.37186907751661156026144159498851
65,1690.97499581541425480908258336214965,1689.6,1.37499581541425480908258336214965
66,1743.37807468225365422470147079468732,1742.0,1.37807468225365422470147079468732
67,1796.58110712294389066880858619283541,1795.2,1.38110712294389066880858619283541
68,1850.58409451790847166896836119638680,1849.2,1.38409451790847166896836119638680
69,1905.38703818686826870397170721879346,1904.0,1.38703818686826870397170721879346
70,1960.98993939235095226662345926081702,1959.6,1.38993939235095226662345926081702
71,2017.39279934295032111590327645167938,2016.0,1.39279934295032111590327645167938
72,2074.59561919635662388805864594295760,2073.2,1.39561919635662388805864594295760
73,2132.59840006217691822978542407079255,2131.2,1.39840006217691822978542407079255
74,2191.40114300456269376809856492691478,2190.0,1.40114300456269376809856492691478
75,2251.00384904466035413039281187579380,2249.6,1.40384904466035413039281187579380
76,2311.40651916289870367143786933716923,2310.0,1.40651916289870367143786933716923
77,2372.60915430112628216563456972353481,2371.2,1.40915430112628216563456972353481
78,2434.61175536461022492467835881571430,2433.2,1.41175536461022492467835881571430
79,2497.41432322390727898078419184888547,2496.0,1.41432322390727898078419184888547
80,2561.01685871661666784998249112862134,2559.6,1.41685871661666784998249112862134
81,2625.41936264902364804851924570433574,2624.0,1.41936264902364804851924570433574
82,2690.62183579764183908483980655363976,2689.2,1.42183579764183908483980655363976
83,2756.62427891066171991584622630181915,2755.2,1.42427891066171991584622630181915
84,2823.42669270931206056440191141398029,2822.0,1.42669270931206056440191141398029
85,2891.02907788914049831888363052008852,2889.6,1.42907788914049831888363052008852
86,2959.43143512121895207019157456872006,2958.0,1.43143512121895207019157456872006
87,3028.63376505327911087082834881567266,3027.2,1.43376505327911087082834881567266
88,3098.63606831078280942292197625202871,3097.2,1.43606831078280942292197625202871
89,3169.43834549793171969990655597032345,3168.0,1.43834549793171969990655597032345
90,3241.04059719862044468984487120196883,3239.6,1.44059719862044468984487120196883
91,3313.44282397733677879632660572480292,3312.0,1.44282397733677879632660572480292
92,3386.64502638001261113533660563168854,3385.2,1.44502638001261113533660563168854
93,3460.64720493482868571143205421091311,3459.2,1.44720493482868571143205421091311
94,3535.44936015297618952782926834904628,3534.0,1.44936015297618952782926834904628
95,3611.05149252937791853097184042940702,3609.6,1.45149252937791853097184042940702
96,3687.45360254337156946803535026144589,3686.0,1.45360254337156946803535026144589
97,3764.65569065935752139371438138805551,3763.2,1.45569065935752139371438138805551
98,3842.65775732741329768834268297596170,3841.2,1.45775732741329768834268297596170
99,3921.45980298387674597720839730947356,3920.0,1.45980298387674597720839730947356
100,4001.06182805189982700050999640400729,3999.6,1.46182805189982700050999640400729
101,4081.46383294197477417924423906937012,4080.0,1.46383294197477417924423906937012
102,4162.66581805243426004759630242912484,4161.2,1.46581805243426004759630242912484
103,4244.66778376992709780878933501786197,4243.2,1.46778376992709780878933501786197
104,4327.46973046987089900664041236758639,4326.0,1.46973046987089900664041236758639
105,4411.07165851688301523131273895705199,4409.6,1.47165851688301523131273895705199
106,4495.47356826519100101351043902606238,4494.0,1.47356826519100101351043902606238
107,4580.67546005902375697940677695938365,4579.2,1.47546005902375697940677695938365
108,4666.67733423298443309904220811859258,4665.2,1.47733423298443309904220811859258
109,4753.47919111240610326739465204934197,4752.0,1.47919111240610326739465204934197
110,4841.08103101369116003719914317075355,4839.6,1.48103101369116003719914317075355
111,4929.48285424463531246139564179681931,4928.0,1.48285424463531246139564179681931
112,5018.68466110473702056945022622674146,5017.2,1.48466110473702056945022622674146
113,5108.68645188549314446600083087665822,5107.2,1.48645188549314446600083087665822
114,5199.48822687068153728252241489530043,5198.0,1.48822687068153728252241489530043
115,5291.08998633663127076420379092493481,5289.6,1.48998633663127076420379092493481
116,5383.49173055248113394258018696271470,5382.0,1.49173055248113394258018696271470
117,5476.69345978042701363145882049909169,5475.2,1.49345978042701363145882049909169
118,5570.69517427595872445256926345368781,5569.2,1.49517427595872445256926345368781
119,5665.49687428808682238365395099945492,5664.0,1.49687428808682238365395099945492
120,5761.09856005955990997947937154990267,5759.6,1.49856005955990997947937154990267
121,5857.50023182707290314900414281691309,5856.0,1.50023182707290314900414281691309
122,5954.70188982146671045880743881744042,5953.2,1.50188982146671045880743881744042
123,6052.70353426791974373994922419703923,6051.2,1.50353426791974373994922419703923
124,6151.50516538613166109562511052453718,6150.0,1.50516538613166109562511052453718
125,6251.10678339049971384071556063660046,6249.6,1.50678339049971384071556063660046
126,6351.50838849028805370703155446287251,6350.0,1.50838849028805370703155446287251
127,6452.70998088979033607017254210225457,6451.2,1.50998088979033607017254210225457
128,6554.71156078848593236672256428162110,6553.2,1.51156078848593236672256428162110
129,6657.51312838119005279727226677781139,6656.0,1.51312838119005279727226677781139
130,6761.11468385819806202888739359893832,6759.6,1.51468385819806202888739359893832
131,6865.51622740542425520652614752150336,6864.0,1.51622740542425520652614752150336
132,6970.71775920453534660570727049422468,6969.2,1.51775920453534660570727049422468
133,7076.71927943307891147714627335276499,7075.2,1.51927943307891147714627335276499
134,7183.52078826460701035811895376859302,7182.0,1.52078826460701035811895376859302
135,7291.12228586879520701696848446545721,7289.6,1.52228586879520701696848446545721
136,7399.52377241155718750964204668471876,7398.0,1.52377241155718750964204668471876
137,7508.72524805515517451919961836595851,7507.2,1.52524805515517451919961836595851
138,7618.72671295830631753724664502296798,7617.2,1.52671295830631753724664502296798
139,7729.52816727628523734033695835293453,7728.0,1.52816727628523734033695835293453
140,7841.12961116102288776842390993936721,7839.6,1.52961116102288776842390993936721
141,7953.53104476120189325494771448118924,7952.0,1.53104476120189325494771448118924
142,8066.73246822234851248488009878461244,8065.2,1.53246822234851248488009878461244
143,8180.73388168692136990687788675411446,8179.2,1.53388168692136990687788675411446
144,8295.53528529439708964606028152819609,8294.0,1.53528529439708964606028152819609
145,8411.13667918135296217616545082519577,8409.6,1.53667918135296217616545082519577
146,8527.53806348154676624109120469917080,8526.0,1.53806348154676624109120469917080
147,8644.73943832599386031285845215515508,8643.2,1.53943832599386031285845215515508
148,8762.74080384304165891500284835610928,8761.2,1.54080384304165891500284835610928
149,8881.54216015844159561232577281291356,8880.0,1.54216015844159561232577281291356
150,9001.14350739541867630785860393530277,8999.6,1.54350739541867630785860393530277
151,9121.54484567473871876127049478614833,9120.0,1.54484567473871876127049478614833
152,9242.74617511477336862786511213022454,9241.2,1.54617511477336862786511213022454
153,9364.74749583156298096783540069236744,9363.2,1.54749583156298096783540069236744
154,9487.54880793887745112499304455326557,9486.0,1.54880793887745112499304455326557
155,9611.15011154827507321093995462840143,9609.6,1.55011154827507321093995462840143
156,9735.55140676915950406101888570182907,9734.0,1.55140676915950406101888570182907
157,9860.75269370883490370862003569541191,9859.2,1.55269370883490370862003569541191
158,9986.75397247255932419591844693587432,9985.2,1.55397247255932419591844693587432
159,10113.5552431635964103938487153510110,10112.0,1.5552431635964103938487153510110
160,10241.1565058832654791688278967169978,10239.6,1.5565058832654791688278967169978
161,10369.5577607309900353923188487345525,10368.0,1.5577607309900353923188487345525
162,10498.7590078043447842543065444593076,10497.2,1.5590078043447842543065444593076
163,10628.7602471991011947339578164697944,10627.2,1.5602471991011947339578164697944
164,10759.5614790092716688640309002819888,10758.0,1.5614790092716688640309002819888
165,10891.1627033271523653892235630118539,10889.6,1.5627033271523653892235630118539
166,11023.5639202433647283340196938318802,11022.0,1.5639202433647283340196938318802
167,11156.7651298468957677123251709043714,11155.2,1.5651298468957677123251709043714
168,11290.7663322251371350677777901748514,11289.2,1.5663322251371350677777901748514
169,11425.5675274639230389067928337732396,11424.0,1.5675274639230389067928337732396
170,11561.1687156475670397674316279610535,11559.6,1.5687156475670397674316279610535
171,11697.5698968588977651185247443286156,11696.0,1.5698968588977651185247443286156
172,11834.7710711792935819556793062145663,11833.2,1.5710711792935819556793062145663
173,11972.7722386887162624964721785007199,11971.2,1.5722386887162624964721785007199
174,12111.5733994657436788183144628720642,12110.0,1.5733994657436788183144628720642
175,12251.1745535876015604238914192861364,12249.6,1.5745535876015604238914192861364
176,12391.5757011301943444405019407249746,12390.0,1.5757011301943444405019407249746
177,12532.7768421681351517138062363607384,12531.2,1.5768421681351517138062363607384
178,12674.7779767747749179503491455559670,12673.2,1.5779767747749179503491455559670
179,12817.5791050222307063537761145501319,12816.0,1.5791050222307063537761145501319
180,12961.1802269814132327011119705150729,12959.6,1.5802269814132327011119705150729
181,13105.5813427220536255076597352238341,13104.0,1.5813427220536255076597352238341
182,13250.7824523127294489758761093673629,13249.2,1.5824523127294489758761093673629
183,13396.7835558208900117774686290442274,13395.2,1.5835558208900117774686290442274
184,13543.5846533128809859102216515560447,13542.0,1.5846533128809859102216515560447
185,13691.1857448539683574376455282099327,13689.6,1.5857448539683574376455282099327
186,13839.5868305083617300800391370670272,13838.0,1.5868305083617300800391370670272
187,13988.7879103392370054574342318095871,13987.2,1.5879103392370054574342318095871
188,14138.7889844087584554207066285021684,14137.2,1.5889844087584554207066285021684
189,14289.5900527781002102019126359281524,14288.0,1.5900527781002102019126359281524
190,14441.1911155074671780348959240044862,14439.6,1.5911155074671780348959240044862
191,14593.5921726561154154686838273811282,14592.0,1.5921726561154154686838273811282
192,14746.7932242823719647558426050773413,14745.2,1.5932242823719647558426050773413
193,14900.7942704436541766196054584305650,14899.2,1.5942704436541766196054584305650
194,15055.5953111964885317405213511772875,15054.0,1.5953111964885317405213511772875
195,15211.1963465965289788949479862331653,15209.6,1.5963465965289788949479862331653
196,15367.5973766985748034372532009606148,15366.0,1.5973766985748034372532009606148
197,15524.7984015565880405010094525932811,15523.2,1.5984015565880405010094525932811
198,15682.7994212237104470811239350734314,15681.2,1.5994212237104470811239350734314
199,15841.6004357522800458307214630657092,15840.0,1.6004357522800458307214630657092
200,16001.2014451938472545129425254839063,15999.6,1.6014451938472545129425254839063
201,16161.6024495991906120840367209285315,16160.0,1.6024495991906120840367209285315
202,16322.8034490183321147838647286077059,16321.2,1.6034490183321147838647286077059
203,16484.8044435005521728884920699567711,16483.2,1.6044435005521728884920699567711
204,16647.6054330944041997397379674034722,16646.0,1.6054330944041997397379674034722
205,16811.2064178477288430169927374362139,16809.6,1.6064178477288430169927374362139
206,16975.6073978076678712700024265064484,16974.0,1.6073978076678712700024265064484
207,17140.8083730206777215832476111184427,17139.2,1.6083730206777215832476111184427
208,17306.8093435325427225933227239656893,17305.2,1.6093435325427225933227239656893
209,17473.6103093883879986021451641551577,17472.0,1.6103093883879986021451641551577
210,17641.2112706326920662815948079599784,17639.6,1.6112706326920662815948079599784
211,17809.6122273092991313285421230771909,17808.0,1.6122273092991313285421230771909
212,17978.8131794614310952973885392272795,17977.2,1.6131794614310952973885392272795
213,18148.8141271316992769880089255267935,18147.2,1.6141271316992769880089255267935
214,18319.6150703621158633647812698448006,18318.0,1.6150703621158633647812698448006
215,18491.2160091941050892129301051989489,18489.6,1.6160091941050892129301051989489
216,18663.6169436685141594866359154037360,18662.0,1.6169436685141594866359154037360
217,18836.8178738256239183079477740188563,18835.2,1.6178738256239183079477740188563
218,19010.8187997051592735889438187729953,19009.2,1.6187997051592735889438187729953
219,19185.6197213462993805500704048655359,19184.0,1.6197213462993805500704048655359
220,19361.2206387876875966427822615817209,19359.6,1.6206387876875966427822615817209
221,19537.6215520674412057787680881342413,19536.0,1.6215520674412057787680881342413
222,19714.8224612231609290631216387270962,19713.2,1.6224612231609290631216387270962
223,19892.8233662919402155922836998345672,19891.2,1.6233662919402155922836998345672
224,20071.6242673103743283760476405243960,20070.0,1.6242673103743283760476405243960
225,20251.2251643145692279401653158876940,20249.6,1.6251643145692279401653158876940
226,20431.6260573401502571474881788328984,20430.0,1.6260573401502571474881788328984
227,20612.8269464222706358804842828221435,20611.2,1.6269464222706358804842828221435
228,20794.8278315956197673953246191999356,20793.2,1.6278315956197673953246191999356
229,20977.6287128944313634996760793603398,20976.0,1.6287128944313634996760793603398
230,21161.2295903524913932404314758746511,21159.6,1.6295903524913932404314758746511
231,21345.6304640031458568906332558047322,21344.0,1.6304640031458568906332558047322
232,21530.8313338793083956444974259304600,21529.2,1.6313338793083956444974259304600
233,21716.8322000134677320060281562615221,21715.2,1.6322000134677320060281562615221
234,21903.6330624376949570172745728410277,21902.0,1.6330624376949570172745728410277
235,22091.2339211836506574973153525854072,22089.6,1.6339211836506574973153525854072
236,22279.6347762825918929907247481253831,22278.0,1.6347762825918929907247481253831
237,22468.8356277653790260456324744244739,22467.2,1.6356277653790260456324744244739
238,22658.8364756624824075523730775861345,22657.2,1.6364756624824075523730775861345
