Eigenstate,Energy,Kinetic Energy,Potential Energy
1,0.500000000017901592591036621312993653,0.0,0.500000000017901592591036621312993653
2,1.84623093776796683588359561758183614,1.2,0.64623093776796683588359561758183614
3,3.93633761004821919976879551862525942,3.2,0.73633761004821919976879551862525942
4,6.79966527852917498728737893372649688,6.0,0.79966527852917498728737893372649688
5,10.4480465765240995379502162745411989,9.6,0.8480465765240995379502162745411989
6,14.8870659987865883379716312622547451,14.0,0.8870659987865883379716312622547451
7,20.1197208267543098527913816755189308,19.2,0.9197208267543098527913816755189308
8,26.1477838468039495004721083832347332,25.2,0.9477838468039495004721083832347332
9,32.9723835579416385025478625264706125,32.0,0.9723835579416385025478625264706125
10,40.5942802143158572275328535078427917,39.6,0.9942802143158572275328535078427917
11,49.0140093860675833751642891033016543,48.0,1.0140093860675833751642891033016543
12,58.2319621685014027503010018019393373,57.2,1.0319621685014027503010018019393373
13,68.2484326916830897062483213784668871,67.2,1.0484326916830897062483213784668871
14,79.0636476532957621380574459916064076,78.0,1.0636476532957621380574459916064076
15,90.6777854344540624247172832638316533,89.6,1.0777854344540624247172832638316533
16,103.090988904574600084600815495579846,102.0,1.090988904574600084600815495579846
17,116.303374254837454642719503919657134,115.2,1.103374254837454642719503919657134
18,130.315037249192374196505335294831422,129.2,1.115037249192374196505335294831422
19,145.126057747462752482802719067360030,144.0,1.126057747462752482802719067360030
20,160.736503042979564977494202842068068,159.6,1.136503042979564977494202842068068
21,177.146430368663065856054224765553188,176.0,1.146430368663065856054224765553188
22,194.355888808181527985762343283726147,193.2,1.155888808181527985762343283726147
23,212.364920773887767488077705447353183,211.2,1.164920773887767488077705447353183
24,231.173563164219565835969742853550203,230.0,1.173563164219565835969742853550203
25,250.781848280495596204184428751686525,249.6,1.181848280495596204184428751686525
26,271.189804560723011192342081444929447,270.0,1.189804560723011192342081444929447
27,292.397457172560018642403612470357139,291.2,1.197457172560018642403612470357139
28,314.404828496674921464821377012490257,313.2,1.204828496674921464821377012490257
29,337.211938523948069567489240505085254,336.0,1.211938523948069567489240505085254
30,360.818805184313684413216307022537904,359.6,1.218805184313684413216307022537904
31,385.225444620892578232013379684814679,384.0,1.225444620892578232013379684814679
32,410.431871419988890330222301845822475,409.2,1.231871419988890330222301845822475
33,436.438098805214315134735054922472890,435.2,1.238098805214315134735054922472890
34,463.244138802252750344659498718906137,462.0,1.244138802252750344659498718906137
35,490.850002379439098497299787384048702,489.6,1.250002379439098497299787384048702
36,519.255699568292476376940365327293552,518.0,1.255699568292476376940365327293552
37,548.461239567340002146544444635907800,547.2,1.261239567340002146544444635907800
38,578.466630831936911339449347812914031,577.2,1.266630831936911339449347812914031
39,609.271881152290904198714392334789998,608.0,1.271881152290904198714392334789998
40,640.876997721502806068305721563982144,639.6,1.276997721502806068305721563982144
41,673.281987195118872266641629883291549,672.0,1.281987195118872266641629883291549
42,706.486855743435076271565643032354276,705.2,1.286855743435076271565643032354276
43,740.491609097587233700938663781347596,739.2,1.291609097587233700938663781347596
44,775.296252590292720557570806536910795,774.0,1.296252590292720557570806536910795
45,810.900791191971974638244390409625171,809.6,1.300791191971974638244390409625171
46,847.305229542864832724009447710275380,846.0,1.305229542864832724009447710275380
47,884.509571981663279556621286166374888,883.2,1.309571981663279556621286166374888
48,922.513822571104598241758034104534873,921.2,1.313822571104598241758034104534873
49,961.317985120904249175773509959921786,960.0,1.317985120904249175773509959921786
50,1000.92206320835368187909919209441985,999.6,1.32206320835368187909919209441985
51,1041.32606019686281715694640796631880,1040.0,1.32606019686281715694640796631880
52,1082.52997925268859179366875959838087,1081.2,1.32997925268859179366875959838087
53,1124.53382336005850786860578687036035,1123.2,1.33382336005850786860578687036035
54,1167.33759533487056764977864535765127,1166.0,1.33759533487056764977864535765127
55,1210.94129783712749952930177140539570,1209.6,1.34129783712749952930177140539570
56,1255.34493338224310589425361208032390,1254.0,1.34493338224310589425361208032390
57,1300.54850435134136486163415292008606,1299.2,1.34850435134136486163415292008606
58,1346.55201300065412061974915322331605,1345.2,1.35201300065412061974915322331605
59,1393.35546147011044317108855351331522,1392.0,1.35546147011044317108855351331522
60,1440.95885179119971376406656123769591,1439.6,1.35885179119971376406656123769591
61,1489.36218589418092807348834122529034,1488.0,1.36218589418092807348834122529034
62,1538.56546561470240818449649264584324,1537.2,1.36546561470240818449649264584324
63,1588.56869269988887254573141729080426,1587.2,1.36869269988887254573141729080426
64,1639.37186881394650057751890146449275,1638.0,1.37186881394650057751890146449275
65,1690.97499554333109378092649609755259,1689.6,1.37499554333109378092649609755259
66,1743.37807440151958785447719879694129,1742.0,1.37807440151958785447719879694129
67,1796.58110683342090803398394317712128,1795.2,1.38110683342090803398394317712128
68,1850.58409421945840371016059387800888,1849.2,1.38409421945840371016059387800888
69,1905.38703787935278570793894914283973,1904.0,1.38703787935278570793894914283973
70,1960.98993907563156134315784801418402,1959.6,1.38993907563156134315784801418402
71,2017.39279901688836366855971347825336,2016.0,1.39279901688836366855971347825336
72,2074.59561886081327307865055040832648,2073.2,1.39561886081327307865055040832648
73,2132.59839971701317643657619099117838,2131.2,1.39839971701317643657619099117838
74,2191.40114264963939003761516120775103,2190.0,1.40114264963939003761516120775103
75,2251.00384867983814162278577169734773,2249.6,1.40384867983814162278577169734773
76,2311.40651878803805709931000390810536,2310.0,1.40651878803805709931000390810536
77,2372.60915391608749522625887378478429,2371.2,1.40915391608749522625887378478429
78,2434.61175496925340772552386092033763,2433.2,1.41175496925340772552386092033763
79,2497.41432281809235545826694880969548,2496.0,1.41432281809235545826694880969548
80,2561.01685830020337318135744854792963,2559.6,1.41685830020337318135744854792963
81,2625.41936222187152605682727025550671,2624.0,1.41936222187152605682727025550671
82,2690.62183535961023963682288777356861,2689.2,1.42183535961023963682288777356861
83,2756.62427846160979631274263916354038,2755.2,1.42427846160979631274263916354038
84,2823.42669224909876692553192874875402,2822.0,1.42669224909876692553192874875402
85,2891.02907741762458695793526013059855,2889.6,1.42907741762458695793526013059855
86,2959.43143463825897086411476340559786,2958.0,1.43143463825897086411476340559786
87,3028.63376455873340062124502505717083,3027.2,1.43376455873340062124502505717083
88,3098.63606780450950120995836416301470,3097.2,1.43606780450950120995836416301470
89,3169.43834497978873222835323017799740,3168.0,1.43834497978873222835323017799740
90,3241.04059666846548162754913514733757,3239.6,1.44059666846548162754913514733757
91,3313.44282343502732610472085191012943,3312.0,1.44282343502732610472085191012943
92,3386.64502582540593439200550041030656,3385.2,1.44502582540593439200550041030656
93,3460.64720436778182742462052510021287,3459.2,1.44720436778182742462052510021287
94,3535.44935957334596644279247527363182,3534.0,1.44935957334596644279247527363182
95,3611.05149193702091892806748330693315,3609.6,1.45149193702091892806748330693315
96,3687.45360193814415045245793871844433,3686.0,1.45360193814415045245793871844433
97,3764.65569004111580617677023444426626,3763.2,1.45569004111580617677023444426626
98,3842.65775669601317286016377390980890,3841.2,1.45775669601317286016377390980890
99,3921.45980233917385877080228897585120,3920.0,1.45980233917385877080228897585120
100,4001.06182739374958254704248008400854,3999.6,1.46182739374958254704248008400854
101,4081.46383227023233275445047955614454,4080.0,1.46383227023233275445047955614454
102,4162.66581736695453430921558989038340,4161.2,1.46581736695453430921558989038340
103,4244.66778307056475002491785487024573,4243.2,1.46778307056475002491785487024573
104,4327.46972975648033827489561862634146,4326.0,1.46972975648033827489561862634146
105,4411.07165778931839468870232131156825,4409.6,1.47165778931839468870232131156825
106,4495.47356752330621503689808112652523,4494.0,1.47356752330621503689808112652523
107,4580.67545930267243837646618662840239,4579.2,1.47545930267243837646618662840239
108,4666.67733346201995028959024968784956,4665.2,1.47733346201995028959024968784956
109,4753.47919032668155745499359900468696,4752.0,1.47919032668155745499359900468696
110,4841.08103021305938237091743544209710,4839.6,1.48103021305938237091743544209710
111,4929.48285342894886118761575664750099,4928.0,1.48285342894886118761575664750099
112,5018.68466027384817817361157962411200,5017.2,1.48466027384817817361157962411200
113,5108.68645103925391480416490533957883,5107.2,1.48645103925391480416490533957883
114,5199.48822600894364270264655344121852,5198.0,1.48822600894364270264655344121852
115,5291.08998545924614921700939243125080,5289.6,1.48998545924614921700939243125080
116,5383.49172965929993608190029799997640,5382.0,1.49172965929993608190029799997640
117,5476.69345887130059990394938932834532,5475.2,1.49345887130059990394938932834532
118,5570.69517335073766217666752963911621,5569.2,1.49517335073766217666752963911621
119,5665.49687334662138281766678206880230,5664.0,1.49687334662138281766678206880230
120,5761.09855910170006537868352221983551,5759.6,1.49855910170006537868352221983551
121,5857.50023085266832381163969763799119,5856.0,1.50023085266832381163969763799119
122,5954.70188883036676176084491656397660,5953.2,1.50188883036676176084491656397660
123,6052.70353325997348315851006118970654,6051.2,1.50353325997348315851006118970654
124,6151.50516436118783522093446131431698,6150.0,1.50516436118783522093446131431698
125,6251.10678234840675537646555844377112,6249.6,1.50678234840675537646555844377112
126,6351.50838743089407845903242094347533,6350.0,1.50838743089407845903242094347533
127,6452.70997981294313992316808071401777,6451.2,1.50997981294313992316808071401777
128,6554.71155969403298824924577626310755,6553.2,1.51155969403298824924577626310755
129,6657.51312726897850763441607124498331,6656.0,1.51312726897850763441607124498331
130,6761.11468272807473368286455741405819,6759.6,1.51468272807473368286455741405819
131,6865.51622625723562940489177561467519,6864.0,1.51622625723562940489177561467519
132,6970.71775803812757385711617680719258,6969.2,1.51775803812757385711617680719258
133,7076.71927824829780397451702284877616,7075.2,1.51927824829780397451702284877616
134,7183.52078706129803886907522165420516,7182.0,1.52078706129803886907522165420516
135,7291.12228464680349776142763960860426,7289.6,1.52228464680349776142763960860426
136,7399.52377117072751902442007137542759,7398.0,1.52377117072751902442007137542759
137,7508.72524679533197450950042103044671,7507.2,1.52524679533197450950042103044671
138,7618.72671167933365971490311008114588,7617.2,1.52671167933365971490311008114588
139,7729.52816597800683824867005014547983,7728.0,1.52816597800683824867005014547983
140,7841.12960984328210359358528947521547,7839.6,1.52960984328210359358528947521547
141,7953.53104342384171662361047896717014,7952.0,1.53104342384171662361047896717014
142,8066.73246686521156924814120171002516,8065.2,1.53246686521156924814120171002516
143,8180.73388030984991591023497267679037,8179.2,1.53388030984991591023497267679037
144,8295.53528389723300748532462217914310,8294.0,1.53528389723300748532462217914310
145,8411.13667776393775793917183852099333,8409.6,1.53667776393775793917183852099333
146,8527.53806204372156623506457631135876,8526.0,1.53806204372156623506457631135876
147,8644.73943686759940777729609726545245,8643.2,1.53943686759940777729609726545245
148,8762.74080236391831071993009621667053,8761.2,1.54080236391831071993009621667053
149,8881.54215865842931894178201420630491,8880.0,1.54215865842931894178201420630491
150,9001.14350587435704532846951643532068,8999.6,1.54350587435704532846951643532068
151,9121.54484413246691127576127084813295,9120.0,1.54484413246691127576127084813295
152,9242.74617355113016271336858445739245,9241.2,1.54617355113016271336858445739245
153,9364.74749424638675159884773729415879,9363.2,1.54749424638675159884773729415879
154,9487.54880633200616678082886715171296,9486.0,1.54880633200616678082886715171296
155,9611.15010991954629246753748060132637,9609.6,1.55010991954629246753748060132637
156,9735.55140511841037216694462305830328,9734.0,1.55140511841037216694462305830328
157,9860.75269203590214914512167705047324,9859.2,1.55269203590214914512167705047324
158,9986.75397077727925522087327077602577,9985.2,1.55397077727925522087327077602577
159,10113.5552414458049115694538258096045,10112.0,1.5552414458049115694538258096045
160,10241.1565041427980078728775162646848,10239.6,1.5565041427980078728775162646848
161,10369.5577589676816183129126588047090,10368.0,1.5577589676816183129126588047090
162,10498.7590060180300138678319911954318,10497.2,1.5590060180300138678319911954318
163,10628.7602453896142257661882196985608,10627.2,1.5602453896142257661882196985608
164,10759.5614771764462147341798438061170,10758.0,1.5614771764462147341798438061170
165,10891.1627014708216946367949602209638,10889.6,1.5627014708216946367949602209638
166,11023.5639183633616610282918087836252,11022.0,1.5639183633616610282918087836252
167,11156.7651279430526718443055723738778,11155.2,1.5651279430526718443055723738778
168,11290.7663302972859229244649049747450,11289.2,1.5663302972859229244649049747450
169,11425.5675255118951634275788531898487,11424.0,1.5675255118951634275788531898487
170,11561.1687136711934908824798172392756,11559.6,1.5687136711934908824798172392756
171,11697.5698948580090660689533776528272,11696.0,1.5698948580090660689533776528272
172,11834.7710691537197855953828588588860,11833.2,1.5710691537197855953828588588860
173,11972.7722366382869475754093403559861,11971.2,1.5722366382869475754093403559861
174,12111.5733973902879462470910604407776,12110.0,1.5733973902879462470910604407776
175,12251.1745514869480295194651400372610,12249.6,1.5745514869480295194651400372610
176,12391.5756990041711491528343597339041,12390.0,1.5756990041711491528343597339041
177,12532.7768400165699368332863187735111,12531.2,1.5768400165699368332863187735111
178,12674.7779745974948352958110475021592,12673.2,1.5779745974948352958110475021592
179,12817.5791028190624109409327268818305,12816.0,1.5791028190624109409327268818305
180,12961.1802247521828788912242017902970,12959.6,1.5802247521828788912242017902970
181,13105.5813404665868631362602516328142,13104.0,1.5813404665868631362602516328142
182,13250.7824500308514194613647015708544,13249.2,1.5824500308514194613647015708544
183,13396.7835535124253442093950188186695,13395.2,1.5835535124253442093950188186695
184,13543.5846509776537931170700620319971,13542.0,1.5846509776537931170700620319971
185,13691.1857424918022320339338451436583,13689.6,1.5857424918022320339338451436583
186,13839.5868281190797404925441717888979,13838.0,1.5868281190797404925441717888979
187,13988.7879079226616919303528330456072,13987.2,1.5879079226616919303528330456072
188,14138.7889819647118259995611208263395,14137.2,1.5889819647118259995611208263395
189,14289.5900503064037366960073541800814,14288.0,1.5900503064037366960073541800814
190,14441.1911130079417919581301864299355,14439.6,1.5911130079417919581301864299355
191,14593.5921701285815039585250486511649,14592.0,1.5921701285815039585250486511649
192,14746.7932217266493664702616993903037,14745.2,1.5932217266493664702616993903037
193,14900.7942678595621776117751092897154,14899.2,1.5942678595621776117751092897154
194,15055.5953085838458613110760259975453,15054.0,1.5953085838458613110760259975453
195,15211.1963439551538054216030591100197,15209.6,1.5963439551538054216030591100197
196,15367.5973740282847301815787751151447,15366.0,1.5973740282847301815787751151447
197,15524.7983988572001013921528608218730,15523.2,1.5983988572001013921528608218730
198,15682.7994184950411024762732819940154,15681.2,1.5994184950411024762732819940154
199,15841.6004329941451782521006882811458,15840.0,1.6004329941451782521006882811458
200,16001.2014424060621643611268791432961,15999.6,1.6014424060621643611268791432961
201,16161.6024467815700133273758642958657,16160.0,1.6024467815700133273758642958657
202,16322.8034461706901306237986372042784,16321.2,1.6034461706901306237986372042784
203,16484.8044406227023314005434507137689,16483.2,1.6044406227023314005434507137689
204,16647.6054301861594294899628725726563,16646.0,1.6054301861594294899628725726563
205,16811.2064149089014686536694342025823,16809.6,1.6064149089014686536694342025823
206,16975.6073948380696090903364939045809,16974.0,1.6073948380696090903364939045809
207,17140.8083700201196750748696172726117,17139.2,1.6083700201196750748696172726117
208,17306.8093405008353779503528288930852,17305.2,1.6093405008353779503528288930852
209,17473.6103063253412202155970744708794,17472.0,1.6103063253412202155970744708794
210,17641.2112675381150922038896873797629,17639.6,1.6112675381150922038896873797629
211,17809.6122241830005687119010042040436,17808.0,1.6122241830005687119010042040436
212,17978.8131763032189158058699642314785,17977.2,1.6131763032189158058699642314785
213,18148.8141239413808121829563806680872,18147.2,1.6141239413808121829563806680872
214,18319.6150671394978000634430945195377,18318.0,1.6150671394978000634430945195377
215,18491.2160059389934648200125237198639,18489.6,1.6160059389934648200125237198639
216,18663.6169403807143572985477306167597,18662.0,1.6169403807143572985477306167597
217,18836.8178705049406627894931886584462,18835.2,1.6178705049406627894931886584462
218,19010.8187963513966256222178745358911,19009.2,1.6187963513966256222178745358911
219,19185.6197179592607326553092365185799,19184.0,1.6197179592607326553092365185799
220,19361.2206353671756681709183298820078,19359.6,1.6206353671756681709183298820078
221,19537.6215486132580380754383913362951,19536.0,1.6215486132580380754383913362951
222,19714.8224577351078806038746198876156,19713.2,1.6224577351078806038746198876156
223,19892.8233627698179570887285137025013,19891.2,1.6233627698179570887285137025013
224,20071.6242637539828378526870709696456,20070.0,1.6242637539828378526870709696456
225,20251.2251607237077857816513624289366,20249.6,1.6251607237077857816513624289366
226,20431.6260537146174411160371668874452,20430.0,1.6260537146174411160371668874452
227,20612.8269427618643161031859700338364,20611.2,1.6269427618643161031859700338364
228,20794.8278279001371013210773864083971,20793.2,1.6278279001371013210773864083971
229,20977.6287091636687908254780114421019,20976.0,1.6287091636687908254780114421019
230,21161.2295865862446308067547411175076,21159.6,1.6295865862446308067547411175076
231,21345.6304602012098935456066863841010,21344.0,1.6304602012098935456066863841010
232,21530.8313300414774870766199054096062,21529.2,1.6313300414774870766199054096062
233,21716.8321961395353955451328085542842,21715.2,1.6321961395353955451328085542842
234,21903.6330585274539664034613328897938,21902.0,1.6330585274539664034613328897938
235,22091.2339172368930376175669484901555,22089.6,1.6339172368930376175669484901555
236,22279.6347722991089145829186778741816,22278.0,1.6347722991089145829186778741816
237,22468.8356237449612003696587282871962,22467.2,1.6356237449612003696587282871962
238,22658.8364716049194810280650263640378,22657.2,1.6364716049194810280650263640378
