Eigenstate,Energy,Kinetic Energy,Potential Energy
1,0.500000000020345678674147752486997357,0.0,0.500000000020345678674147752486997357
2,1.84623093778392054091082367844952865,1.2,0.64623093778392054091082367844952865
3,3.93633761009508185157526412115137755,3.2,0.73633761009508185157526412115137755
4,6.79966527862678434199594472665461180,6.0,0.79966527862678434199594472665461180
5,10.4480465766931784776824878180527032,9.6,0.8480465766931784776824878180527032
6,14.8870659990482221425371666598684405,14.0,0.8870659990482221425371666598684405
7,20.1197208271297535176347900547305574,19.2,0.9197208271297535176347900547305574
8,26.1477838473145473053626795429544017,25.2,0.9477838473145473053626795429544017
9,32.9723835586087865421124009954310527,32.0,0.9723835586087865421124009954310527
10,40.5942802151609843304306529023403582,39.6,0.9942802151609843304306529023403582
11,49.0140093871121406797536446702628828,48.0,1.0140093871121406797536446702628828
12,58.2319621697668576914828275417380145,57.2,1.0319621697668576914828275417380145
13,68.2484326931909224037323639996476894,67.2,1.0484326931909224037323639996476894
14,79.0636476550674631666127536409590594,78.0,1.0636476550674631666127536409590594
15,90.6777854365111314181099526688239746,89.6,1.0777854365111314181099526688239746
16,103.090988906938544863176134334562406,102.0,1.090988906938544863176134334562406
17,116.303374257529790681572090923830307,115.2,1.103374257529790681572090923830307
18,130.315037252234624322020923548938834,129.2,1.115037252234624322020923548938834
19,145.126057750876446726480661422520325,144.0,1.126057750876446726480661422520325
20,160.736503046786240540687322702846811,159.6,1.136503046786240540687322702846811
21,177.146430372884267154600163462048232,176.0,1.146430372884267154600163462048232
22,194.355888812838806753261239433585569,193.2,1.155888812838806753261239433585569
23,212.364920779002682922965097368578604,211.2,1.164920779002682922965097368578604
24,231.173563169813684781808316265219116,230.0,1.173563169813684781808316265219116
25,250.781848286590493355514627245433968,249.6,1.181848286590493355514627245433968
26,271.189804567340269320458280599733101,270.0,1.189804567340269320458280599733101
27,292.397457179721228836854855136551537,291.2,1.197457179721228836854855136551537
28,314.404828504401683387463613499118036,313.2,1.204828504401683387463613499118036
29,337.211938532261991716664286615584398,336.0,1.211938532261991716664286615584398
30,360.818805193236384396184575880160823,359.6,1.218805193236384396184575880160823
31,385.225444630445683044179369327514297,384.0,1.225444630445683044179369327514297
32,410.431871430194036640002758183984992,409.2,1.231871430194036640002758183984992
33,436.438098816093149573156902719945195,435.2,1.238098816093149573156902719945195
34,463.244138813826929798957290055423955,462.0,1.244138813826929798957290055423955
35,490.850002391730290407924381452317319,489.6,1.250002391730290407924381452317319
36,519.255699581322359037501814714513039,518.0,1.255699581322359037501814714513039
37,548.461239581130265006299970788929110,547.2,1.261239581130265006299970788929110
38,578.466630846509255308017255777963039,577.2,1.266630846509255308017255777963039
39,609.271881167667041952750854899654793,608.0,1.271881167667041952750854899654793
40,640.876997737704462359926619126824729,639.6,1.276997737704462359926619126824729
41,673.281987212167784233408371170850771,672.0,1.281987212167784233408371170850771
42,706.486855761352993747883905665713925,705.2,1.286855761352993747883905665713925
43,740.491609116395919530743639960895780,739.2,1.291609116395919530743639960895780
44,775.296252610013950908192892428994862,774.0,1.296252610013950908192892428994862
45,810.900791212627539315366150945911397,809.6,1.300791212627539315366150945911397
46,847.305229564476535487638770929365272,846.0,1.305229564476535487638770929365272
47,884.509572004252938438017446894867931,883.2,1.309572004252938438017446894867931
48,922.513822594694045861257313240241391,921.2,1.313822594694045861257313240241391
49,961.317985145515333061469405389594378,960.0,1.317985145515333061469405389594378
50,1000.92206323400826478633937536893130,999.6,1.32206323400826478633937536893130
51,1041.32606022358277738861464450341064,1040.0,1.32606022358277738861464450341064
52,1082.52997928049582352122518854328190,1081.2,1.32997928049582352122518854328190
53,1124.53382338897492145386340141713768,1123.2,1.33382338897492145386340141713768
54,1167.33759536491808996739764458938850,1166.0,1.33759536491808996739764458938850
55,1210.94129786832807428998675130505789,1209.6,1.34129786832807428998675130505789
56,1255.34493341461869396864143525056235,1254.0,1.34493341461869396864143525056235
57,1300.54850438491394460486281252927142,1299.2,1.34850438491394460486281252927142
58,1346.55201303544568819670012986234803,1345.2,1.35201303544568819670012986234803
59,1393.35546150614301288229704737068621,1392.0,1.35546150614301288229704737068621
60,1440.95885182849531837229564874985063,1439.6,1.35885182849531837229564874985063
61,1489.36218593276161913096456857491727,1488.0,1.36218593276161913096456857491727
62,1538.56546565459025636080570737268345,1537.2,1.36546565459025636080570737268345
63,1588.56869274110596795637477565676180,1587.2,1.36869274110596795637477565676180
64,1639.37186885651495311312999853460924,1638.0,1.37186885651495311312999853460924
65,1690.97499558727303343715146944777999,1689.6,1.37499558727303343715146944777999
66,1743.37807444685716506252044881121412,1742.0,1.37807444685716506252044881121412
67,1796.58110688017629399182283168177514,1795.2,1.38110688017629399182283168177514
68,1850.58409426765379071443311834479503,1849.2,1.38409426765379071443311834479503
69,1905.38703792901038748650897572861036,1904.0,1.38703792901038748650897572861036
70,1960.98993912677361338836298300169799,1959.6,1.38993912677361338836298300169799
71,2017.39279906953712357114738629453061,2016.0,1.39279906953712357114738629453061
72,2074.59561891499102086240827703355912,2073.2,1.39561891499102086240827703355912
73,2132.59839977274221489366239063701135,2131.2,1.39839977274221489366239063701135
74,2191.40114270694204506459723478956989,2190.0,1.40114270694204506459723478956989
75,2251.00384873873676255739247162291122,2249.6,1.40384873873676255739247162291122
76,2311.40651884855501705790543060594254,2310.0,1.40651884855501705790543060594254
77,2372.60915397824519144204566669051445,2371.2,1.40915397824519144204566669051445
78,2434.61175503307426188748343482689839,2433.2,1.41175503307426188748343482689839
79,2497.41432288359881405084482719243981,2496.0,1.41432288359881405084482719243981
80,2561.01685836741790782490195984684347,2559.6,1.41685836741790782490195984684347
81,2625.41936229081663384879007430466713,2624.0,1.41936229081663384879007430466713
82,2690.62183543030844349372997663975948,2689.2,1.42183543030844349372997663975948
83,2756.62427853408364531294461517094688,2755.2,1.42427853408364531294461517094688
84,2823.42669232337083665274253052572657,2822.0,1.42669232337083665274253052572657
85,2891.02907749371747984556725407712964,2889.6,1.42907749371747984556725407712964
86,2959.43143471619531654042245022284870,2958.0,1.43143471619531654042245022284870
87,3028.63376463853585625528274109908676,3027.2,1.43376463853585625528274109908676
88,3098.63606788620075185836449466802105,3097.2,1.43606788620075185836449466802105
89,3169.43834506339149118296935532367265,3168.0,1.43834506339149118296935532367265
90,3241.04059675400249076388403967372186,3239.6,1.44059675400249076388403967372186
91,3313.44282352252135623126924653750060,3312.0,1.44282352252135623126924653750060
92,3386.64502591487978560043139907443245,3385.2,1.44502591487978560043139907443245
93,3460.64720445925832944081532553274601,3459.2,1.44720445925832944081532553274601
94,3535.44935966684797897881786809590807,3534.0,1.44935966684797897881786809590807
95,3611.05149203257133203499342984693561,3609.6,1.45149203257133203499342984693561
96,3687.45360203576588487410602552326037,3686.0,1.45360203576588487410602552326037
97,3764.65569014083181370437280840614701,3763.2,1.45569014083181370437280840614701
98,3842.65775679784643668794933895640070,3841.2,1.45775679784643668794933895640070
99,3921.45980244314739385251773548673015,3920.0,1.45980244314739385251773548673015
100,4001.06182749988643595342278330680116,3999.6,1.46182749988643595342278330680116
101,4081.46383237855558403164658954020564,4080.0,1.46383237855558403164658954020564
102,4162.66581747748729583819131164549088,4161.2,1.46581747748729583819131164549088
103,4244.66778318333016738182658132548566,4243.2,1.46778318333016738182658132548566
104,4327.46972987150159059244787267448908,4326.0,1.46972987150159059244787267448908
105,4411.07165790661869501853510869732086,4409.6,1.47165790661869501853510869732086
106,4495.47356764290881071295715435826342,4494.0,1.47356764290881071295715435826342
107,4580.67545942460061137941236697555019,4579.2,1.47545942460061137941236697555019
108,4666.67733358629701761224103558350245,4665.2,1.47733358629701761224103558350245
109,4753.47919045333087146881136059591197,4752.0,1.47919045333087146881136059591197
110,4841.08103034210433119355555995966575,4839.6,1.48103034210433119355555995966575
111,4929.48285356041286905153417860472565,4928.0,1.48285356041286905153417860472565
112,5018.68466040775470579577319457131614,5017.2,1.48466040775470579577319457131614
113,5108.68645117562645975682443914571694,5107.2,1.48645117562645975682443914571694
114,5199.48822614780573978524352368459457,5198.0,1.48822614780573978524352368459457
115,5291.08998560062137082917686853971968,5289.6,1.48998560062137082917686853971968
116,5383.49172980321189259760122879505037,5382.0,1.49172980321189259760122879505037
117,5476.69345901777294004675234311861178,5475.2,1.49345901777294004675234311861178
118,5570.69517349979407339617375270479189,5569.2,1.49517349979407339617375270479189
119,5665.49687349828559166710055217690680,5664.0,1.49687349828559166710055217690680
120,5761.09855925599583789365783820106563,5759.6,1.49855925599583789365783820106563
121,5857.50023100961946589010942350893530,5856.0,1.50023100961946589010942350893530
122,5954.70188898999711954425955120074140,5953.2,1.50188898999711954425955120074140
123,6052.70353342230694341417839464041366,6051.2,1.50353342230694341417839464041366
124,6151.50516452624832572561342485517663,6150.0,1.50516452624832572561342485517663
125,6251.10678251621824530118566376511920,6249.6,1.50678251621824530118566376511920
126,6351.50838760148057875517224482428983,6350.0,1.50838760148057875517224482428983
127,6452.70997998632870370979031961768077,6451.2,1.50997998632870370979031961768077
128,6554.71155987024171120170746936454361,6553.2,1.51155987024171120170746936454361
129,6657.51312744803452837426566753745842,6656.0,1.51312744803452837426566753745842
130,6761.11468291000223416903855644398673,6759.6,1.51468291000223416903855644398673
131,6865.51622644205883532622376588555383,6864.0,1.51622644205883532622376588555383
132,6970.71775822587075502617115272737395,6969.2,1.51775822587075502617115272737395
133,7076.71927843898527472276393242630605,7075.2,1.51927843898527472276393242630605
134,7183.52078725495415844341078303442965,7182.0,1.52078725495415844341078303442965
135,7291.12228484345267072206453714427787,7289.6,1.52228484345267072206453714427787
136,7399.52377137039419564415269901912975,7398.0,1.52377137039419564415269901912975
137,7508.72524699804065117436144180389094,7507.2,1.52524699804065117436144180389094
138,7618.72671188510887932622415712108854,7617.2,1.52671188510887932622415712108854
139,7729.52816618687319062655996682597418,7728.0,1.52816618687319062655996682597418
140,7841.12961005526422588183942298831980,7839.6,1.52961005526422588183942298831980
141,7953.53104363896429369606456434869278,7952.0,1.53104363896429369606456434869278
142,8066.73246708349933411648349067280415,8065.2,1.53246708349933411648349067280415
143,8180.73388053132765013329032196078327,8179.2,1.53388053132765013329032196078327
144,8295.53528412192554157982435466367688,8294.0,1.53528412192554157982435466367688
145,8411.13667799186997179202324815625494,8409.6,1.53667799186997179202324815625494
146,8527.53806227491838951713403265891560,8526.0,1.53806227491838951713403265891560
147,8644.73943710208582035871983628485467,8643.2,1.53943710208582035871983628485467
148,8762.74080260171934308696677356029588,8761.2,1.54080260171934308696677356029588
149,8881.54215889957005261522125771338096,8880.0,1.54215889957005261522125771338096
150,9001.14350611886261328361078206447482,8999.6,1.54350611886261328361078206447482
151,9121.54484438036249836397736562030958,9120.0,1.54484438036249836397736562030958
152,9242.74617380244100608526833944869178,9241.2,1.54617380244100608526833944869178
153,9364.74749450113814112905239039799505,9363.2,1.54749450113814112905239039799505
154,9487.54880659022344549437676401353873,9486.0,1.54880659022344549437676401353873
155,9611.15011018125485696793187080143328,9609.6,1.55011018125485696793187080143328
156,9735.55140538363567306585934885154763,9734.0,1.55140538363567306585934885154763
157,9860.75269230466969149377965450448616,9859.2,1.55269230466969149377965450448616
158,9986.75397104961459894311279382793954,9985.2,1.55397104961459894311279382793954
159,10113.5552417217336718964977607274340,10112.0,1.5552417217336718964977607274340
160,10241.1565044223458557798205843075548,10239.6,1.5565044223458557798205843075548
161,10369.5577592508742809569420934626829,10368.0,1.5577592508742809569420934626829
162,10498.7590063048932750281969331573963,10497.2,1.5590063048932750281969331573963
163,10628.7602456801739262859333322717156,10627.2,1.5602456801739262859333322717156
164,10759.5614774707282529636586852369545,10758.0,1.5614774707282529636586852369545
165,10891.1627017688520268789788280196243,10889.6,1.5627017688520268789788280196243
166,11023.5639186651663019858897926233142,11022.0,1.5639186651663019858897926233142
167,11156.7651282486576950687116469570474,11155.2,1.5651282486576950687116469570474
168,11290.7663306067174612665480841146060,11289.2,1.5663306067174612665480841146060
169,11425.5675258251794094903324166751291,11424.0,1.5675258251794094903324166751291
170,11561.1687139883566974755458135395490,11559.6,1.5687139883566974755458135395490
171,11697.5698951790775466650386507096013,11696.0,1.5698951790775466650386507096013
172,11834.7710694787199147885829753484650,11833.2,1.5710694787199147885829753484650
173,11972.7722369672451615414568964777554,11971.2,1.5722369672451615414568964777554
174,12111.5733977232307432055449545779962,12110.0,1.5733977232307432055449545779962
175,12251.1745518239019701978575076496732,12249.6,1.5745518239019701978575076496732
176,12391.5756993451628572527919583748341,12390.0,1.5756993451628572527919583748341
177,12532.7768403616260994986432779241308,12531.2,1.5768403616260994986432779241308
178,12674.7779749466422035827300121820635,12673.2,1.5779749466422035827300121820635
179,12817.5791031723278002900515050795505,12816.0,1.5791031723278002900515050795505
180,12961.1802251095931696018451840519298,12959.6,1.5802251095931696018451840519298
181,13105.5813408281690008425999477507268,13104.0,1.5813408281690008425999477507268
182,13250.7824503966324156108808598650027,13249.2,1.5824503966324156108808598650027
183,13396.7835538824322765432089356060685,13395.2,1.5835538824322765432089356060685
184,13543.5846513519138061525017667460272,13542.0,1.5846513519138061525017667460272
185,13691.1857428703425375491680003421025,13689.6,1.5857428703425375491680003421025
186,13839.5868285019276180134446107273576,13838.0,1.5868285019276180134446107273576
187,13988.7879083098444892194438302634363,13987.2,1.5879083098444892194438302634363
188,14138.7889823562569595471935340842475,14137.2,1.5889823562569595471935340842475
189,14289.5900507023386922137280012514990,14288.0,1.5900507023386922137280012514990
190,14441.1911134082941248742728375895152,14439.6,1.5911134082941248742728375895152
191,14593.5921705333788399160416276760840,14592.0,1.5921705333788399160416276760840
192,14746.7932221359194018268123641959132,14745.2,1.5932221359194018268123641959132
193,14900.7942682733326799420960029607811,14899.2,1.5942682733326799420960029607811
194,15055.5953090021446699116436770199631,15054.0,1.5953090021446699116436770199631
195,15211.1963443780088318176144700649150,15209.6,1.5963443780088318176144700649150
196,15367.5973744557239586362664096212082,15366.0,1.5973744557239586362664096212082
197,15524.7983992892515894184538868623635,15523.2,1.5983992892515894184538868623635
198,15682.7994189317329813508724829070614,15681.2,1.5994189317329813508724829070614
199,15841.6004334355056535318666999635230,15840.0,1.6004334355056535318666999635230
200,16001.2014428521195164019614821352404,15999.6,1.6014428521195164019614821352404
201,16161.6024472323525978054961741917294,16160.0,1.6024472323525978054961741917294
202,16322.8034466262263790594722689720768,16321.2,1.6034466262263790594722689720768
203,16484.8044410830207516842967580037138,16483.2,1.6044410830207516842967580037138
204,16647.6054306512886064112825999098050,16646.0,1.6054306512886064112825999098050
205,16811.2064153788700644322182083931580,16809.6,1.6064153788700644322182083931580
206,16975.6073953129063639097027450606102,16974.0,1.6073953129063639097027450606102
207,17140.8083704998534076188726603573282,17139.2,1.6083704998534076188726603573282
208,17306.8093409854949859419239967584552,17305.2,1.6093409854949859419239967584552
209,17473.6103068149556809582579237148962,17472.0,1.6103068149556809582579237148962
210,17641.2112680327134631258484683953621,17639.6,1.6112680327134631258484683953621
211,17809.6122246826119879127887215572282,17808.0,1.6122246826119879127887215572282
212,17978.8131768078726026061375137017743,17977.2,1.6131768078726026061375137017743
213,18148.8141244511060676759543839365328,18147.2,1.6141244511060676759543839365328
214,18319.6150676543240076702062927133956,18318.0,1.6150676543240076702062927133956
215,18491.2160064589500908467706066596801,18489.6,1.6160064589500908467706066596801
216,18663.6169409058309514969847557454028,18662.0,1.6169409058309514969847557454028
217,18836.8178710352468589197778832414802,18835.2,1.6178710352468589197778832414802
218,19010.8187968869221420188272174407491,19009.2,1.6187968869221420188272174407491
219,19185.6197185000353727956679397422434,19184.0,1.6197185000353727956679397422434
220,19361.2206359132293212468770098238037,19359.6,1.6206359132293212468770098238037
221,19537.6215491646206795676133347790509,19536.0,1.6215491646206795676133347790509
222,19714.8224582918095728588722489064730,19713.2,1.6224582918095728588722489064730
223,19892.8233633318888498992778522767888,19891.2,1.6233633318888498992778522767888
224,20071.6242643214531690407036228137886,20070.0,1.6242643214531690407036228137886
225,20251.2251612966078817842560620671664,20249.6,1.6251612966078817842560620671664
226,20431.6260542929777175745541532920782,20430.0,1.6260542929777175745541532920782
227,20612.8269433457152784551432076769840,20611.2,1.6269433457152784551432076769840
228,20794.8278284895093453952342473903035,20793.2,1.6278284895093453952342473903035
229,20977.6287097585930034399041438634963,20976.0,1.6287097585930034399041438634963
230,21161.2295871867515903699847917610328,21159.6,1.6295871867515903699847917610328
231,21345.6304608073304706608955251475594,21344.0,1.6304608073304706608955251475594
232,21530.8313306532426451493232643823791,21529.2,1.6313306532426451493232643823791
233,21716.8321967569761913932383852657430,21715.2,1.6321967569761913932383852657430
234,21903.6330591506015508712956530321721,21902.0,1.6330591506015508712956530321721
235,22091.2339178657786561927034379223671,22089.6,1.6339178657786561927034379223671
236,22279.6347729337639080163125409730500,22278.0,1.6347729337639080163125409730500
237,22468.8356243854170052990345601041017,22467.2,1.6356243854170052990345601041017
238,22658.8364722512076306045831199186904,22657.2,1.6364722512076306045831199186904
