Eigenstate,Energy,Kinetic Energy,Potential Energy
1,0.500000000715019717960040718079515686,0.0,0.500000000715019717960040718079515686
2,1.84623094231849542479716683610242846,1.2,0.64623094231849542479716683610242846
3,3.93633762341550757717688404769353517,3.2,0.73633762341550757717688404769353517
4,6.79966530637307399185224461180377786,6.0,0.79966530637307399185224461180377786
5,10.4480466247584406935557073142217863,9.6,0.8480466247584406935557073142217863
6,14.8870660734306114574897904290175577,14.0,0.8870660734306114574897904290175577
7,20.1197209338782294557724134732788752,19.2,0.9197209338782294557724134732788752
8,26.1477839925065390994564663839491638,25.2,0.9477839925065390994564663839491638
9,32.9723837483400698079630869683115014,32.0,0.9723837483400698079630869683115014
10,40.5942804555407854244131018965273850,39.6,0.9942804555407854244131018965273850
11,49.0140096842607026998334441274645610,48.0,1.0140096842607026998334441274645610
12,58.2319625298142615994067198395987661,57.2,1.0319625298142615994067198395987661
13,68.2484331222765921613293266186186937,67.2,1.0484331222765921613293266186186937
14,79.0636481593400652602748290534124176,78.0,1.0636481593400652602748290534124176
15,90.6777860221287130614369148835702166,89.6,1.0777860221287130614369148835702166
16,103.090989580068822889638870872634807,102.0,1.090989580068822889638870872634807
17,116.303375024350539234868456650587802,115.2,1.103375024350539234868456650587802
18,130.315038118934129588761621082878812,129.2,1.115038118934129588761621082878812
19,145.126058723654008646776329000821349,144.0,1.126058723654008646776329000821349
20,160.736504131852708462205293236958051,159.6,1.136504131852708462205293236958051
21,177.146431576462600756629940211228378,176.0,1.146431576462600756629940211228378
22,194.355890141164656348818408016656020,193.2,1.155890141164656348818408016656020
23,212.364922238324985065848275068781077,211.2,1.164922238324985065848275068781077
24,231.173564766395270322031763585254532,230.0,1.173564766395270322031763585254532
25,250.781850026708705916983362671769251,249.6,1.181850026708705916983362671769251
26,271.189806457287592752344194582597214,270.0,1.189806457287592752344194582597214
27,292.397459225805922598820976201297678,291.2,1.197459225805922598820976201297678
28,314.404830712948425122691102364560106,313.2,1.204830712948425122691102364560106
29,337.211940909612526481005681269990347,336.0,1.211940909612526481005681269990347
30,360.818807745750180170363964957350239,359.6,1.218807745750180170363964957350239
31,385.225447364500592274851387988381558,384.0,1.225447364500592274851387988381558
32,410.431874352186963645737100440988784,409.2,1.231874352186963645737100440988784
33,436.438101932440723720771433916717759,435.2,1.238101932440723720771433916717759
34,463.244142130966184409558564482470410,462.0,1.244142130966184409558564482470410
35,490.850005916119347394457009547574612,489.6,1.250005916119347394457009547574612
36,519.255703319441119309402574650214503,518.0,1.255703319441119309402574650214503
37,548.461243539481104704088304372164860,547.2,1.261243539481104704088304372164860
38,578.466635031617727952871418008334133,577.2,1.266635031617727952871418008334133
39,609.271885586082586614474765413214062,608.0,1.271885586082586614474765413214062
40,640.877002396001117962076452466659001,639.6,1.277002396001117962076452466659001
41,673.281992116944910127379910442133521,672.0,1.281992116944910127379910442133521
42,706.486860919235996698971627915666117,705.2,1.286860919235996698971627915666117
43,740.491614534036987268960952741496703,739.2,1.291614534036987268960952741496703
44,775.296258294092792405294363493866293,774.0,1.296258294092792405294363493866293
45,810.900797169852131957277573462022894,809.6,1.300797169852131957277573462022894
46,847.305235801583879318568713494247191,846.0,1.305235801583879318568713494247191
47,884.509578528009817659042401049064127,883.2,1.309578528009817659042401049064127
48,922.513829411897797772264395544027164,921.2,1.313829411897797772264395544027164
49,961.317992262994624641101546687807631,960.0,1.317992262994624641101546687807631
50,1000.92207065862387711009580871402347,999.6,1.32207065862387711009580871402347
51,1041.32606796222839809058089184842548,1040.0,1.32606796222839809058089184842548
52,1082.52998734009884751009162915180504,1081.2,1.32998734009884751009162915180504
53,1124.53383177649726009898438416064102,1123.2,1.33383177649726009898438416064102
54,1167.33760408735698897568315633230558,1166.0,1.33760408735698897568315633230558
55,1210.94130693271694049943193094830240,1209.6,1.34130693271694049943193094830240
56,1255.34494282802793128931536512056947,1254.0,1.34494282802793128931536512056947
57,1300.54851415445179934321685546206984,1299.2,1.34851415445179934321685546206984
58,1346.55202316825910400414213605161180,1345.2,1.35202316825910400414213605161180
59,1393.35547200941849557411690285960799,1392.0,1.35547200941849557411690285960799
60,1440.95886270945981086824778256494243,1439.6,1.35886270945981086824778256494243
61,1489.36219719868338677411766424573325,1488.0,1.36219719868338677411766424573325
62,1538.56547731277978287667669961353518,1537.2,1.36547731277978287667669961353518
63,1588.56870479891686231987809430683446,1587.2,1.36870479891686231987809430683446
64,1639.37188132134486759651003163225793,1638.0,1.37188132134486759651003163225793
65,1690.97500846656459311783370614430464,1689.6,1.37500846656459311783370614430464
66,1743.37808774809890907571919435956112,1742.0,1.37808774809890907571919435956112
67,1796.58112061090362881879559788365386,1795.2,1.38112061090362881879559788365386
68,1850.58410843544995580347579318911050,1849.2,1.38410843544995580347579318911050
69,1905.38705254150743351015779374755369,1904.0,1.38705254150743351015779374755369
70,1960.98995419165339344679998788584734,1959.6,1.38995419165339344679998788584734
71,2017.39281459453229765852825807811177,2016.0,1.39281459453229765852825807811177
72,2074.59563490788607391972363806889327,2073.2,1.39563490788607391972363806889327
73,2132.59841624137448877883956580768822,2131.2,1.39841624137448877883956580768822
74,2191.40115965920278477783582192569707,2190.0,1.40115965920278477783582192569707
75,2251.00386618257217706722557831323750,2249.6,1.40386618257217706722557831323750
76,2311.40653679196735508118562626877843,2310.0,1.40653679196735508118562626877843
77,2372.60917242929383253898791310271383,2371.2,1.40917242929383253898791310271383
78,2434.61177399987682324105737261364139,2433.2,1.41177399987682324105737261364139
79,2497.41434237433227330820580635687267,2496.0,1.41434237433227330820580635687267
80,2561.01687839031974238719104192877965,2559.6,1.41687839031974238719104192877965
81,2625.41938285418597700453077376620991,2624.0,1.41938285418597700453077376620991
82,2690.62185654250725780020566840781134,2689.2,1.42185654250725780020566840781134
83,2756.62430020353791363936686531655797,2755.2,1.42430020353791363936686531655797
84,2823.42671455857177130872893696090871,2822.0,1.42671455857177130872893696090871
85,2891.02910030322275022844238012962233,2889.6,1.42910030322275022844238012962233
86,2959.43145810863029574514682295504310,2958.0,1.43145810863029574514682295504310
87,3028.63378862259488710141961399259240,3027.2,1.43378862259488710141961399259240
88,3098.63609247064843279941075288269782,3097.2,1.43609247064843279941075288269782
89,3169.43837025706398257462632112283023,3168.0,1.43837025706398257462632112283023
90,3241.04062256580884197943137541700795,3239.6,1.44062256580884197943137541700795
91,3313.44284996144485412414246283075896,3312.0,1.44284996144485412414246283075896
92,3386.64505298997932482640728737989201,3385.2,1.44505298997932482640728737989201
93,3460.64723217966980516488146447980493,3459.2,1.44723217966980516488146447980493
94,3535.44938804178570250486639141958876,3534.0,1.44938804178570250486639141958876
95,3611.05152107132946990994396378566279,3609.6,1.45152107132946990994396378566279
96,3687.45363174771992203193353671751964,3686.0,1.45363174771992203193353671751964
97,3764.65572053544004122982670526319667,3763.2,1.45572053544004122982670526319667
98,3842.65778788465146479448894123644230,3841.2,1.45778788465146479448894123644230
99,3921.45983423177769068419593733722296,3920.0,1.45983423177769068419593733722296
100,4001.06186000005789283612444808732297,3999.6,1.46186000005789283612444808732297
101,4081.46386560007310781525041326281785,4080.0,1.46386560007310781525041326281785
102,4162.66585143024642898789651606889134,4161.2,1.46585143024642898789651606889134
103,4244.66781787731873649407405476605780,4243.2,1.46781787731873649407405476605780
104,4327.46976531680138402860723512853959,4326.0,1.46976531680138402860723512853959
105,4411.07169411340717036781310699587420,4409.6,1.47169411340717036781310699587420
106,4495.47360462146083281486616107613917,4494.0,1.47360462146083281486616107613917
107,4580.67549718529022165560789625780263,4579.2,1.47549718529022165560789625780263
108,4666.67737213959923547762902035147890,4665.2,1.47737213959923547762902035147890
109,4753.47922980982352861257321711657217,4752.0,1.47922980982352861257321711657217
110,4841.08107051246993954213601139631046,4839.6,1.48107051246993954213601139631046
111,4929.48289455544052324773490458710071,4928.0,1.48289455544052324773490458710071
112,5018.68470223834202105090657710794015,5017.2,1.48470223834202105090657710794015
113,5108.68649385278154595642770153080275,5107.2,1.48649385278154595642770153080275
114,5199.48826968264921275317418439513120,5198.0,1.48826968264921275317418439513120
115,5291.09003000438840168002396522333205,5289.6,1.49003000438840168002396522333205
116,5383.49177508725429613327923134329585,5382.0,1.49177508725429613327923134329585
117,5476.69350519356130317994099701664391,5475.2,1.49350519356130317994099701664391
118,5570.69522057891992461094163892434457,5569.2,1.49522057891992461094163892434457
119,5665.49692149246361255564868139062240,5664.0,1.49692149246361255564868139062240
120,5761.09860817706611783766518238958530,5759.6,1.49860817706611783766518238958530
121,5857.50028086954980098570391640213944,5856.0,1.50028086954980098570391640213944
122,5954.70193980088535690120010382585717,5953.2,1.50193980088535690120010382585717
123,6052.70358519638337199245931050821347,6051.2,1.50358519638337199245931050821347
124,6151.50521727587811490643581675049575,6150.0,1.50521727587811490643581675049575
125,6251.10683625390393242411994356045284,6249.6,1.50683625390393242411994356045284
126,6351.50844233986460688940230202194407,6350.0,1.50844233986460688940230202194407
127,6452.71003573819601096463479594964377,6451.2,1.51003573819601096463479594964377
128,6554.71161664852237292020487771501077,6553.2,1.51161664852237292020487771501077
129,6657.51318526580645359352548469437602,6656.0,1.51318526580645359352548469437602
130,6761.11474178049391777237192398365009,6759.6,1.51474178049391777237192398365009
131,6865.51628637865216735480711579066118,6864.0,1.51628637865216735480711579066118
132,6970.71781924210388866224480968869072,6969.2,1.51781924210388866224480968869072
133,7076.71934054855555450215260470499788,7075.2,1.51934054855555450215260470499788
134,7183.52085047172111030257304564997827,7182.0,1.52085047172111030257304564997827
135,7291.12234918144105553396762667593888,7289.6,1.52234918144105553396762667593888
136,7399.52383684379712794810109365491441,7398.0,1.52383684379712794810109365491441
137,7508.72531362122278485757539457328657,7507.2,1.52531362122278485757539457328657
138,7618.72677967260966206950551931061840,7617.2,1.52677967260966206950551931061840
139,7729.52823515341018898289690830768629,7728.0,1.52823515341018898289690830768629
140,7841.12968021573652291537014233110537,7839.6,1.52968021573652291537014233110537
141,7953.53111500845596116950777855849680,7952.0,1.53111500845596116950777855849680
142,8066.73253967728298127806297411227109,8065.2,1.53253967728298127806297411227109
143,8180.73395436486805121940240343637734,8179.2,1.53395436486805121940240343637734
144,8295.53535921088334421733021595846410,8294.0,1.53535921088334421733021595846410
145,8411.13675435210548855418258091933743,8409.6,1.53675435210548855418258091933743
146,8527.53813992249547495995419198729434,8526.0,1.53813992249547495995419198729434
147,8644.73951605327583593995930500809426,8643.2,1.53951605327583593995930500809426
148,8762.74088287300521244834755077650263,8761.2,1.54088287300521244834755077650263
149,8881.54224050765040978967498676307594,8880.0,1.54224050765040978967498676307594
150,9001.14358908065604647372428167388624,8999.6,1.54358908065604647372428167388624
151,9121.54492871301189202539278968094324,9120.0,1.54492871301189202539278968094324
152,9242.74625952331798413969900223707904,9241.2,1.54625952331798413969900223707904
153,9364.74758162784761422601691529359349,9363.2,1.54758162784761422601691529359349
154,9487.54889514060826533882598803767793,9486.0,1.54889514060826533882598803767793
155,9611.15020017340058083284290034150111,9609.6,1.55020017340058083284290034150111
156,9735.55149683587544171474984268904079,9734.0,1.55149683587544171474984268904079
157,9860.75278523558922384812612998239922,9859.2,1.55278523558922384812612998239922
158,9986.75406547805730694404106039933237,9985.2,1.55406547805730694404106039933237
159,10113.5553376668058991290248917059304,10112.0,1.5553376668058991290248917059304
160,10241.1566019034222435515928891208556,10239.6,1.5566019034222435515928891208556
161,10369.5578582876032656520239658018216,10368.0,1.5578582876032656520239658018216
162,10498.7591069172027206902596479951511,10497.2,1.5591069172027206902596479951511
163,10628.7603478882768965244057204863895,10627.2,1.5603478882768965244057204863895
164,10759.5615812951289264212833795499925,10758.0,1.5615812951289264212833795499925
165,10891.1628072303517606500229549318777,10889.6,1.5628072303517606500229549318777
166,11023.5640257848698475312606542191070,11022.0,1.5640257848698475312606542191070
167,11156.7652370479795713377419854505165,11155.2,1.5652370479795713377419854505165
168,11290.7664411073884899055028143107279,11289.2,1.5664411073884899055028143107279
169,11425.5676380492534171950986037416872,11424.0,1.5676380492534171950986037416872
170,11561.1688279582173907308465036869689,11559.6,1.5688279582173907308465036869689
171,11697.5700109174455643051778017019278,11696.0,1.5700109174455643051778017019278
172,11834.7711870086600640155943216129677,11833.2,1.5711870086600640155943216129677
173,11972.7723563121738432459561746666553,11971.2,1.5723563121738432459561746666553
174,12111.5735189069235726540316242632849,12110.0,1.5735189069235726540316242632849
175,12251.1746748705015993780631117283216,12249.6,1.5746748705015993780631117283216
176,12391.5758242791870054064296257880249,12390.0,1.5758242791870054064296257880249
177,12532.7769672079757986190501518784340,12531.2,1.5769672079757986190501518784340
178,12674.7781037306102659139272066581900,12673.2,1.5781037306102659139272066581900
179,12817.5792339196075151342200991591681,12816.0,1.5792339196075151342200991591681
180,12961.1803578462872370246915369322667,12959.6,1.5803578462872370246915369322667
181,13105.5814755807987101611966587748319,13104.0,1.5814755807987101611966587748319
182,13250.7825871921470768569184746828336,13249.2,1.5825871921470768569184746828336
183,13396.7836927482189134168893004741734,13395.2,1.5836927482189134168893004741734
184,13543.5847923158071193192518368524442,13542.0,1.5847923158071193192518368524442
185,13691.1858859606351474836883152116879,13689.6,1.5858859606351474836883152116879
186,13839.5869737473805969641682315463535,13838.0,1.5869737473805969641682315463535
187,13988.7880557396981922520785626707661,13987.2,1.5880557396981922520785626707661
188,14138.7891320002421650295729340398311,14137.2,1.5891320002421650295729340398311
189,14289.5902025906880625266506633345797,14288.0,1.5902025906880625266506633345797
190,14441.1912675717539985753502666372581,14439.6,1.5912675717539985753502666372581
191,14593.5923270032213670468936636679819,14592.0,1.5923270032213670468936636679819
192,14746.7933809439550345393614129453215,14745.2,1.5933809439550345393614129453215
193,14900.7944294519230311284209313480693,14899.2,1.5944294519230311284209313480693
194,15055.5954725842157530551271197152488,15054.0,1.5954725842157530551271197152488
195,15211.1965103970646958422772870683516,15209.6,1.5965103970646958422772870683516
196,15367.5975429458607321177448296080109,15366.0,1.5975429458607321177448296080109
197,15524.7985702851719491354270670919259,15523.2,1.5985702851719491354270670919259
198,15682.7995924687610608016262847600089,15681.2,1.5995924687610608016262847600089
199,15841.6006095496024077187462604877084,15840.0,1.6006095496024077187462604877084
200,16001.2016215798985598985156561112948,15999.6,1.6016215798985598985156561112948
201,16161.6026286110965338691632403488814,16160.0,1.6026286110965338691632403488814
202,16322.8036306939036383387083107354594,16321.2,1.6036306939036383387083107354594
203,16484.8046278783029598953095122915561,16483.2,1.6046278783029598953095122915561
204,16647.6056202135685012283702716828259,16646.0,1.6056202135685012283702716828259
205,16811.2066077482799827495933661852846,16809.6,1.6066077482799827495933661852846
206,16975.6075905303373215942774017987694,16974.0,1.6075905303373215942774017987694
207,17140.8085686069747948856076365757703,17139.2,1.6085686069747948856076365757703
208,17306.8095420247749025490473366395577,17305.2,1.6095420247749025490473366395577
209,17473.6105108296819365421492188481664,17472.0,1.6105108296819365421492188481664
210,17641.2114750670152691780916091792540,17639.6,1.6114750670152691780916091792540
211,17809.6124347814823691485446419315865,17808.0,1.6124347814823691485446419315865
212,17978.8133900171915567874265350077287,17977.2,1.6133900171915567874265350077287
213,18148.8143408176645043399723833556405,18147.2,1.6143408176645043399723833556405
214,18319.6152872258484976758146182322519,18318.0,1.6152872258484976758146182322519
215,18491.2162292841284601966889825066959,18489.6,1.6162292841284601966889825066959
216,18663.6171670343387545240819581561183,18662.0,1.6171670343387545240819581561183
217,18836.8181005177747676487167579151737,18835.2,1.6181005177747676487167579151737
218,19010.8190297752042903350952243740482,19009.2,1.6190297752042903350952243740482
219,19185.6199548468786959790535664847825,19184.0,1.6199548468786959790535664847825
220,19361.2208757725439334624998288746421,19359.6,1.6208757725439334624998288746421
221,19537.6217925914513340620161080745264,19536.0,1.6217925914513340620161080745264
222,19714.8227053423682518892199544101663,19713.2,1.6227053423682518892199544101663
223,19892.8236140635885338388655405617118,19891.2,1.6236140635885338388655405617118
224,20071.6245187929428366627008668071838,20070.0,1.6245187929428366627008668071838
225,20251.2254195678087964377562316477134,20249.6,1.6254195678087964377562316477134
226,20431.6263164251210568428944727213902,20430.0,1.6263164251210568428944727213902
227,20612.8272094013811679374991128013579,20611.2,1.6272094013811679374991128013579
228,20794.8280985326673604907544752954395,20793.2,1.6280985326673604907544752954395
229,20977.6289838546442064522529974788309,20976.0,1.6289838546442064522529974788309
230,21161.2298654025721739032050939540194,21159.6,1.6298654025721739032050939540194
231,21345.6307432113170821602628173254626,21344.0,1.6307432113170821602628173254626
232,21530.8316173153594715698003992525059,21529.2,1.6316173153594715698003992525059
233,21716.8324877488038873709790204066348,21715.2,1.6324877488038873709790204066348
234,21903.6333545453880984497476246723185,21902.0,1.6333545453880984497476246723185
235,22091.2342177384922491348868589565271,22089.6,1.6342177384922491348868589565271
236,22279.6350773611479590414707790584351,22278.0,1.6350773611479590414707790584351
237,22468.8359334460473802394237737480125,22467.2,1.6359334460473802394237737480125
238,22658.8367860255522195131124200552078,22657.2,1.6367860255522195131124200552078
