Eigenstate,Energy,Kinetic Energy,Potential Energy
1,0.500000000131914934170442201720786678,0.0,0.500000000131914934170442201720786678
2,1.84623093851219014001945359199981457,1.2,0.64623093851219014001945359199981457
3,3.93633761223433164616115017577839540,3.2,0.73633761223433164616115017577839540
4,6.79966528308264479863631656163460544,6.0,0.79966528308264479863631656163460544
5,10.4480465844117452522338481376794818,9.6,0.8480465844117452522338481376794818
6,14.8870660109922150227796363044917502,14.0,0.8870660109922150227796363044917502
7,20.1197208442697415571126046047361868,19.2,0.9197208442697415571126046047361868
8,26.1477838706252980759704989520937480,25.2,0.9477838706252980759704989520937480
9,32.9723835890675765599524668180113755,32.0,0.9723835890675765599524668180113755
10,40.5942802537467489212210524865999108,39.6,0.9942802537467489212210524865999108
11,49.0140094348050190246835045105099237,48.0,1.0140094348050190246835045105099237
12,58.2319622275479392616385645306598802,57.2,1.0319622275479392616385645306598802
13,68.2484327620421030419086943691915335,67.2,1.0484327620421030419086943691915335
14,79.0636477359713642821876050791473891,78.0,1.0636477359713642821876050791473891
15,90.6777855304510572678128219225662999,89.6,1.0777855304510572678128219225662999
16,103.090989014898463766683574372102108,102.0,1.090989014898463766683574372102108
17,116.303374380494331817715035907948401,115.2,1.103374380494331817715035907948401
18,130.315037391189084985205694134502219,129.2,1.115037391189084985205694134502219
19,145.126057906806806800294421837069120,144.0,1.126057906806806800294421837069120
20,160.736503220679182074474974880285460,159.6,1.136503220679182074474974880285460
21,177.146430565727197628966664281933941,176.0,1.146430565727197628966664281933941
22,194.355889025619885066952419931960922,193.2,1.155889025619885066952419931960922
23,212.364921012710847425480465627786241,211.2,1.164921012710847425480465627786241
24,231.173563425438682871252760533890063,230.0,1.173563425438682871252760533890063
25,250.781848565122912294341155550314983,249.6,1.181848565122912294341155550314983
26,271.189804869771568014283819861934043,270.0,1.189804869771568014283819861934043
27,292.397457507043770386927053184731872,291.2,1.197457507043770386927053184731872
28,314.404828857608768274293844789977228,313.2,1.204828857608768274293844789977228
29,337.211938912347891506512082923748741,336.0,1.211938912347891506512082923748741
30,360.818805601196375887281848442248949,359.6,1.218805601196375887281848442248949
31,385.225445067276082788398788375128591,384.0,1.225445067276082788398788375128591
32,410.431871896892235789880802592417219,409.2,1.231871896892235789880802592417219
33,436.438099313657649015020804958481980,435.2,1.238099313657649015020804958481980
34,463.244139343257375541255692445410940,462.0,1.244139343257375541255692445410940
35,490.850002954027509200354368304231940,489.6,1.250002954027509200354368304231940
36,519.255700177488394201616821166560937,518.0,1.255700177488394201616821166560937
37,548.461240212168412462308918061110998,547.2,1.261240212168412462308918061110998
38,578.466631513424099785692408916268007,577.2,1.266631513424099785692408916268007
39,609.271881871464493376935612227884583,608.0,1.271881871464493376935612227884583
40,640.876998479391792403214198433896467,639.6,1.276998479391792403214198433896467
41,673.281987992753663030253727419610978,672.0,1.281987992753663030253727419610978
42,706.486856581847526765795837767733971,705.2,1.286856581847526765795837767733971
43,740.491609977810684595344253373246944,739.2,1.291609977810684595344253373246944
44,775.296253513362035379875911749367127,774.0,1.296253513362035379875911749367127
45,810.900792158923577416072469521795670,809.6,1.300792158923577416072469521795670
46,847.305230554736745776926850668828042,846.0,1.305230554736745776926850668828042
47,884.509573039495161438161210024584934,883.2,1.309573039495161438161210024584934
48,922.513823675937781831574594897505509,921.2,1.313823675937781831574594897505509
49,961.317986273781779922484290348531254,960.0,1.317986273781779922484290348531254
50,1000.92206441032035619472433436026372,999.6,1.32206441032035619472433436026372
51,1041.32606144896522096415354715612727,1040.0,1.32606144896522096415354715612727
52,1082.52998055597513922729327546959722,1081.2,1.32998055597513922729327546959722
53,1124.53382471557948013314224300816371,1123.2,1.33382471557948013314224300816371
54,1167.33759674367815203473744819215307,1166.0,1.33759674367815203473744819215307
55,1210.94129930027582858449910787135501,1209.6,1.34129930027582858449910787135501
56,1255.34493490078829676725675216512591,1254.0,1.34493490078829676725675216512591
57,1300.54850592634155879972100854015437,1299.2,1.34850592634155879972100854015437
58,1346.55201463316952263886398374411973,1345.2,1.35201463316952263886398374411973
59,1393.35546316120336189438547679107152,1392.0,1.35546316120336189438547679107152
60,1440.95885354193460143273277785387875,1439.6,1.35885354193460143273277785387875
61,1489.36218770562442073262985151084710,1488.0,1.36218770562442073262985151084710
62,1538.56546748792336604695273114526139,1537.2,1.36546748792336604695273114526139
63,1588.56869463595842053676199661008386,1587.2,1.36869463595842053676199661008386
64,1639.37187081393806906337708836958228,1638.0,1.37187081393806906337708836958228
65,1690.97499760832045948440105020118373,1689.6,1.37499760832045948440105020118373
66,1743.37807653258491496054661441092316,1742.0,1.37807653258491496054661441092316
67,1796.58110903164278948878641976374366,1795.2,1.38110903164278948878641976374366
68,1850.58409648591990271653935400748099,1849.2,1.38409648591990271653935400748099
69,1905.38704021513947742087658464696847,1904.0,1.38704021513947742087658464696847
70,1960.98994148183157476846431385740421,1959.6,1.38994148183157476846431385740421
71,2017.39280149459242376822941077150817,2016.0,1.39280149459242376822941077150817
72,2074.59562141111474308635128599177596,2073.2,1.39562141111474308635128599177596
73,2132.59840234100810038678074008173935,2131.2,1.39840234100810038678074008173935
74,2191.40114534842653551193161204934781,2190.0,1.40114534842653551193161204934781
75,2251.00385145451904271708845458351932,2249.6,1.40385145451904271708845458351932
76,2311.40652163971705761531688993416054,2310.0,1.40652163971705761531688993416054
77,2372.60915684587179209124567217970449,2371.2,1.40915684587179209124567217970449
78,2434.61175797825309464390849996338289,2433.2,1.41175797825309464390849996338289
79,2497.41432590742046679884158509241066,2496.0,1.41432590742046679884158509241066
80,2561.01686147097592810398787135823443,2559.6,1.41686147097592810398787135823443
81,2625.41936547520757288248327138100149,2624.0,1.41936547520757288248327138100149
82,2690.62183869663190046484564846828949,2689.2,1.42183869663190046484564846828949
83,2756.62428188344231188929874169088959,2755.2,1.42428188344231188929874169088959
84,2823.42669575687054176724668498598618,2822.0,1.42669575687054176724668498598618
85,2891.02908101246723473474170986558477,2889.6,1.42908101246723473474170986558477
86,2959.43143832130736004539822392218213,2958.0,1.43143832130736004539822392218213
87,3028.63376833112570038940765212183159,3027.2,1.43376833112570038940765212183159
88,3098.63607166738722764557222394984889,3097.2,1.43607166738722764557222394984889
89,3169.43834893429679477111541690148652,3168.0,1.43834893429679477111541690148652
90,3241.04060071575222981729771644312448,3239.6,1.44060071575222981729771644312448
91,3313.44282757624459660681663114572504,3312.0,1.44282757624459660681663114572504
92,3386.64503006170909831143031378939067,3385.2,1.44503006170909831143031378939067
93,3460.64720870032983791319025534777125,3459.2,1.44720870032983791319025534777125
94,3535.44936400330140660393013307788099,3534.0,1.44936400330140660393013307788099
95,3611.05149646555005002363002499804689,3609.6,1.45149646555005002363002499804689
96,3687.45360656641696041615890287962782,3686.0,1.45360656641696041615890287962782
97,3764.65569477030605843879032022227070,3763.2,1.45569477030605843879032022227070
98,3842.65776152729845548759071926822253,3841.2,1.45776152729845548759071926822253
99,3921.45980727373563392859324171840229,3920.0,1.45980727373563392859324171840229
100,4001.06183243277323628425277519841695,3999.6,1.46183243277323628425277519841695
101,4081.46383741490722512052570586755493,4080.0,1.46383741490722512052570586755493
102,4162.66582261847404980519650356037849,4161.2,1.46582261847404980519650356037849
103,4244.66778843012634839446169897853472,4243.2,1.46778843012634839446169897853472
104,4327.46973522528560564007277538012335,4326.0,1.46973522528560564007277538012335
105,4411.07166336857309503558192704663554,4409.6,1.47166336857309503558192704663554
106,4495.47357321422034205599333282989735,4494.0,1.47357321422034205599333282989735
107,4580.67546510646026766316731785534452,4579.2,1.47546510646026766316731785534452
108,4666.67733937990009190977122906234273,4665.2,1.47733937990009190977122906234273
109,4753.47919635987700888103818941410950,4752.0,1.47919635987700888103818941410950
110,4841.08103636279758179347012172854984,4839.6,1.48103636279758179347012172854984
111,4929.48285969646174120842415868876874,4928.0,1.48285969646174120842415868876874
112,5018.68466666037221988488943882781220,5017.2,1.48466666037221988488943882781220
113,5108.68645754603020225996751347081445,5107.2,1.48645754603020225996751347081445
114,5199.48823263721791778781470247068040,5198.0,1.48823263721791778781470247068040
115,5291.08999221026886691930322930618444,5289.6,1.48999221026886691930322930618444
116,5383.49173653432632017301088657254699,5382.0,1.49173653432632017301088657254699
117,5476.69346587159069903514265353192524,5475.2,1.49346587159069903514265353192524
118,5570.69518047755640639488429549612875,5569.2,1.49518047755640639488429549612875
119,5665.49688060123864050797171409155243,5664.0,1.49688060123864050797171409155243
120,5761.09856648539070063902688731219026,5759.6,1.49856648539070063902688731219026
121,5857.50023836671225426596768551505397,5856.0,1.50023836671225426596768551505397
122,5954.70189647604901681666727523597546,5953.2,1.50189647604901681666727523597546
123,6052.70354103858426271510822756403843,6051.2,1.50354103858426271510822756403843
124,6151.50517227402256883446864225435137,6150.0,1.50517227402256883446864225435137
125,6251.10679039676616188831647419847107,6249.6,1.50679039676616188831647419847107
126,6351.50839561608422609379128981339519,6350.0,1.50839561608422609379128981339519
127,6452.70998813627550686276765249763631,6451.2,1.50998813627550686276765249763631
128,6554.71156815682452368980619935917988,6553.2,1.51156815682452368980619935917988
129,6657.51313587255169333246138357488160,6656.0,1.51313587255169333246138357488160
130,6761.11469147375764599764881147545928,6759.6,1.51469147375764599764881147545928
131,6865.51623514636200184365874611757776,6864.0,1.51623514636200184365874611757776
132,6970.71776707203686013020356728605958,6969.2,1.51776707203686013020356728605958
133,7076.71928742833524156730206692188887,7075.2,1.51928742833524156730206692188887
134,7183.52079638881471313784964945515604,7182.0,1.52079638881471313784964945515604
135,7291.12229412315640656037965571733461,7289.6,1.52229412315640656037965571733461
136,7399.52378079727963787099299503467766,7398.0,1.52378079727963787099299503467766
137,7508.72525657345232229549208452056120,7507.2,1.52525657345232229549208452056120
138,7618.72672161039736497076502650357404,7617.2,1.52672161039736497076502650357404
139,7729.52817606339520596856236175304466,7728.0,1.52817606339520596856236175304466
140,7841.12962008438268262884218267231306,7839.6,1.52962008438268262884218267231306
141,7953.53105382204836765237061699470428,7952.0,1.53105382204836765237061699470428
142,8066.73247742192453332900029098646604,8065.2,1.53247742192453332900029098646604
143,8180.73389102647588362788074453252167,8179.2,1.53389102647588362788074453252167
144,8295.53529477518518869622017674336303,8294.0,1.53529477518518869622017674336303
145,8411.13668880463595212546031327048780,8409.6,1.53668880463595212546031327048780
146,8527.53807324859223347497734038484022,8526.0,1.53807324859223347497734038484022
147,8644.73944823807574034045763122627163,8643.2,1.53944823807574034045763122627163
148,8762.74081390144030529606495726121651,8761.2,1.54081390144030529606495726121651
149,8881.54217036444384951144492639274548,8880.0,1.54217036444384951144492639274548
150,9001.14351775031793668453494013581613,8999.6,1.54351775031793668453494013581613
151,9121.54485617983501320452922016691526,9120.0,1.54485617983501320452922016691526
152,9242.74618577137342484426238494263509,9241.2,1.54618577137342484426238494263509
153,9364.74750664098029893180350551638818,9363.2,1.54750664098029893180350551638818
154,9487.54881890243237590060035654217814,9486.0,1.54881890243237590060035654217814
155,9611.15012266729486845426760246706131,9609.6,1.55012266729486845426760246706131
156,9735.55141804497842621248402306484856,9734.0,1.55141804497842621248402306484856
157,9860.75270514279427688470587033308588,9859.2,1.55270514279427688470587033308588
158,9986.75398406600761578990405220106522,9985.2,1.55398406600761578990405220106522
159,10113.5552549178893073952654807628232,10112.0,1.5552549178893073952654807628232
160,10241.1565177997659652115085095532084,10239.6,1.5565177997659652115085095532084
161,10369.5577728110684685410425864580660,10368.0,1.5577728110684685410425864580660
162,10498.7590200493789755401877193866828,10497.2,1.5590200493789755401877193866828
163,10628.7602596104764874488680213836914,10627.2,1.5602596104764874488680213836914
164,10759.5614915883810186244931245760177,10758.0,1.5614915883810186244931245760177
165,10891.1627160753964209803661889082004,10889.6,1.5627160753964209803661889082004
166,11023.5639331621519133443297161288600,11022.0,1.5639331621519133443297161288600
167,11156.7651429376423629700951342293411,11155.2,1.5651429376423629700951342293411
168,11290.7663454892673618902992141130121,11289.2,1.5663454892673618902992141130121
169,11425.5675409028691431735083530075652,11424.0,1.5675409028691431735083530075652
170,11561.1687292627693768284215189294967,11559.6,1.5687292627693768284215189294967
171,11697.5699106518048855498701490796440,11696.0,1.5699106518048855498701490796440
172,11834.7710851513623181734125021675572,11833.2,1.5710851513623181734125021675572
173,11972.7722528414118162409963138018499,11971.2,1.5722528414118162409963138018499
174,12111.5734138005397095213515012576250,12110.0,1.5734138005397095213515012576250
175,12251.1745681059802744701935013164537,12249.6,1.5745681059802744701935013164537
176,12391.5757158336465853367433117797410,12390.0,1.5757158336465853367433117797410
177,12532.7768570581604911772580152415763,12531.2,1.5768570581604911772580152415763
178,12674.7779918528817479301256129632153,12673.2,1.5779918528817479301256129632153
179,12817.5791202899363319976336955985405,12816.0,1.5791202899363319976336955985405
180,12961.1802424402439662809762409271913,12959.6,1.5802424402439662809762409271913
181,13105.5813583735448813172535157653625,13104.0,1.5813583735448813172535157653625
182,13250.7824681584258392140233750771201,13249.2,1.5824681584258392140233750771201
183,13396.7835718623454434308547740379117,13395.2,1.5835718623454434308547740379117
184,13543.5846695516587586495988213214539,13542.0,1.5846695516587586495988213214539
185,13691.1857612916412625416858464726213,13689.6,1.5857612916412625416858464726213
186,13839.5868471465121504012527835959623,13838.0,1.5868471465121504012527835959623
187,13988.7879271794570164447922802131476,13987.2,1.5879271794570164447922802131476
188,14138.7890014526499272138317569172736,14137.2,1.5890014526499272138317569172736
189,14289.5900700272749108119296635446275,14288.0,1.5900700272749108119296635446275
190,14441.1911329635468776272668035561643,14439.6,1.5911329635468776272668035561643
191,14593.5921903207319917635891633863423,14592.0,1.5921903207319917635891633863423
192,14746.7932421571675095619123982425950,14745.2,1.5932421571675095619123982425950
193,14900.7942885302811035170481215679818,14899.2,1.5942885302811035170481215679818
194,15055.5953294966096849299498308610590,15054.0,1.5953294966096849299498308610590
195,15211.1963651118177432284573343367924,15209.6,1.5963651118177432284573343367924
196,15367.5973954307152156485628246655502,15366.0,1.5973954307152156485628246655502
197,15524.7984205072749016517480128696979,15523.2,1.5984205072749016517480128696979
198,15682.7994403946494362406038099243955,15681.2,1.5994403946494362406038099243955
199,15841.6004551451878350068250915115554,15840.0,1.6004551451878350068250915115554
200,16001.2014648104516248520207140561357,15999.6,1.6014648104516248520207140561357
201,16161.6024694412305713580040035563212,16160.0,1.6024694412305713580040035563212
202,16322.8034690875580161829681279442713,16321.2,1.6034690875580161829681279442713
203,16484.8044637987258351385229342702367,16483.2,1.6044637987258351385229342702367
204,16647.6054536232990285627586166324637,16646.0,1.6054536232990285627586166324637
205,16811.2064386091299539549557403430903,16809.6,1.6064386091299539549557403430903
206,16975.6074188033722138909527177961809,16974.0,1.6074188033722138909527177961809
207,17140.8083942524942050901158407474633,17139.2,1.6083942524942050901158407474633
208,17306.8093650022923428556420396025943,17305.2,1.6093650022923428556420396025943
209,17473.6103310979039666313548185197375,17472.0,1.6103310979039666313548185197375
210,17641.2112925838199381709293955834109,17639.6,1.6112925838199381709293955834109
211,17809.6122495038969396788490580658737,17808.0,1.6122495038969396788490580658737
212,17978.8132019013694821505657117616511,17977.2,1.6132019013694821505657117616511
213,18148.8141498188616282901107566067988,18147.2,1.6141498188616282901107566067988
214,18319.6150932983984449812041183990104,18318.0,1.6150932983984449812041183990104
215,18491.2160323814171845184581920771440,18489.6,1.6160323814171845184581920771440
216,18663.6169671087782085535067257538776,18662.0,1.6169671087782085535067257538776
217,18836.8178975207756587154786771152457,18835.2,1.6178975207756587154786771152457
218,19010.8188236571478828786550038877364,19009.2,1.6188236571478828786550038877364
219,19185.6197455570876203506382653459837,19184.0,1.6197455570876203506382653459837
220,19361.2206632592519584895640814411943,19359.6,1.6206632592519584895640814411943
221,19537.6215768017720586530544482393121,19536.0,1.6215768017720586530544482393121
222,19714.8224862222626686766961928980373,19713.2,1.6224862222626686766961928980373
223,19892.8233915578314154433009364213001,19891.2,1.6233915578314154433009364213001
224,20071.6242928450878926026797274639791,20070.0,1.6242928450878926026797274639791
225,20251.2251901201525459989177799091447,20249.6,1.6251901201525459989177799091447
226,20431.6260834186653603435413719222194,20430.0,1.6260834186653603435413719222194
227,20612.8269727757943557778832413775287,20611.2,1.6269727757943557778832413775287
228,20794.8278582262438961353174302796386,20793.2,1.6278582262438961353174302796386
229,20977.6287398042628160559843595051670,20976.0,1.6287398042628160559843595051670
230,21161.2296175436523716407318536059350,21159.6,1.6296175436523716407318536059350
231,21345.6304914777740164340337063967908,21344.0,1.6304914777740164340337063967908
232,21530.8313616395570131453066231141570,21529.2,1.6313616395570131453066231141570
233,21716.8322280615058760946409310374405,21715.2,1.6322280615058760946409310374405
234,21903.6330907757076605295326522361015,21902.0,1.6330907757076605295326522361015
235,22091.2339498138390919842483403983117,22089.6,1.6339498138390919842483403983117
236,22279.6348052071735453811334391508931,22278.0,1.6348052071735453811334391508931
237,22468.8356569865878774945461863293255,22467.2,1.6356569865878774945461863293255
238,22658.8365051825691145089918924458685,22657.2,1.6365051825691145089918924458685
