Eigenstate,Energy,Kinetic Energy,Potential Energy
1,0.500000000458216928151384002288730459,0.0,0.500000000458216928151384002288730459
2,1.84623094064216208221526365632624113,1.2,0.64623094064216208221526365632624113
3,3.93633761849114653966996887537807160,3.2,0.73633761849114653966996887537807160
4,6.79966529611542993927600812045027027,6.0,0.79966529611542993927600812045027027
5,10.4480466069884193225520630817395421,9.6,0.8480466069884193225520630817395421
6,14.8870660459299143185810254319021367,14.0,0.8870660459299143185810254319021367
7,20.1197208944093099320280943595896534,19.2,0.9197208944093099320280943595896534
8,26.1477839388207634656901534579793961,25.2,0.9477839388207634656901534579793961
9,32.9723836781813635724000895956444240,32.0,0.9723836781813635724000895956444240
10,40.5942803666473468269583614948282140,39.6,0.9942803666473468269583614948282140
11,49.0140095743658058679297436906886332,48.0,1.0140095743658058679297436906886332
12,58.2319623966465953472727919640233878,57.2,1.0319623966465953472727919640233878
13,68.2484329635603455201130371502157277,67.2,1.0484329635603455201130371502157277
14,79.0636479727948667690664790335267225,78.0,1.0636479727948667690664790335267225
15,90.6777858054694813428393381910887161,89.6,1.0777858054694813428393381910887161
16,103.090989331005560997772219153985028,102.0,1.090989331005560997772219153985028
17,116.303374740588091919333746766570283,115.2,1.103374740588091919333746766570283
18,130.315037798171915173391307197835066,129.2,1.115037798171915173391307197835066
19,145.126058363585732899632008237470099,144.0,1.126058363585732899632008237470099
20,160.736503730166065233968369953683646,159.6,1.136503730166065233968369953683646
21,177.146431130838962551898219310947166,176.0,1.146431130838962551898219310947166
22,194.355889649278756966082320721866468,193.2,1.155889649278756966082320721866468
23,212.364921697844595769025123184503758,211.2,1.164921697844595769025123184503758
24,231.173564174980870556212503741856875,230.0,1.173564174980870556212503741856875
25,250.781849382013149273524699597731827,249.6,1.181849382013149273524699597731827
26,271.189805756955768674371750163976334,270.0,1.189805756955768674371750163976334
27,292.397458467474414166560371037580180,291.2,1.197458467474414166560371037580180
28,314.404829894245163148841335623796548,313.2,1.204829894245163148841335623796548
29,337.211940028156440066508836325815798,336.0,1.211940028156440066508836325815798
30,360.818806799150843811657181089839178,359.6,1.218806799150843811657181089839178
31,385.225446350357869569070971090613646,384.0,1.225446350357869569070971090613646
32,410.431873268090647606287210372429834,409.2,1.231873268090647606287210372429834
33,436.438100775970173689310014199495778,435.2,1.238100775970173689310014199495778
34,463.244140899689959529764595281481852,462.0,1.244140899689959529764595281481852
35,490.850004607594836596473667462769729,489.6,1.250004607594836596473667462769729
36,519.255701931214167740547355475856335,518.0,1.255701931214167740547355475856335
37,548.461242069085636530510871251844508,547.2,1.261242069085636530510871251844508
38,578.466633476575365447752043095052551,577.2,1.266633476575365447752043095052551
39,609.271883943902265440662967106076955,608.0,1.271883943902265440662967106076955
40,640.877000664178698550447875702286200,639.6,1.277000664178698550447875702286200
41,673.281990292962785046395119734316934,672.0,1.281990292962785046395119734316934
42,706.486859000562693905763825758966351,705.2,1.286859000562693905763825758966351
43,740.491612518126769127615248528660655,739.2,1.291612518126769127615248528660655
44,775.296256178385250353695861050540707,774.0,1.296256178385250353695861050540707
45,810.900794951771776699909152933165824,809.6,1.300794951771776699909152933165824
46,847.305233478539726418860931714036183,846.0,1.305233478539726418860931714036183
47,884.509576097394968401261567360884830,883.2,1.309576097394968401261567360884830
48,922.513826871089015159425119393402449,921.2,1.313826871089015159425119393402449
49,961.317989609351904391968414568100075,960.0,1.317989609351904391968414568100075
50,1000.92206788949001351496766669216082,999.6,1.32206788949001351496766669216082
51,1041.32606507492854458220318231376378,1040.0,1.32606507492854458220318231376378
52,1082.52998433194007180269774120068899,1081.2,1.32998433194007180269774120068899
53,1124.53382864476809374510925042476612,1123.2,1.33382864476809374510925042476612
54,1167.33760082932697118700428932588854,1166.0,1.33760082932697118700428932588854
55,1210.94130354563615607446441811386292,1209.6,1.34130354563615607446441811386292
56,1255.34493930912654248730546824562769,1254.0,1.34493930912654248730546824562769
57,1300.54851050093957154003516253149117,1299.2,1.34851050093957154003516253149117
58,1346.55201937732492496236051595037805,1345.2,1.35201937732492496236051595037805
59,1393.35546807822988815576079683218119,1392.0,1.35546807822988815576079683218119
60,1440.95885863516243901493360052835047,1439.6,1.35885863516243901493360052835047
61,1489.36219297840055457541243568606430,1488.0,1.36219297840055457541243568606430
62,1538.56547294361192654354433187623047,1537.2,1.36547294361192654354433187623047
63,1588.56870027794103487600037778279621,1587.2,1.36870027794103487600037778279621
64,1639.37187664561421609608256457872300,1638.0,1.37187664561421609608256457872300
65,1690.97500363310782819413386383057762,1689.6,1.37500363310782819413386383057762
66,1743.37808275391976662031882117429204,1742.0,1.37808275391976662031882117429204
67,1796.58111545298032358674038092310765,1795.2,1.38111545298032358674038092310765
68,1850.58410311073462673507154222497434,1849.2,1.38410311073462673507154222497434
69,1905.38704704692558055518282457389175,1904.0,1.38704704692558055518282457389175
70,1960.98994852410330567200508992088693,1959.6,1.38994852410330567200508992088693
71,2017.39280875088447241417400719226357,2016.0,1.39280875088447241417400719226357
72,2074.59562888498262683564705465930150,2073.2,1.39562888498262683564705465930150
73,2132.59841003602855435512167772399160,2131.2,1.39841003602855435512167772399160
74,2191.40115326819790732956054352710473,2190.0,1.40115326819790732956054352710473
75,2251.00385960266169177706876361877984,2249.6,1.40385960266169177706876361877984
76,2311.40653001987375890764761275649127,2310.0,1.40653001987375890764761275649127
77,2372.60916546170814472197612414807739,2371.2,1.40916546170814472197612414807739
78,2434.61176683345793514023113052456325,2433.2,1.41176683345793514023113052456325
79,2497.41433500570628730300940288237268,2496.0,1.41433500570628730300940288237268
80,2561.01687081607929956081436535507132,2559.6,1.41687081607929956081436535507132
81,2625.41937507088957332714350544978310,2624.0,1.41937507088957332714350544978310
82,2690.62184854667854851970424822529080,2689.2,1.42184854667854851970424822529080
83,2756.62429199166500558054783200652280,2755.2,1.42429199166500558054783200652280
84,2823.42670612710650277424576877654432,2822.0,1.42670612710650277424576877654432
85,2891.02909164857995818711327150711975,2889.6,1.42909164857995818711327150711975
86,2959.43144922718706998514741659973254,2958.0,1.43144922718706998514741659973254
87,3028.63377951068981101760740386760240,3027.2,1.43377951068981101760740386760240
88,3098.63608312458081047548300742382058,3097.2,1.43608312458081047548300742382058
89,3169.43836067309305181199728178318244,3168.0,1.43836067309305181199728178318244
90,3241.04061274015297291562054234713305,3239.6,1.44061274015297291562054234713305
91,3313.44283989028073307408628802703450,3312.0,1.44283989028073307408628802703450
92,3386.64504266944112297042266060192958,3385.2,1.44504266944112297042266060192958
93,3460.64722160584833169702707049430950,3459.2,1.44722160584833169702707049430950
94,3535.44937721072754184513923555189115,3534.0,1.44937721072754184513923555189115
95,3611.05150997903610257311120324822801,3609.6,1.45150997903610257311120324822801
96,3687.45362039014682873482614126276255,3686.0,1.45362039014682873482614126276255
97,3764.65570890849578980758700065079846,3763.2,1.45570890849578980758700065079846
98,3842.65777598419677948457110619426390,3841.2,1.45777598419677948457110619426390
99,3921.45982205362450332484377113012255,3920.0,1.45982205362450332484377113012255
100,4001.06184753996837551358143016030784,3999.6,1.46184753996837551358143016030784
101,4081.46385285375868648108924947057924,4080.0,1.46385285375868648108924947057924
102,4162.66583839336677755455854135483246,4161.2,1.46583839336677755455854135483246
103,4244.66780454548075090298517687003227,4243.2,1.46780454548075090298517687003227
104,4327.46975168555813577105255206740919,4326.0,1.46975168555813577105255206740919
105,4411.07168017825683892411314264739202,4409.6,1.47168017825683892411314264739202
106,4495.47359037784561646226056350605473,4494.0,1.47359037784561646226056350605473
107,4580.67548262859522607962230703899258,4579.2,1.47548262859522607962230703899258
108,4666.67735726515133960555081462938539,4665.2,1.47735726515133960555081462938539
109,4753.47921461289022707096325063230474,4752.0,1.47921461289022707096325063230474
110,4841.08105498825816112305799231920487,4839.6,1.48105498825816112305799231920487
111,4929.48287869909542475054927729817749,4928.0,1.48287869909542475054927729817749
112,5018.68468604494575584804173615383325,5017.2,1.48468604494575584804173615383325
113,5108.68647731735200661248672173209357,5107.2,1.48647731735200661248672173209357
114,5199.48825280013874700702887958077765,5198.0,1.48825280013874700702887958077765
115,5291.09001276968250107916934316196613,5289.6,1.49001276968250107916934316196613
116,5383.49175749517025658865220916816973,5382.0,1.49175749517025658865220916816973
117,5476.69348723884685668760451994858725,5475.2,1.49348723884685668760451994858725
118,5570.69520225625184136448947042780213,5569.2,1.49520225625184136448947042780213
119,5665.49690279644627264985294257369516,5664.0,1.49690279644627264985294257369516
120,5761.09858910223005173975445207666294,5759.6,1.49858910223005173975445207666294
121,5857.50026141035019792567344059269979,5856.0,1.50026141035019792567344059269979
122,5954.70191995170054030670255611140632,5953.2,1.50191995170054030670255611140632
123,6052.70356495151324106706163001397474,6051.2,1.50356495151324106706163001397474
124,6151.50519662954255142231822422496994,6150.0,1.50519662954255142231822422496994
125,6251.10681520024117177160671744271523,6249.6,1.50681520024117177160671744271523
126,6351.50842087292957239600550457233984,6350.0,1.50842087292957239600550457233984
127,6452.71001385195861046552518513010813,6451.2,1.51001385195861046552518513010813
128,6554.71159433686575653015079748558098,6553.2,1.51159433686575653015079748558098
129,6657.51316252252523159732925026211809,6656.0,1.51316252252523159732925026211809
130,6761.11471859929233751661968690137906,6759.6,1.51471859929233751661968690137906
131,6865.51626275314224798830318992353896,6864.0,1.51626275314224798830318992353896
132,6970.71779516580351253575743314621402,6969.2,1.51779516580351253575743314621402
133,7076.71931601488651400001803292898875,7075.2,1.51931601488651400001803292898875
134,7183.52082547400710883922202012118067,7182.0,1.52082547400710883922202012118067
135,7291.12232371290566140749976566782659,7289.6,1.52232371290566140749976566782659
136,7399.52381089756167970058609661639856,7398.0,1.52381089756167970058609661639856
137,7508.72528719030424674772036499010872,7507.2,1.52528719030424674772036499010872
138,7618.72675274991842821765836947501151,7617.2,1.52675274991842821765836947501151
139,7729.52820773174783470096646044978788,7728.0,1.52820773174783470096646044978788
140,7841.12965228779350168506966568281804,7839.6,1.52965228779350168506966568281804
141,7953.53108656680924568129690133842676,7952.0,1.53108656680924568129690133842676
142,8066.73251071439364689018957769556211,8065.2,1.53251071439364689018957769556211
143,8180.73392487307880014145382999392330,8179.2,1.53392487307880014145382999392330
144,8295.53532918241596866560037534728255,8294.0,1.53532918241596866560037534728255
145,8411.13672377905827106686424373608673,8409.6,1.53672377905827106686424373608673
146,8527.53810879684052399856671833505012,8526.0,1.53810879684052399856671833505012
147,8644.73948436685635483944362183047232,8643.2,1.53948436685635483944362183047232
148,8762.74085061753269971176915995480361,8761.2,1.54085061753269971176915995480361
149,8881.54220767470178865438676548886331,8880.0,1.54220767470178865438676548886331
150,9001.14355566167072160403608913235032,8999.6,1.54355566167072160403608913235032
151,9121.54489469928873111212972378938129,9120.0,1.54489469928873111212972378938129
152,9242.74622490601222210942100397698562,9241.2,1.54622490601222210942100397698562
153,9364.74754639796767768194292689948734,9363.2,1.54754639796767768194292689948734
154,9487.54885928901251477155077962317566,9486.0,1.54885928901251477155077962317566
155,9611.15016369079396805158595743372578,9609.6,1.55016369079396805158595743372578
156,9735.55145971280607985899279994040109,9734.0,1.55145971280607985899279994040109
157,9860.75274746244486724491137684078589,9859.2,1.55274746244486724491137684078589
158,9986.75402704506173797775305372522216,9985.2,1.55402704506173797775305372522216
159,10113.5552985640152191879760697195927,10112.0,1.5552985640152191879760697195927
160,10241.1565621207210650090044209986019,10239.6,1.5565621207210650090044209986019
161,10369.5578178147008017278262932377539,10368.0,1.5578178147008017278262932377539
162,10498.7590657436287699243476206115453,10497.2,1.5590657436287699243476206115453
163,10628.7603060033777184713239234905066,10627.2,1.5603060033777184713239234905066
164,10759.5615386880630050505835731533593,10758.0,1.5615386880630050505835731533593
165,10891.1627638900854518054795579012341,10889.6,1.5627638900854518054795579012341
166,11023.5639817001729066654975639485607,11022.0,1.5639817001729066654975639485607
167,11156.7651922074205575963355272278022,11155.2,1.5651922074205575963355272278022
168,11290.7663954993300424860342706229231,11289.2,1.5663954993300424860342706229231
169,11425.5675916618473997516018311422154,11424.0,1.5675916618473997516018311422154
170,11561.1687807793998994323354943037901,11559.6,1.5687807793998994323354943037901
171,11697.5699629349317949881257173861765,11696.0,1.5699629349317949881257173861765
172,11834.7711382099390336940009735127650,11833.2,1.5711382099390336940009735127650
173,11972.7723066845029610586507750072061,11971.2,1.5723066845029610586507750072061
174,12111.5734684373230551366777683264361,12110.0,1.5734684373230551366777683264361
175,12251.1746235457487247466136141899897,12249.6,1.5746235457487247466136141899897
176,12391.5757720858102013290436419736645,12390.0,1.5757720858102013290436419736645
177,12532.7769141322485577343058327382180,12531.2,1.5769141322485577343058327382180
178,12674.7780497585448831240474055093780,12673.2,1.5780497585448831240474055093780
179,12817.5791790369486404624712553424523,12816.0,1.5791790369486404624712553424523
180,12961.1803020385052375756007823460270,12959.6,1.5803020385052375756007823460270
181,13105.5814188330828344601481572190713,13104.0,1.5814188330828344601481572190713
182,13250.7825294893984145714937911996183,13249.2,1.5825294893984145714937911996183
183,13396.7836340750431431753338226832193,13395.2,1.5836340750431431753338226832193
184,13543.5847326565070370410194794889824,13542.0,1.5847326565070370410194794889824
185,13691.1858252992029673224517881522796,13689.6,1.5858252992029673224517881522796
186,13839.5869120674900166341907739603487,13838.0,1.5869120674900166341907739603487
187,13988.7879930246962141636692762020398,13987.2,1.5879930246962141636692762020398
188,14138.7890682331406642976262283655964,14137.2,1.5890682331406642976262283655964
189,14289.5901377541550925371013565866017,14288.0,1.5901377541550925371013565866017
190,14441.1912016481048243968429169364993,14439.6,1.5912016481048243968429169364993
191,14593.5922599744092165580300294042448,14592.0,1.5922599744092165580300294042448
192,14746.7933127915615567044973734285162,14745.2,1.5933127915615567044973734285162
193,14900.7943601571484503960161282338717,14899.2,1.5943601571484503960161282338717
194,15055.5954021278687083708799170076473,15054.0,1.5954021278687083708799170076473
195,15211.1964387595517522634714273528195,15209.6,1.5964387595517522634714273528195
196,15367.5974701071755524839468191140116,15366.0,1.5974701071755524839468191140116
197,15524.7984962248841126926112384697489,15523.2,1.5984962248841126926112384697489
198,15682.7995171660045150902744529692753,15681.2,1.5995171660045150902744529692753
199,15841.6005329830635394199416413494232,15840.0,1.6005329830635394199416413494232
200,16001.2015437278038696837879726165786,15999.6,1.6015437278038696837879726165786
201,16161.6025494511998996179299469351580,16160.0,1.6025494511998996179299469351580
202,16322.8035502034731503697134040915420,16321.2,1.6035502034731503697134040915420
203,16484.8045460341073111033327784757946,16483.2,1.6045460341073111033327784757946
204,16647.6055369918629142224663496583681,16646.0,1.6055369918629142224663496583681
205,16811.2065231247916552518111279473637,16809.6,1.6065231247916552518111279473637
206,16975.6075044802503704757019983839094,16974.0,1.6075044802503704757019983839094
207,17140.8084811049146782869400780794163,17139.2,1.6084811049146782869400780794163
208,17306.8094530447922985528618456840217,17305.2,1.6094530447922985528618456840217
209,17473.6104203452360558304266773357341,17472.0,1.6104203452360558304266773357341
210,17641.2113830509565780182521984184161,17639.6,1.6113830509565780182521984184161
211,17809.6123412060346979005013262005851,17808.0,1.6123412060346979005013262005851
212,17978.8132948539335679093911615203260,17977.2,1.6132948539335679093911615203260
213,18148.8142440375104925877911931961881,18147.2,1.6142440375104925877911931961881
214,18319.6151887990284938352071838699194,18318.0,1.6151887990284938352071838699194
215,18491.2161291801676082552724063623494,18489.6,1.6161291801676082552724063623494
216,18663.6170652220359306755220704932958,18662.0,1.6170652220359306755220704932958
217,18836.8179969651804079194597002981146,18835.2,1.6179969651804079194597002981146
218,19010.8189244495973919291811326379343,19009.2,1.6189244495973919291811326379343
219,19185.6198477147429556423910398807982,19184.0,1.6198477147429556423910398807982
220,19361.2207667995429842681438524385880,19359.6,1.6207667995429842681438524385880
221,19537.6216817424030400053481672170179,19536.0,1.6216817424030400053481672170179
222,19714.8225925812180175489577373276835,19713.2,1.6225925812180175489577373276835
223,19892.8234993533815840983402150356155,19891.2,1.6234993533815840983402150356155
224,20071.6244020957954190871057713123638,20070.0,1.6244020957954190871057713123638
225,20251.2253008448782563576233422713690,20249.6,1.6253008448782563576233422713690
226,20431.6261956365747324917937243049682,20430.0,1.6261956365747324917937243049682
227,20612.8270865063640501218958905514212,20611.2,1.6270865063640501218958905514212
228,20794.8279734892684582203069752290417,20793.2,1.6279734892684582203069752290417
229,20977.6288566198615567168841665578976,20976.0,1.6288566198615567168841665578976
230,21161.2297359322764303353014850963066,21159.6,1.6297359322764303353014850963066
231,21345.6306114602136136514729345435564,21344.0,1.6306114602136136514729345435564
232,21530.8314832369488980061178787098974,21529.2,1.6314832369488980061178787098974
233,21716.8323512953409754898039380550474,21715.2,1.6323512953409754898039380550474
234,21903.6332156678389363895535494557958,21902.0,1.6332156678389363895535494557958
235,22091.2340763864896135218415667467616,22089.6,1.6340763864896135218415667467616
236,22279.6349334829447834156978088123852,22278.0,1.6349334829447834156978088123852
237,22468.8357869884682282427914600749423,22467.2,1.6357869884682282427914600749423
238,22658.8366369339426605146579173568269,22657.2,1.6366369339426605146579173568269
