Eigenstate,Energy,Kinetic Energy,Potential Energy
1,0.500000000082223952478408408693757626,0.0,0.500000000082223952478408408693757626
2,1.84623093818783077035901272082576992,1.2,0.64623093818783077035901272082576992
3,3.93633761128154059939987617314018712,3.2,0.73633761128154059939987617314018712
4,6.79966528109805682242603035763115638,6.0,0.79966528109805682242603035763115638
5,10.4480465809739598748701953558381419,9.6,0.8480465809739598748701953558381419
6,14.8870660056724105536984635391087159,14.0,0.8870660056724105536984635391087159
7,20.1197208366355788659933744736366605,19.2,0.9197208366355788659933744736366605
8,26.1477838602425421740734215811224422,25.2,0.9477838602425421740734215811224422
9,32.9723835755008447037720843803814869,32.0,0.9723835755008447037720843803814869
10,40.5942802365598848387615188663595014,39.6,0.9942802365598848387615188663595014
11,49.0140094135612911292823372224531834,48.0,1.0140094135612911292823372224531834
12,58.2319622018101491644654692239092251,57.2,1.0319622018101491644654692239092251
13,68.2484327313726452226068077904965130,67.2,1.0484327313726452226068077904965130
14,79.0636476999322576427276288238355208,78.0,1.0636476999322576427276288238355208
15,90.6777854886039597156864039707350963,89.6,1.0777854886039597156864039707350963
16,103.090988966804676129510361263168376,102.0,1.090988966804676129510361263168376
17,116.303374325714794809503310071156253,115.2,1.103374325714794809503310071156253
18,130.315037329284371504207173418811958,129.2,1.115037329284371504207173418811958
19,145.126057837337111002235955851001949,144.0,1.126057837337111002235955851001949
20,160.736503143204306162186508267395767,159.6,1.136503143204306162186508267395767
21,177.146430479806536987575839662912024,176.0,1.146430479806536987575839662912024
22,194.355888930812412174947497037466998,193.2,1.155888930812412174947497037466998
23,212.364920908575094841930815322839255,211.2,1.164920908575094841930815322839255
24,231.173563311532725512553670716567235,230.0,1.173563311532725512553670716567235
25,250.781848441004349154544898013302072,249.6,1.181848441004349154544898013302072
26,271.189804734997503441863716559653901,270.0,1.189804734997503441863716559653901
27,292.397457361170795001691209585878071,291.2,1.197457361170795001691209585878071
28,314.404828700192939587256397404895523,313.2,1.204828700192939587256397404895523
29,337.211938742944714290307321166740382,336.0,1.211938742944714290307321166740382
30,360.818805419360782333477782277858440,359.6,1.218805419360782333477782277858440
31,385.225444872562412479682630582380379,384.0,1.225444872562412479682630582380379
32,410.431871688854215508757837914378775,409.2,1.231871688854215508757837914378775
33,436.438099091848372405836857601632322,435.2,1.238099091848372405836857601632322
34,463.244139107229282638630216530298693,462.0,1.244139107229282638630216530298693
35,490.850002703332365834215335865411399,489.6,1.250002703332365834215335865411399
36,519.255699911677271286756592748872862,518.0,1.255699911677271286756592748872862
37,548.461239930791665178582999958555867,547.2,1.261239930791665178582999958555867
38,578.466631216031346653550202077043439,577.2,1.266631216031346653550202077043439
39,609.271881557604595231821494190852532,608.0,1.271881557604595231821494190852532
40,640.876998148612831271446381149294639,639.6,1.276998148612831271446381149294639
41,673.281987644602920908230293237530140,672.0,1.281987644602920908230293237530140
42,706.486856215871464303755801555312221,705.2,1.286856215871464303755801555312221
43,740.491609593554919686398701305337839,739.2,1.291609593554919686398701305337839
44,775.296253110371321654598539216201492,774.0,1.296253110371321654598539216201492
45,810.900791736741782642583098983054226,809.6,1.300791736741782642583098983054226
46,847.305230112906830166102520257405878,846.0,1.305230112906830166102520257405878
47,884.509572577559155853356677479600387,883.2,1.309572577559155853356677479600387
48,922.513823193436765902018897514501573,921.2,1.313823193436765902018897514501573
49,961.317985770255860059335896840585767,960.0,1.317985770255860059335896840585767
50,1000.92206388530864350860886622506611,999.6,1.32206388530864350860886622506611
51,1041.32606090200580908287044436835378,1040.0,1.32606090200580908287044436835378
52,1082.52997998660508201225795580689337,1081.2,1.32997998660508201225795580689337
53,1124.53382412333476929302498156260392,1123.2,1.33382412333476929302498156260392
54,1167.33759612809369463466708132067689,1166.0,1.33759612809369463466708132067689
55,1210.94129866088542444911686427408517,1209.6,1.34129866088542444911686427408517
56,1255.34493423712461577583128042853402,1254.0,1.34493423712461577583128042853402
57,1300.54850523793611807146877261892276,1299.2,1.34850523793611807146877261892276
58,1346.55201391955266360655814908053509,1345.2,1.35201391955266360655814908053509
59,1393.35546242190422726428094534366331,1392.0,1.35546242190422726428094534366331
60,1440.95885277648111202878355439774906,1439.6,1.35885277648111202878355439774906
61,1489.36218691354325222292735099810563,1488.0,1.36218691354325222292735099810563
62,1538.56546666873992555026904123941593,1537.2,1.36546666873992555026904123941593
63,1588.56869378919682310704032475407103,1587.2,1.36869378919682310704032475407103
64,1639.37186993912111404997196393850761,1638.0,1.37186993912111404997196393850761
65,1690.97499670496960676583300158418352,1689.6,1.37499670496960676583300158418352
66,1743.37807560022026104949988946980256,1742.0,1.37807560022026104949988946980256
67,1796.58110806978304350604347206069512,1795.2,1.38110806978304350604347206069512
68,1850.58409549408236223151197131732897,1849.2,1.38409549408236223151197131732897
69,1905.38703919284000415636052684263141,1904.0,1.38703919284000415636052684263141
70,1960.98994042858457016721246205878073,1959.6,1.38994042858457016721246205878073
71,2017.39280040991080441890640989648400,2016.0,1.39280040991080441890640989648400
72,2074.59562029450991600640197684759309,2073.2,1.39562029450991600640197684759309
73,2132.59840119198993815971347803760542,2131.2,1.39840119198993815971347803760542
74,2191.40114416650335127648729812000769,2190.0,1.40114416650335127648729812000769
75,2251.00385023919756500573551044745455,2249.6,1.40385023919756500573551044745455
76,2311.40652039050240503948227569546398,2310.0,1.40652039050240503948227569546398
77,2372.60915556226744787066157200247436,2371.2,1.40915556226744787066157200247436
78,2434.61175665976088097742404349770029,2433.2,1.41175665976088097742404349770029
79,2497.41432455354051907401837147248237,2496.0,1.41432455354051907401837147248237
80,2561.01686008120666894276770672101017,2559.6,1.41686008120666894276770672101017
81,2625.41936404904568602018533398021787,2624.0,1.41936404904568602018533398021787
82,2690.62183723357230445971967910442202,2689.2,1.42183723357230445971967910442202
83,2756.62428038297813365982907435132928,2755.2,1.42428038297813365982907435132928
84,2823.42669421849308995437062209088328,2822.0,1.42669421849308995437062209088328
85,2891.02907943566597288611360799648715,2889.6,1.42907943566597288611360799648715
86,2959.43143670556987961879838801838741,2958.0,1.43143670556987961879838801838741
87,3028.63376667593769357236219763114811,3027.2,1.43376667593769357236219763114811
88,3098.63606997223245998821712659887074,3097.2,1.43606997223245998821712659887074
89,3169.43834719865707762930426096623378,3168.0,1.43834719865707762930426096623378
90,3241.04059893910739260291861691172871,3239.6,1.44059893910739260291861691172871
91,3313.44282575807245884224908315727945,3312.0,1.44282575807245884224908315727945
92,3386.64502820148544148503784322559113,3385.2,1.44502820148544148503784322559113
93,3460.64720679752837713270910979461827,3459.2,1.44720679752837713270910979461827
94,3535.44936205739376204457809914270428,3534.0,1.44936205739376204457809914270428
95,3611.05149447600571816772263934686943,3609.6,1.45149447600571816772263934686943
96,3687.45360453270328508098342042797646,3686.0,1.45360453270328508098342042797646
97,3764.65569269188820158944940644241026,3763.2,1.45569269188820158944940644241026
98,3842.65775940363936783149001907269518,3841.2,1.45775940363936783149001907269518
99,3921.45980510429602528820719506404410,3920.0,1.45980510429602528820719506404410
100,4001.06183021701154574476390116667298,3999.6,1.46183021701154574476390116667298
101,4081.46383515227959094889180251638390,4080.0,1.46383515227959094889180251638390
102,4162.66582030843427913715945730971575,4161.2,1.46582030843427913715945730971575
103,4244.66778607212588668596973370513048,4243.2,1.46778607212588668596973370513048
104,4327.46973281877350587954533625299770,4326.0,1.46973281877350587954533625299770
105,4411.07166091299598671340364992447812,4409.6,1.47166091299598671340364992447812
106,4495.47357070902239988757941985576599,4494.0,1.47357070902239988757941985576599
107,4580.67546255108318006189799586722904,4579.2,1.47546255108318006189799586722904
108,4666.67733677378302920604784335486776,4665.2,1.47733677378302920604784335486776
109,4753.47919370245659128366706955800412,4752.0,1.47919370245659128366706955800412
110,4841.08103365350784708953353893552884,4839.6,1.48103365350784708953353893552884
111,4929.48285693473411219775008439524049,4928.0,1.48285693473411219775008439524049
112,5018.68466384563547154518299782287496,5017.2,1.48466384563547154518299782287496
113,5108.68645467771042863861781267717058,5107.2,1.48645467771042863861781267717058
114,5199.48822971473849861634064881494776,5198.0,1.48822971473849861634064881494776
115,5291.08998923305043394635049644671164,5289.6,1.48998923305043394635049644671164
116,5383.49173350178672321176035682630285,5382.0,1.49173350178672321176035682630285
117,5476.69346278314497172093808321054815,5475.2,1.49346278314497172093808321054815
118,5570.69517733261673164883264733453265,5569.2,1.49517733261673164883264733453265
119,5665.49687739921431570221534087270882,5664.0,1.49687739921431570221534087270882
120,5761.09856322568810245933096669350670,5759.6,1.49856322568810245933096669350670
121,5857.50023504873480326720951990256774,5856.0,1.50023504873480326720951990256774
122,5954.70189309919714166675657960962389,5953.2,1.50189309919714166675657960962389
123,6052.70353760225536412280908081574498,6051.2,1.50353760225536412280908081574498
124,6151.50516877761098315653398792688136,6150.0,1.50516877761098315653398792688136
125,6251.10678683966312441128548020913980,6249.6,1.50678683966312441128548020913980
126,6351.50839199767783398573808697044080,6350.0,1.50839199767783398573808697044080
127,6452.70998445595068179022736332577996,6451.2,1.50998445595068179022736332577996
128,6554.71156441396297409504014172441725,6553.2,1.51156441396297409504014172441725
129,6657.51313206653187636615843313795458,6656.0,1.51313206653187636615843313795458
130,6761.11468760395472910209390215960741,6759.6,1.51468760395472910209390215960741
131,6865.51623121214782398133203738107898,6864.0,1.51623121214782398133203738107898
132,6970.71776307277989265270525864316987,6969.2,1.51776307277989265270525864316987
133,7076.71928336340054871942884743008819,7075.2,1.51928336340054871942884743008819
134,7183.52079225756391219157716610270428,7182.0,1.52079225756391219157716610270428
135,7291.12228992494762757343359423287102,7289.6,1.52228992494762757343359423287102
136,7399.52377653146748306461835436696507,7398.0,1.52377653146748306461835436696507
137,7508.72525223938782504595503958414316,7507.2,1.52525223938782504595503958414316
138,7618.72671720742794840904607274588215,7617.2,1.52671720742794840904607274588215
139,7729.52817159086464118262233742924601,7728.0,1.52817159086464118262233742924601
140,7841.12961554163104646276385251928848,7839.6,1.52961554163104646276385251928848
141,7953.53104920841200009659876540542220,7952.0,1.53104920841200009659876540542220
142,8066.73247273673599449582158563623529,8065.2,1.53247273673599449582158563623529
143,8180.73388626906391030620189292786935,8179.2,1.53388626906391030620189292786935
144,8295.53528994487465047961872376731055,8294.0,1.53528994487465047961872376731055
145,8411.13668390074780710739645337279739,8409.6,1.53668390074780710739645337279739
146,8527.53806827044348350496781929861542,8526.0,1.53806827044348350496781929861542
147,8644.73944318497938583492401935963325,8643.2,1.53944318497938583492401935963325
148,8762.74080877270529959747814620507310,8761.2,1.54080877270529959747814620507310
149,8881.54216515937505278929553341595304,8880.0,1.54216515937505278929553341595304
150,9001.14351246821606937156602976149319,8999.6,1.54351246821606937156602976149319
151,9121.54485081999660896157166389069134,9120.0,1.54485081999660896157166389069134
152,9242.74618033309078304691711005157764,9241.2,1.54618033309078304691711005157764
153,9364.74750112354143667211525736534382,9363.2,1.54750112354143667211525736534382
154,9487.54881330512097949676775215211418,9486.0,1.54881330512097949676775215211418
155,9611.15011698939024446133151408963733,9609.6,1.55011698939024446133151408963733
156,9735.55141228575545192683251955656415,9734.0,1.55141228575545192683251955656415
157,9860.75269930152335033512746919128172,9859.2,1.55269930152335033512746919128172
158,9986.75397814195460520781350270045780,9985.2,1.55397814195460520781350270045780
159,10113.5552489103155001566168756693782,10112.0,1.5552489103155001566168756693782
160,10241.1565117079280162427974993514075,10239.6,1.5565117079280162427974993514075
161,10369.5577666342183481816868554095759,10368.0,1.5577666342183481816868554095759
162,10498.7590137867639168534583950138320,10497.2,1.5590137867639168534583950138320
163,10628.7602532613389329734268051590123,10627.2,1.5602532613389329734268051590123
164,10759.5614851519585665584702309585282,10758.0,1.5614851519585665584702309585282
165,10891.1627095509217707897909876393326,10889.6,1.5627095509217707897909876393326
166,11023.5639265488528107876024850964701,11022.0,1.5639265488528107876024850964701
167,11156.7651362347415445300612854873226,11155.2,1.5651362347415445300612854873226
168,11290.7663386959824986053578439381654,11289.2,1.5663386959824986053578439381654
169,11425.5675340184127838590560203295605,11424.0,1.5675340184127838590560203295605
170,11561.1687222863488906797986101235082,11559.6,1.5687222863488906797986101235082
171,11697.5699035826224041178399148614876,11696.0,1.5699035826224041178399148614876
172,11834.7710779886146767030653393461313,11833.2,1.5710779886146767030653393461313
173,11972.7722455842904943648303732304661,11971.2,1.5722455842904943648303732304661
174,12111.5734064482307712971354963610014,12110.0,1.5734064482307712971354963610014
175,12251.1745606576643077540728431721879,12249.6,1.5745606576643077540728431721879
176,12391.5757082884986404819008343770757,12390.0,1.5757082884986404819008343770757
177,12532.7768494153500190482878353872430,12531.2,1.5768494153500190482878353872430
178,12674.7779841115725372231253963190600,12673.2,1.5779841115725372231253963190600
179,12817.5791124492864458558616093867333,12816.0,1.5791124492864458558616093867333
180,12961.1802344994056781957588899067922,12959.6,1.5802344994056781957588899067922
181,13105.5813503316646103036676196604784,13104.0,1.5813503316646103036676196604784
182,13250.7824600146440842507074324336006,13249.2,1.5824600146440842507074324336006
183,13396.7835636157967171531370433580364,13395.2,1.5835636157967171531370433580364
184,13543.5846612014715202849550848939711,13542.0,1.5846612014715202849550848939711
185,13691.1857528369378500763644833026426,13689.6,1.5857528369378500763644833026426
186,13839.5868385864087119667253493695102,13838.0,1.5868385864087119667253493695102
187,13988.7879185130634409125047557415951,13987.2,1.5879185130634409125047557415951
188,14138.7889926790697739865456529243272,14137.2,1.5889926790697739865456529243272
189,14289.5900611456053387997522787807212,14288.0,1.5900611456053387997522787807212
190,14441.1911239728785733962768328952112,14439.6,1.5911239728785733962768328952112
191,14593.5921812201490968447667098052116,14592.0,1.5921812201490968447667098052116
192,14746.7932329457475469078818274298581,14745.2,1.5932329457475469078818274298581
193,14900.7942792070949030939379089467192,14899.2,1.5942792070949030939379089467192
194,15055.5953200607213084314645338713283,15054.0,1.5953200607213084314645338713283
195,15211.1963555622844078990451375867745,15209.6,1.5963555622844078990451375867745
196,15367.5973857665872172023454388286441,15366.0,1.5973857665872172023454388286441
197,15524.7984107275955362736590054493941,15523.2,1.5984107275955362736590054493941
198,15682.7994304984549216559570172707772,15681.2,1.5994304984549216559570172707772
199,15841.6004451315072306053048126511188,15840.0,1.6004451315072306053048126511188
200,16001.2014546783067508518528144398641,15999.6,1.6014546783067508518528144398641
201,16161.6024591896359269958286696341231,16160.0,1.6024591896359269958286696341231
202,16322.8034587155206969146920415247347,16321.2,1.6034587155206969146920415247347
203,16484.8044533052454488361814749363140,16483.2,1.6044533052454488361814749363140
204,16647.6054430073676106921671385991704,16646.0,1.6054430073676106921671385991704
205,16811.2064278697318817186707844033602,16809.6,1.6064278697318817186707844033602
206,16975.6074079394841193208028618476164,16974.0,1.6074079394841193208028618476164
207,17140.8083832630848870732943072458285,17139.2,1.6083832630848870732943072458285
208,17306.8093538863226780780808184591147,17305.2,1.6093538863226780780808184591147
209,17473.6103198543268194218222251894596,17472.0,1.6103198543268194218222251894596
210,17641.2112812115800692290100224435006,17639.6,1.6112812115800692290100224435006
211,17809.6122380019309136696755935326936,17808.0,1.6122380019309136696755935326936
212,17978.8131902686055741488785909606444,17977.2,1.6131902686055741488785909606444
213,18148.8141380542197290559203119769560,18147.2,1.6141380542197290559203119769560
214,18319.6150814007899650490238585381104,18318.0,1.6150814007899650490238585381104
215,18491.2160203497449570817659972842399,18489.6,1.6160203497449570817659972842399
216,18663.6169549419363911257709177956065,18662.0,1.6169549419363911257709177956065
217,18836.8178852176496335487624347326592,18835.2,1.6178852176496335487624347326592
218,19010.8188112166141561204797042108578,19009.2,1.6188112166141561204797042108578
219,19185.6197329780137199194491226749435,19184.0,1.6197329780137199194491226749435
220,19361.2206505404963306487959418820161,19359.6,1.6206505404963306487959418820161
221,19537.6215639421839632634442836835648,19536.0,1.6215639421839632634442836835648
222,19714.8224732206820731061288420172540,19713.2,1.6224732206820731061288420172540
223,19892.8233784130888871131096900919383,19891.2,1.6233784130888871131096900919383
224,20071.6242795560044901489488682731668,20070.0,1.6242795560044901489488682731668
225,20251.2251766855397090269522371886456,20249.6,1.6251766855397090269522371886456
226,20431.6260698373247977532812446370017,20430.0,1.6260698373247977532812446370017
227,20612.8269590465179326376426254595425,20611.2,1.6269590465179326376426254595425
228,20794.8278443478135190808222484854758,20793.2,1.6278443478135190808222484854758
229,20977.6287257754503171912704716690480,20976.0,1.6287257754503171912704716690480
230,21161.2296033632193909170425750342834,21159.6,1.6296033632193909170425750342834
231,21345.6304771444718824824255351529216,21344.0,1.6304771444718824824255351529216
232,21530.8313471521266225382318615802247,21529.2,1.6313471521266225382318615802247
233,21716.8322134186775710113278087657621,21715.2,1.6322134186775710113278087657621
234,21903.6330759762011047995252016597637,21902.0,1.6330759762011047995252016597637
235,22091.2339348563631454830008451751248,22089.6,1.6339348563631454830008451751248
236,22279.6347900904261367510771661955731,22278.0,1.6347900904261367510771661955731
237,22468.8356417092558751645585544891319,22467.2,1.6356417092558751645585544891319
238,22658.8364897433281959847010555202465,22657.2,1.6364897433281959847010555202465
