Eigenstate,Energy,Kinetic Energy,Potential Energy
1,0.500000000150925713269184584585929957,0.0,0.500000000150925713269184584585929957
2,1.84623093863628389820530678229882391,1.2,0.64623093863628389820530678229882391
3,3.93633761259885297440553341374516149,3.2,0.73633761259885297440553341374516149
4,6.79966528384191801564811121872836072,6.0,0.79966528384191801564811121872836072
5,10.4480465857269991709253621208777759,9.6,0.8480465857269991709253621208777759
6,14.8870660130275238226418195870959533,14.0,0.8870660130275238226418195870959533
7,20.1197208471905328557374545792532137,19.2,0.9197208471905328557374545792532137
8,26.1477838745977341263626334992074245,25.2,0.9477838745977341263626334992074245
9,32.9723835942582696255403292664482263,32.0,0.9723835942582696255403292664482263
10,40.5942802603226196915860894287477705,39.6,0.9942802603226196915860894287477705
11,49.0140094429332223730083910006609938,48.0,1.0140094429332223730083910006609938
12,58.2319622373958243231747284386079555,57.2,1.0319622373958243231747284386079555
13,68.2484327737771919816910028973928591,67.2,1.0484327737771919816910028973928591
14,79.0636477497613418232631303348591618,78.0,1.0636477497613418232631303348591618
15,90.6777855464637667159777636136638099,89.6,1.0777855464637667159777636136638099
16,103.090989033301907120970147291919849,102.0,1.090989033301907120970147291919849
17,116.303374401456672543635900296724591,115.2,1.103374401456672543635900296724591
18,130.315037414878652578798917691010163,129.2,1.115037414878652578798917691010163
19,145.126057933392102590913700963204297,144.0,1.126057933392102590913700963204297
20,160.736503250328885906620739258377861,159.6,1.136503250328885906620739258377861
21,177.146430598610175182763976240504560,176.0,1.146430598610175182763976240504560
22,194.355889061905195652967601411036503,193.2,1.155889061905195652967601411036503
23,212.364921052567752139311045785581007,211.2,1.164921052567752139311045785581007
24,231.173563469036653026582566368143243,230.0,1.173563469036653026582566368143243
25,250.781848612631638075843495350664772,249.6,1.181848612631638075843495350664772
26,271.189804921360967307526102967600637,270.0,1.189804921360967307526102967600637
27,292.397457562883997753577002220764626,291.2,1.197457562883997753577002220764626
28,314.404828917870224048929028449097612,313.2,1.204828917870224048929028449097612
29,337.211938977201230997160590219954245,336.0,1.211938977201230997160590219954245
30,360.818805670812518666120165949017479,359.6,1.218805670812518666120165949017479
31,385.225445141826222062242898383391271,384.0,1.225445141826222062242898383391271
32,410.431871976547847842531080362134619,409.2,1.231871976547847842531080362134619
33,436.438099398590502715372117878142879,435.2,1.238099398590502715372117878142879
34,463.244139433639541912511103854467867,462.0,1.244139433639541912511103854467867
35,490.850003050031371046791379011048896,489.6,1.250003050031371046791379011048896
36,519.255700279286655790227018012018423,518.0,1.255700279286655790227018012018423
37,548.461240319934109257322318446255103,547.2,1.261240319934109257322318446255103
38,578.466631627330608234548802418789690,577.2,1.266631627330608234548802418789690
39,609.271881991685540746708520360696810,608.0,1.271881991685540746708520360696810
40,640.876998606101466666852141004122695,639.6,1.276998606101466666852141004122695
41,673.281988126126422802296779203199485,672.0,1.281988126126422802296779203199485
42,706.486856722058211287466438415952061,705.2,1.286856722058211287466438415952061
43,740.491610125034523769110763142497640,739.2,1.291610125034523769110763142497640
44,775.296253667774659853753747037865729,774.0,1.296253667774659853753747037865729
45,810.900792320701028718067242629004241,809.6,1.300792320701028718067242629004241
46,847.305230724055486500142006921690532,846.0,1.305230724055486500142006921690532
47,884.509573216532085477193075291124526,883.2,1.309573216532085477193075291124526
48,922.513823860870224670903894392697222,921.2,1.313823860870224670903894392697222
49,961.317986466787528977647615110204391,960.0,1.317986466787528977647615110204391
50,1000.92206461157766120711374863214268,999.6,1.32206461157766120711374863214268
51,1041.32606165865280445034927246764277,1040.0,1.32606165865280445034927246764277
52,1082.52998077427220698388457348241747,1081.2,1.32998077427220698388457348241747
53,1124.53382494266573179803627045208104,1123.2,1.33382494266573179803627045208104
54,1167.33759697973379170599596043999683,1166.0,1.33759697973379170599596043999683
55,1210.94129954548157549777917269642827,1209.6,1.34129954548157549777917269642827
56,1255.34493515532539603296478642081239,1254.0,1.34493515532539603296478642081239
57,1300.54850619039179220101988440020703,1299.2,1.34850619039179220101988440020703
58,1346.55201490691521949170121833457116,1345.2,1.35201490691521949170121833457116
59,1393.35546344482740997073690652178863,1392.0,1.35546344482740997073690652178863
60,1440.95885383562045794828095755088499,1439.6,1.35885383562045794828095755088499
61,1489.36218800955612340011997880115329,1488.0,1.36218800955612340011997880115329
62,1538.56546780228554419649140176221002,1537.2,1.36546780228554419649140176221002
63,1588.56869496093630630434569814155704,1587.2,1.36869496093630630434569814155704
64,1639.37187114971750864895819791315616,1638.0,1.37187114971750864895819791315616
65,1690.97499795508792448081953166321923,1689.6,1.37499795508792448081953166321923
66,1743.37807689052751375467529403125600,1742.0,1.37807689052751375467529403125600
67,1796.58110940094827873625729752507065,1795.2,1.38110940094827873625729752507065
68,1850.58409686677669889143758405428635,1849.2,1.38409686677669889143758405428635
69,1905.38704060773666844180779791045606,1904.0,1.38704060773666844180779791045606
70,1960.98994188635893170241974094451530,1959.6,1.38994188635893170241974094451530
71,2017.39280191124041261369217092256830,2016.0,1.39280191124041261369217092256830
72,2074.59562184007453663710587011879717,2073.2,1.39562184007453663710587011879717
73,2132.59840278247159017790658805837377,2131.2,1.39840278247159017790658805837377
74,2191.40114580258634384948049653061164,2190.0,1.40114580258634384948049653061164
75,2251.00385192156853479296447283459189,2249.6,1.40385192156853479296447283459189
76,2311.40652211985035370889666208953711,2310.0,1.40652211985035370889666208953711
77,2372.60915733928377985929589983753998,2371.2,1.40915733928377985929589983753998
78,2434.61175848513944150037727146199049,2433.2,1.41175848513944150037727146199049
79,2497.41432642797763238611962753724349,2496.0,1.41432642797763238611962753724349
80,2561.01686200540117685725562526317359,2559.6,1.41686200540117685725562526317359
81,2625.41936602369898668878001145347716,2624.0,1.41936602369898668878001145347716
82,2690.62183925938839141851706037133100,2689.2,1.42183925938839141851706037133100
83,2756.62428246066363514550018615288258,2755.2,1.42428246066363514550018615288258
84,2823.42669634875730849520038382035690,2822.0,1.42669634875730849520038382035690
85,2891.02908161922092517246728798300921,2889.6,1.42908161922092517246728798300921
86,2959.43143894313033665765785011678812,2958.0,1.43143894313033665765785011678812
87,3028.63376896822122113062884897681918,3027.2,1.43376896822122113062884897681918
88,3098.63607231995945932953384215470045,3097.2,1.43607231995945932953384215470045
89,3169.43834960255082654920510964245134,3168.0,1.43834960255082654920510964245134
90,3241.04060139989408676717211905534469,3239.6,1.44060139989408676717211905534469
91,3313.44282827648125343331920614202683,3312.0,1.44282827648125343331920614202683
92,3386.64503077824849316164557664842058,3385.2,1.44503077824849316164557664842058
93,3460.64720943338088630753754048928998,3459.2,1.44720943338088630753754048928998
94,3535.44936475307401548522476325000483,3534.0,1.44936475307401548522476325000483
95,3611.05149723225513192606503527389139,3609.6,1.45149723225513192606503527389139
96,3687.45360735026644775618601445326568,3686.0,1.45360735026644775618601445326568
97,3764.65569557151291792990521597132700,3763.2,1.45569557151291792990521597132700
98,3842.65776234607670268105395364206906,3841.2,1.45776234607670268105395364206906
99,3921.45980811030034788214556387050204,3920.0,1.45980811030034788214556387050204
100,4001.06183328734057436091096399379477,3999.6,1.46183328734057436091096399379477
101,4081.46383828769443791957322373324769,4080.0,1.46383828769443791957322373324769
102,4162.66582350969949622751197075777801,4161.2,1.46582350969949622751197075777801
103,4244.66778934000951084435715617930265,4243.2,1.46778934000951084435715617930265
104,4327.46973615404710536584346919923161,4326.0,1.46973615404710536584346919923161
105,4411.07166431643470761099967900726210,4409.6,1.47166431643470761099967900726210
106,4495.47357418140501300500622269715569,4494.0,1.47357418140501300500622269715569
107,4580.67546609319212823009983055410520,4579.2,1.47546609319212823009983055410520
108,4666.67734038640447497735087920180766,4665.2,1.47734038640447497735087920180766
109,4753.47919738638046503860752928310544,4752.0,1.47919738638046503860752928310544
110,4841.08103740952789555777567765778869,4839.6,1.48103740952789555777567765778869
111,4929.48286076364794739940806323632660,4928.0,1.48286076364794739940806323632660
112,5018.68466774824462015894384368560079,5017.2,1.48466774824462015894384368560079
113,5108.68645865482038180314663777735692,5107.2,1.48645865482038180314663777735692
114,5199.48823376715876217153550709236239,5198.0,1.48823376715876217153550709236239
115,5291.08999336159457912110201959135442,5289.6,1.48999336159457912110201959135442
116,5383.49173770727243776495987276130265,5382.0,1.49173770727243776495987276130265
117,5476.69346706639411154256872972001726,5475.2,1.49346706639411154256872972001726
118,5570.69518169445537282807055251243764,5569.2,1.49518169445537282807055251243764
119,5665.49688184047280706956144974181644,5664.0,1.49688184047280706956144974181644
120,5761.09856774720111860988985625373695,5759.6,1.49856774720111860988985625373695
121,5857.50023965134139807232909172816889,5856.0,1.50023965134139807232909172816889
122,5954.70189778374080228134128151210174,5953.2,1.50189778374080228134128151210174
123,6052.70354236958406549572043822418790,6051.2,1.50354236958406549572043822418790
124,6151.50517362857724305159459317478208,6150.0,1.50517362857724305159459317478208
125,6251.10679177512405894650744086904783,6249.6,1.50679177512405894650744086904783
126,6351.50839701849521369850331383490563,6350.0,1.50839701849521369850331383490563
127,6452.70998956299098823625502835975807,6451.2,1.50998956299098823625502835975807
128,6554.71156960809745698908769494353894,6553.2,1.51156960809745698908769494353894
129,6657.51313734863661127251407980814691,6656.0,1.51313734863661127251407980814691
130,6761.11469297491067568303307735938030,6759.6,1.51469297491067568303307735938030
131,6865.51623667284088481182715479422720,6864.0,1.51623667284088481182715479422720
132,6970.71776862410097260979604143448090,6969.2,1.51776862410097260979604143448090
133,7076.71928900624561495478131658321836,7075.2,1.51928900624561495478131658321836
134,7183.52079799283405469588245381610078,7182.0,1.52079799283405469588245381610078
135,7291.12229575354912034142288438690631,7289.6,1.52229575354912034142288438690631
136,7399.52378245431184586959679133953488,7398.0,1.52378245431184586959679133953488
137,7508.72525825739188583288854606785616,7507.2,1.52525825739188583288854606785616
138,7618.72672332151390631536598786971619,7617.2,1.52672332151390631536598786971619
139,7729.52817780196013019604752031900590,7728.0,1.52817780196013019604752031900590
140,7841.12962185066919972557727044385888,7839.6,1.52962185066919972557727044385888
141,7953.53105561633151486595430269754841,7952.0,1.53105561633151486595430269754841
142,8066.73247924448119776979948453044942,8065.2,1.53247924448119776979948453044942
143,8180.73389287758482512547538842208571,8179.2,1.53389287758482512547538842208571
144,8295.53529665512706291474203132739293,8294.0,1.53529665512706291474203132739293
145,8411.13669071369333394187389930998695,8409.6,1.53669071369333394187389930998695
146,8527.53807518704964062441683741823593,8526.0,1.53807518704964062441683741823593
147,8644.73945020621965733280053106962315,8643.2,1.53945020621965733280053106962315
148,8762.74081589955920760799077874940860,8761.2,1.54081589955920760799077874940860
149,8881.54217239282822805829662244137100,8880.0,1.54217239282822805829662244137100
150,9001.14351980926032257637212552432134,8999.6,1.54351980926032257637212552432134
151,9121.54485826963000279083308651788039,9120.0,1.54485826963000279083308651788039
152,9242.74618789231770505182685275021675,9241.2,1.54618789231770505182685275021675
153,9364.74750879337267290042120098996284,9363.2,1.54750879337267290042120098996284
154,9487.54882108657378892122911495907650,9486.0,1.54882108657378892122911495907650
155,9611.15012488348843421444043604604372,9609.6,1.55012488348843421444043604604372
156,9735.55142029352945335380536201107001,9734.0,1.55142029352945335380536201107001
157,9860.75270742401029587735776125828966,9859.2,1.55270742401029587735776125828966
158,9986.75398638019840612916852230610291,9985.2,1.55398638019840612916852230610291
159,10113.5552572653669251251537206388892,10112.0,1.5552572653669251251537206388892
160,10241.1565201808447707806729120691515,10239.6,1.5565201808447707806729120691515
161,10369.5577752260651549962362123246224,10368.0,1.5577752260651549962362123246224
162,10498.7590224986125970626242197918745,10497.2,1.5590224986125970626242197918745
163,10628.7602620942684882389265878636615,10627.2,1.5602620942684882389265878636615
164,10759.5614941070552621403064038392423,10758.0,1.5614941070552621403064038392423
165,10891.1627186292792195359230617436977,10889.6,1.5627186292792195359230617436977
166,11023.5639357515720580728222886776582,11022.0,1.5639357515720580728222886776582
167,11156.7651455629311541583378109439421,11155.2,1.5651455629311541583378109439421
168,11290.7663481507586396901482868403114,11289.2,1.5663481507586396901482868403114
169,11425.5675436008993186963131681769133,11424.0,1.5675436008993186963131681769133
170,11561.1687319976774636286436086791861,11559.6,1.5687319976774636286436086791861
171,11697.5699134239325315041126429937608,11696.0,1.5699134239325315041126429937608
172,11834.7710879610538377612122585223713,11833.2,1.5710879610538377612122585223713
173,11972.7722556890142232338421308867354,11971.2,1.5722556890142232338421308867354
174,12111.5734166864027500865048533407391,12110.0,1.5734166864027500865048533407391
175,12251.1745710304564606960045925671942,12249.6,1.5745710304564606960045925671942
176,12391.5757187970912291862742345382178,12390.0,1.5757187970912291862742345382178
177,12532.7768600609317388771433576100747,12531.2,1.5768600609317388771433576100747
178,12674.7779948953406148017266041883105,12673.2,1.5779948953406148017266041883105
179,12817.5791233724467377376658890942346,12816.0,1.5791233724467377376658890942346
180,12961.1802455631727706989195596611594,12959.6,1.5802455631727706989195596611594
181,13105.5813615372619205369846661154675,13104.0,1.5813615372619205369846661154675
182,13250.7824713633039623472439625907596,13249.2,1.5824713633039623472439625907596
183,13396.7835751087605497300250012895300,13395.2,1.5835751087605497300250012895300
184,13543.5846728399898351482262588563744,13542.0,1.5846728399898351482262588563744
185,13691.1857646222704221899603305486804,13689.6,1.5857646222704221899603305486804
186,13839.5868505198246707051637729325957,13838.0,1.5868505198246707051637729325957
187,13988.7879305958413786170139870681057,13987.2,1.5879305958413786170139870681057
188,14138.7890049124978558448113684235887,14137.2,1.5890049124978558448113684235887
189,14289.5900735309814140697697577071627,14288.0,1.5900735309814140697697577071627
190,14441.1911365115102879951495043348285,14439.6,1.5911365115102879951495043348285
191,14593.5921939133540073236519971715441,14592.0,1.5921939133540073236519971715441
192,14746.7932457948532358346490169375171,14745.2,1.5932457948532358346490169375171
193,14900.7942922134390958654760849242484,14899.2,1.5942922134390958654760849242484
194,15055.5953332256519915379583728728315,15054.0,1.5953332256519915379583728728315
195,15211.1963688871599486629238412114503,15209.6,1.5963688871599486629238412114503
196,15367.5973992527764850150049501795200,15366.0,1.5973992527764850150049501795200
197,15524.7984243764780253534623857727417,15523.2,1.5984243764780253534623857727417
198,15682.7994443114208753514275115207548,15681.2,1.5994443114208753514275115207548
199,15841.6004591099577672678476895713902,15840.0,1.6004591099577672678476895713902
200,16001.2014688236539913027692175465270,15999.6,1.6014688236539913027692175465270
201,16161.6024735033031236128221284899766,16160.0,1.6024735033031236128221284899766
202,16322.8034731989423643635147282676779,16321.2,1.6034731989423643635147282676779
203,16484.8044679598674964735216996021822,16483.2,1.6044679598674964735216996021822
204,16647.6054578346474766663444459230180,16646.0,1.6054578346474766663444459230180
205,16811.2064428711386687951786277412920,16809.6,1.6064428711386687951786277412920
206,16975.6074231164987324602231426610200,16974.0,1.6074231164987324602231426610200
207,17140.8083986172001727896009864420054,17139.2,1.6083986172001727896009864420054
208,17306.8093694190435656058545323447891,17305.2,1.6093694190435656058545323447891
209,17473.6103355671704637214112662845657,17472.0,1.6103355671704637214112662845657
210,17641.2112971060759958591990074735751,17639.6,1.6112971060759958591990074735751
211,17809.6122540796211655579583640458822,17808.0,1.6122540796211655579583640458822
212,17978.8132065310448602899792111841123,17977.2,1.6132065310448602899792111841123
213,18148.8141545029755751697653027592009,18147.2,1.6141545029755751697653027592009
214,18319.6150980374428662299380955987460,18318.0,1.6150980374428662299380955987460
215,18491.2160371758885324712474305608895,18489.6,1.6160371758885324712474305608895
216,18663.6169719591775406417943477878743,18662.0,1.6169719591775406417943477878743
217,18836.8179024276086967051688870778924,18835.2,1.6179024276086967051688870778924
218,19010.8188286209250729706279591409314,19009.2,1.6188286209250729706279591409314
219,19185.6197505783241941589403195897814,19184.0,1.6197505783241941589403195897814
220,19361.2206683384679949127269947818580,19359.6,1.6206683384679949127269947818580
221,19537.6215819394925466543075301524892,19536.0,1.6215819394925466543075301524892
222,19714.8224914190175709891497574269054,19713.2,1.6224914190175709891497574269054
223,19892.8233968141557332165027213431006,19891.2,1.6233968141557332165027213431006
224,20071.6242981615217310072756002912634,20070.0,1.6242981615217310072756002912634
225,20251.2251954972411808064862612501134,20249.6,1.6251954972411808064862612501134
226,20431.6260888569593054990164164033193,20430.0,1.6260888569593054990164164033193
227,20612.8269782758494319823330358592274,20611.2,1.6269782758494319823330358592274
228,20794.8278637886213004572092687206011,20793.2,1.6278637886213004572092687206011
229,20977.6287454295291925894344130867126,20976.0,1.6287454295291925894344130867126
230,21161.2296232323798832296182614856794,21159.6,1.6296232323798832296182614856794
231,21345.6304972305404174812372092017952,21344.0,1.6304972305404174812372092017952
232,21530.8313674569457235267412635123827,21529.2,1.6313674569457235267412635123827
233,21716.8322339441060561981412082594949,21715.2,1.6322339441060561981412082594949
234,21903.6330967241142874390796692599526,21902.0,1.6330967241142874390796692599526
235,22091.2339558286530368304412890007870,22089.6,1.6339558286530368304412890007870
236,22279.6348112890016518792492634219843,22278.0,1.6348112890016518792492634219843
237,22468.8356631360430416919736162453879,22467.2,1.6356631360430416919736162453879
238,22658.8365114002703657642832231020085,22657.2,1.6365114002703657642832231020085
