Eigenstate,Energy,Kinetic Energy,Potential Energy
1,0.500000000021735899911185133948751708,0.0,0.500000000021735899911185133948751708
2,1.84623093779299517443714414625068161,1.2,0.64623093779299517443714414625068161
3,3.93633761012173782699269108173528689,3.2,0.73633761012173782699269108173528689
4,6.79966527868230561426071947222214547,6.0,0.79966527868230561426071947222214547
5,10.4480465767893525045145414045340963,9.6,0.8480465767893525045145414045340963
6,14.8870659991970425629048659445839416,14.0,0.8870659991970425629048659445839416
7,20.1197208273433105639467972079734146,19.2,0.9197208273433105639467972079734146
8,26.1477838476049820650434977464160859,25.2,0.9477838476049820650434977464160859
9,32.9723835589882696563242413667505174,32.0,0.9723835589882696563242413667505174
10,40.5942802156417051524521680314865605,39.6,0.9942802156417051524521680314865605
11,49.0140093877063013572681316205890050,48.0,1.0140093877063013572681316205890050
12,58.2319621704866697579974885241868127,57.2,1.0319621704866697579974885241868127
13,68.2484326940486047359598418677660104,67.2,1.0484326940486047359598418677660104
14,79.0636476560752407279482985285125853,78.0,1.0636476560752407279482985285125853
15,90.6777854376812344763277169013473363,89.6,1.0777854376812344763277169013473363
16,103.090988908283208505989533022650785,102.0,1.090988908283208505989533022650785
17,116.303374259061254525934429474555463,115.2,1.103374259061254525934429474555463
18,130.315037253965132353337070322403247,129.2,1.115037253965132353337070322403247
19,145.126057752818247227293136608035838,144.0,1.126057752818247227293136608035838
20,160.736503048951586082465474892460622,159.6,1.136503048951586082465474892460622
21,177.146430375285414634985261356337073,176.0,1.146430375285414634985261356337073
22,194.355888815488017466683671246717728,193.2,1.155888815488017466683671246717728
23,212.364920781912222656186883053641666,211.2,1.164920781912222656186883053641666
24,231.173563172995823928375656419807543,230.0,1.173563172995823928375656419807543
25,250.781848290057507044764092511609737,249.6,1.181848290057507044764092511609737
26,271.189804571104437557873049745266225,270.0,1.189804571104437557873049745266225
27,292.397457183794836653382118178933003,291.2,1.197457183794836653382118178933003
28,314.404828508797020995988966915318985,313.2,1.204828508797020995988966915318985
29,337.211938536991354674264574130392764,336.0,1.211938536991354674264574130392764
30,360.818805198312073771094524440140355,359.6,1.218805198312073771094524440140355
31,385.225444635880005586641680786230403,384.0,1.225444635880005586641680786230403
32,410.431871435999304956348186082111423,409.2,1.231871435999304956348186082111423
33,436.438098822281682302595747852196326,435.2,1.238098822281682302595747852196326
34,463.244138820411051792667654381098565,462.0,1.244138820411051792667654381098565
35,490.850002398722332910103266447683414,489.6,1.250002398722332910103266447683414
36,519.255699588734659868108444083097239,518.0,1.255699588734659868108444083097239
37,548.461239588975168745270720016001978,547.2,1.261239588975168745270720016001978
38,578.466630854799113480771371332593806,577.2,1.266630854799113480771371332593806
39,609.271881176414213216838048542039350,608.0,1.271881176414213216838048542039350
40,640.876997746921312692693365604288694,639.6,1.276997746921312692693365604288694
41,673.281987221866687120580638425745497,672.0,1.281987221866687120580638425745497
42,706.486855771546330372981119280468861,705.2,1.286855771546330372981119280468861
43,740.491609127096078965252707820894381,739.2,1.291609127096078965252707820894381
44,775.296252621233330302442693255455382,774.0,1.296252621233330302442693255455382
45,810.900791224378544090052498725491341,809.6,1.300791224378544090052498725491341
46,847.305229576771579525957890470987540,846.0,1.305229576771579525957890470987540
47,884.509572017104444278372696741120783,883.2,1.309572017104444278372696741120783
48,922.513822608114444890509557096671210,921.2,1.313822608114444890509557096671210
49,961.317985159517065708706199021145569,960.0,1.317985159517065708706199021145569
50,1000.92206324860378071714218798854452,999.6,1.32206324860378071714218798854452
51,1041.32606023878453569980678761747305,1040.0,1.32606023878453569980678761747305
52,1082.52997929631629293608607474914485,1081.2,1.32997929631629293608607474914485
53,1124.53382340542658051779727917058612,1123.2,1.33382340542658051779727917058612
54,1167.33759538201342724404714697053181,1166.0,1.33759538201342724404714697053181
55,1210.94129788607958855778346675314573,1209.6,1.34129788607958855778346675314573
56,1255.34493343303889441778734648003806,1254.0,1.34493343303889441778734648003806
57,1300.54850440401535103473786445602737,1299.2,1.34850440401535103473786445602737
58,1346.55201305524083121369242869157882,1345.2,1.35201305524083121369242869157882
59,1393.35546152664443409805326541349185,1392.0,1.35546152664443409805326541349185
60,1440.95885184971557060239017087899170,1439.6,1.35885184971557060239017087899170
61,1489.36218595471326659398673774458463,1488.0,1.36218595471326659398673774458463
62,1538.56546567728587487786527306024160,1537.2,1.36546567728587487786527306024160
63,1588.56869276455814515102629636495127,1587.2,1.36869276455814515102629636495127
64,1639.37186888073628861171752387347491,1638.0,1.37186888073628861171752387347491
65,1690.97499561227613906957534907792240,1689.6,1.37499561227613906957534907792240
66,1743.37807447265466506342856677595085,1742.0,1.37807447265466506342856677595085
67,1796.58110690678082520222897917548251,1795.2,1.38110690678082520222897917548251
68,1850.58409429507800278376557943826696,1849.2,1.38409429507800278376557943826696
69,1905.38703795726694307509274191830073,1904.0,1.38703795726694307509274191830073
70,1960.98993915587518837033929804874240,1959.6,1.38993915587518837033929804874240
71,2017.39279909949640723783459988514996,2016.0,1.39279909949640723783459988514996
72,2074.59561894582071612610822771456776,2073.2,1.39561894582071612610822771456776
73,2132.59839980445503849191675842120077,2131.2,1.39839980445503849191675842120077
74,2191.40114273955072776489851211546738,2190.0,1.40114273955072776489851211546738
75,2251.00384877225404936235438091088986,2249.6,1.40384877225404936235438091088986
76,2311.40651888299366741089778435033656,2310.0,1.40651888299366741089778435033656
77,2372.60915401361797943329882769589955,2371.2,1.40915401361797943329882769589955
78,2434.61175506939397646066767300792128,2433.2,1.41175506939397646066767300792128
79,2497.41432292087825921013000912274196,2496.0,1.41432292087825921013000912274196
80,2561.01685840566990284250311889964241,2559.6,1.41685840566990284250311889964241
81,2625.41936233005401347300453824191577,2624.0,1.41936233005401347300453824191577
82,2690.62183547054405815747181956620919,2689.2,1.42183547054405815747181956620919
83,2756.62427857533036134278231675020158,2755.2,1.42427857533036134278231675020158
84,2823.42669236564153647844581184144633,2822.0,1.42669236564153647844581184144633
85,2891.02907753702506221016914730920221,2889.6,1.42907753702506221016914730920221
86,2959.43143476055269671080274228122889,2958.0,1.43143476055269671080274228122889
87,3028.63376468395596623327901999618859,3027.2,1.43376468395596623327901999618859
88,3098.63606793269654059241708708059556,3097.2,1.43606793269654059241708708059556
89,3169.43834511097592478030652844762227,3168.0,1.43834511097592478030652844762227
90,3241.04059680268855270325390512769371,3239.6,1.44059680268855270325390512769371
91,3313.44282357232204757622486569093430,3312.0,1.44282357232204757622486569093430
92,3386.64502596580812521317566167284366,3385.2,1.44502596580812521317566167284366
93,3460.64720451132735419661221846775346,3459.2,1.44720451132735419661221846775346
94,3535.44935972007074398097683349209380,3534.0,1.44935972007074398097683349209380
95,3611.05149208696091083043354647668234,3609.6,1.45149208696091083043354647668234
96,3687.45360209133536966950681385156750,3686.0,1.45360209133536966950681385156750
97,3764.65569019759431558291851562075490,3763.2,1.45569019759431558291851562075490
98,3842.65775685581508582667360566019043,3841.2,1.45775685581508582667360566019043
99,3921.45980250233533974025560244569292,3920.0,1.45980250233533974025560244569292
100,4001.06182756030684760937704522416083,3999.6,1.46182756030684760937704522416083
101,4081.46383244022165022457555849550983,4080.0,1.46383244022165022457555849550983
102,4162.66581754041222530622509349819729,4161.2,1.46581754041222530622509349819729
103,4244.66778324752718905291901496022278,4243.2,1.46778324752718905291901496022278
104,4327.46972993698395380547134470927289,4326.0,1.46972993698395380547134470927289
105,4411.07165797339966974502548924022333,4409.6,1.47165797339966974502548924022333
106,4495.47356771100168777951614562500968,4494.0,1.47356771100168777951614562500968
107,4580.67545949401870269077461999299782,4579.2,1.47545949401870269077461999299782
108,4666.67733365705365637501341506575649,4665.2,1.47733365705365637501341506575649
109,4753.47919052543941241589179521119580,4752.0,1.47919052543941241589179521119580
110,4841.08103041557815080923896431316098,4839.6,1.48103041557815080923896431316098
111,4929.48285363526536579731296969377415,4928.0,1.48285363526536579731296969377415
112,5018.68466048399930033683997523169253,5017.2,1.48466048399930033683997523169253
113,5108.68645125327659518928447280433525,5107.2,1.48645125327659518928447280433525
114,5199.48822622687488186404465174397420,5198.0,1.48822622687488186404465174397420
115,5291.08998568112300819676459512478721,5289.6,1.48998568112300819676459512478721
116,5383.49172988515953701330671857113921,5382.0,1.49172988515953701330671857113921
117,5476.69345910118012661692113335638827,5475.2,1.49345910118012661692113335638827
118,5570.69517358467436080504303146441430,5569.2,1.49517358467436080504303146441430
119,5665.49687358465256240843289154753499,5664.0,1.49687358465256240843289154753499
120,5761.09855934386309850313932345262169,5759.6,1.49855934386309850313932345262169
121,5857.50023109900064717852016105983512,5856.0,1.50023109900064717852016105983512
122,5954.70188908090587683142459346021516,5953.2,1.50188908090587683142459346021516
123,6052.70353351475695676370715454333157,6051.2,1.50353351475695676370715454333157
124,6151.50516462025330018043571103419791,6150.0,1.50516462025330018043571103419791
125,6251.10678261179191111989251179986838,6249.6,1.50678261179191111989251179986838
126,6351.50838769863669164916975804579962,6350.0,1.50838769863669164916975804579962
127,6452.70998008508104508127479549244230,6451.2,1.50998008508104508127479549244230
128,6554.71155997060408838247013808990701,6553.2,1.51155997060408838247013808990701
129,6657.51312755002077486533539115380342,6656.0,1.51312755002077486533539115380342
130,6761.11468301362620988117092074065027,6759.6,1.51468301362620988117092074065027
131,6865.51622654733442682124502663230682,6864.0,1.51622654733442682124502663230682
132,6970.71775833281187575918555244928269,6969.2,1.51775833281187575918555244928269
133,7076.71927854760586528523295042087982,7075.2,1.51927854760586528523295042087982
134,7183.52078736526818680711294212800237,7182.0,1.52078736526818680711294212800237
135,7291.12228495547413248394443716748878,7289.6,1.52228495547413248394443716748878
136,7399.52377148413711427206798255593373,7398.0,1.52377148413711427206798255593373
137,7508.72524711351907825373648501027016,7507.2,1.52524711351907825373648501027016
138,7618.72671200233689480761929607273336,7617.2,1.52671200233689480761929607273336
139,7729.52816630586490307416514513724565,7728.0,1.52816630586490307416514513724565
140,7841.12961017603377272290118850695357,7839.6,1.52961017603377272290118850695357
141,7953.53104376152584147125541230453692,7952.0,1.53104376152584147125541230453692
142,8066.73246720786707873122257468503454,8065.2,1.53246720786707873122257468503454
143,8180.73388065751581711002461486481604,8179.2,1.53388065751581711002461486481604
144,8295.53528424994838631127947963480744,8294.0,1.53528424994838631127947963480744
145,8411.13667812174177979543310815615319,8409.6,1.53667812174177979543310815615319
146,8527.53806240665347668945854315498001,8526.0,1.53806240665347668945854315498001
147,8644.73943723569853323286007534255095,8643.2,1.53943723569853323286007534255095
148,8762.74080273722405908898691966354247,8761.2,1.54080273722405908898691966354247
149,8881.54215903698118032258676745050010,8880.0,1.54215903698118032258676745050010
150,9001.14350625819459268445229058533613,8999.6,1.54350625819459268445229058533613
151,9121.54484452162980111738986460582743,9120.0,1.54484452162980111738986460582743
152,9242.74617394565813578265526068499906,9241.2,1.54617394565813578265526068499906
153,9364.74749464631963355652425906648142,9363.2,1.54749464631963355652425906648142
154,9487.54880673738386889621417506068628,9486.0,1.54880673738386889621417506068628
155,9611.15011033040881231112255202152467,9609.6,1.55011033040881231112255202152467
156,9735.55140553479779430571921747936092,9734.0,1.55140553479779430571921747936092
157,9860.75269245785464584066775589725790,9859.2,1.55269245785464584066775589725790
158,9986.75397120483708713025013238958150,9985.2,1.55397120483708713025013238958150
159,10113.5552418790084284489000705016711,10112.0,1.5552418790084284489000705016711
160,10241.1565045816876492843551452810035,10239.6,1.5565045816876492843551452810035
161,10369.5577594122979143335187820821153,10368.0,1.5577594122979143335187820821153
162,10498.7590064684135858021037772568874,10497.2,1.5590064684135858021037772568874
163,10628.7602458458057868613268411495109,10627.2,1.5602458458057868613268411495109
164,10759.5614776384865708982193962460177,10758.0,1.5614776384865708982193962460177
165,10891.1627019387517451597424735775461,10889.6,1.5627019387517451597424735775461
166,11023.5639188372223993062646205859076,11022.0,1.5639188372223993062646205859076
167,11156.7651284228851861066925106092205,11155.2,1.5651284228851861066925106092205
168,11290.7663307831313969641379219919179,11289.2,1.5663307831313969641379219919179
169,11425.5675260037948773341818878183910,11424.0,1.5675260037948773341818878183910
170,11561.1687141691888217788218734236021,11559.6,1.5687141691888217788218734236021
171,11697.5698953621414888505329416915450,11696.0,1.5698953621414888505329416915450
172,11834.7710696640308736730710087007666,11833.2,1.5710696640308736730710087007666
173,11972.7722371548183736213190059709067,11971.2,1.5722371548183736213190059709067
174,12111.5733979130814829436601420374457,12110.0,1.5733979130814829436601420374457
175,12251.1745520160455503117813679263577,12249.6,1.5745520160455503117813679263577
176,12391.5756995396146290042299039100958,12390.0,1.5756995396146290042299039100958
177,12532.7768405584014529842304158937039,12531.2,1.5768405584014529842304158937039
178,12674.7779751457565680261290582836269,12673.2,1.5779751457565680261290582836269
179,12817.5791033737966443353802085764842,12816.0,1.5791033737966443353802085764842
180,12961.1802253134320016084448739751837,12959.6,1.5802253134320016084448739751837
181,13105.5813410343933691811567797961780,13104.0,1.5813410343933691811567797961780
182,13250.7824506052579089609115204633664,13249.2,1.5824506052579089609115204633664
183,13396.7835540934745241919226060450579,13395.2,1.5835540934745241919226060450579
184,13543.5846515653884782950502202684720,13542.0,1.5846515653884782950502202684720
185,13691.1857430862653455902958197989828,13689.6,1.5857430862653455902958197989828
186,13839.5868287203143148705515747315939,13838.0,1.5868287203143148705515747315939
187,13988.7879085307108696270715927429760,13987.2,1.5879085307108696270715927429760
188,14138.7889825796188603629488378672112,14137.2,1.5889825796188603629488378672112
189,14289.5900509282119927256547310141465,14288.0,1.5900509282119927256547310141465
190,14441.1911136366947471096853210507207,14439.6,1.5911136366947471096853210507207
191,14593.5921707643227489518316501305573,14592.0,1.5921707643227489518316501305573
192,14746.7932223694226061012424897103006,14745.2,1.5932223694226061012424897103006
193,14900.7942685094112315680918811096578,14899.2,1.5942685094112315680918811096578
194,15055.5953092408146649915980526739792,15054.0,1.5953092408146649915980526739792
195,15211.1963446192864107597157943932044,15209.6,1.5963446192864107597157943932044
196,15367.5973746996253064723649743031181,15366.0,1.5973746996253064723649743031181
197,15524.7983995357929361234784848902309,15523.2,1.5983995357929361234784848902309
198,15682.7994191809306021638107943607228,15681.2,1.5994191809306021638107943607228
199,15841.6004336873758692783225821078875,15840.0,1.6004336873758692783225821078875
200,16001.2014431066786938183025066414233,15999.6,1.6014431066786938183025066414233
201,16161.6024474896171498646048158228620,16160.0,1.6024474896171498646048158228620
202,16322.8034468862127652981142917135594,16321.2,1.6034468862127652981142917135594
203,16484.8044413457454785321204023043566,16483.2,1.6044413457454785321204023043566
204,16647.6054309167682275214622893785815,16646.0,1.6054309167682275214622893785815
205,16811.2064156471211810137566011982994,16809.6,1.6064156471211810137566011982994
206,16975.6073955839456250614050742840432,16974.0,1.6073955839456250614050742840432
207,17140.8083707736975106650073657004875,17139.2,1.6083707736975106650073657004875
208,17306.8093412621606767695837825890328,17305.2,1.6093412621606767695837825890328
209,17473.6103070944597543564355022210519,17472.0,1.6103070944597543564355022210519
210,17641.2112683150727631262413345458978,17639.6,1.6112683150727631262413345458978
211,17809.6122249678434081323473697438969,17808.0,1.6122249678434081323473697438969
212,17978.8131770959930865913717230893528,17977.2,1.6131770959930865913717230893528
213,18148.8141247421326092490122014110337,18147.2,1.6141247421326092490122014110337
214,18319.6150679482736512767405034127535,18318.0,1.6150679482736512767405034127535
215,18491.2160067558399319056076017785199,18489.6,1.6160067558399319056076017785199
216,18663.6169412056781367516108106945738,18662.0,1.6169412056781367516108106945738
217,18836.8178713380685867916579351362462,18835.2,1.6178713380685867916579351362462
218,19010.8187971927356629625714391995285,19009.2,1.6187971927356629625714391995285
219,19185.6197188088579896560614120683612,19184.0,1.6197188088579896560614120683612
220,19361.2206362250783896177879998604325,19359.6,1.6206362250783896177879998604325
221,19537.6215494795136081527957573525958,19536.0,1.6215494795136081527957573525958
222,19714.8224586097638238346780564102026,19713.2,1.6224586097638238346780564102026
223,19892.8233636529219392792951377547028,19891.2,1.6233636529219392792951377547028
224,20071.6242646455826670423364429825894,20070.0,1.6242646455826670423364429825894
225,20251.2251616238514131972620304540500,20249.6,1.6251616238514131972620304540500
226,20431.6260546233529621315560392184687,20430.0,1.6260546233529621315560392184687
227,20612.8269436792399712041308399693228,20611.2,1.6269436792399712041308399693228
228,20794.8278288262012770740732196036608,20793.2,1.6278288262012770740732196036608
229,20977.6287100984700208528679085404749,20976.0,1.6287100984700208528679085404749
230,21161.2295875298315967663268468184640,21159.6,1.6295875298315967663268468184640
231,21345.6304611536314261154785345069018,21344.0,1.6304611536314261154785345069018
232,21530.8313310027825669453221503709998,21529.2,1.6313310027825669453221503709998
233,21716.8321971097731544069344875825372,21715.2,1.6321971097731544069344875825372
234,21903.6330595066736879589791792792546,21902.0,1.6330595066736879589791792792546
235,22091.2339182251441585797016364777650,22089.6,1.6339182251441585797016364777650
236,22279.6347732964410256881611485932386,22278.0,1.6347732964410256881611485932386
237,22468.8356247514240473948101084263117,22467.2,1.6356247514240473948101084263117
238,22658.8364726205629658124140159641201,22657.2,1.6364726205629658124140159641201
