Eigenstate,Energy,Kinetic Energy,Potential Energy
1,0.500000001069610014443756726246034711,0.0,0.500000001069610014443756726246034711
2,1.84623094463318683125639207029181779,1.2,0.64623094463318683125639207029181779
3,3.93633763021523194610371239318595244,3.2,0.73633763021523194610371239318595244
4,6.79966532053756509485439550444356718,6.0,0.79966532053756509485439550444356718
5,10.4480466492974205236837003200884651,9.6,0.8480466492974205236837003200884651
6,14.8870661114084948719768820773010820,14.0,0.8870661114084948719768820773010820
7,20.1197209883867134504386190873705027,19.2,0.9197209883867134504386190873705027
8,26.1477840666534789249670574030401276,25.2,0.9477840666534789249670574030401276
9,32.9723838452445895890168277880634633,32.0,0.9723838452445895890168277880634633
10,40.5942805783310583398150319463951432,39.6,0.9942805783310583398150319463951432
11,49.0140098360729889499086841134950870,48.0,1.0140098360729889499086841134950870
12,58.2319627137925884367873031649967497,57.2,1.0319627137925884367873031649967497
13,68.2484333415727846091958705269898875,67.2,1.0484333415727846091958705269898875
14,79.0636484171139798262183340855107758,78.0,1.0636484171139798262183340855107758
15,90.6777863215485951148600136547121571,89.6,1.0777863215485951148600136547121571
16,103.090989924311742941597047587030069,102.0,1.090989924311742941597047587030069
17,116.303375416602881786631538144877138,115.2,1.103375416602881786631538144877138
18,130.315038562392118496497402592583139,129.2,1.115038562392118496497402592583139
19,145.126059221524258919582100026488548,144.0,1.126059221524258919582100026488548
20,160.736504687352798001376258263003847,159.6,1.136504687352798001376258263003847
21,177.146432192821657772356325140701422,176.0,1.146432192821657772356325140701422
22,194.355890821623959612626933790277887,193.2,1.155890821623959612626933790277887
23,212.364922986138575087950026310669478,211.2,1.164922986138575087950026310669478
24,231.173565584830570166199575971092726,230.0,1.173565584830570166199575971092726
25,250.781850919047150792085804786743560,249.6,1.181850919047150792085804786743560
26,271.189807426825267817216496400152826,270.0,1.189807426825267817216496400152826
27,292.397460275854208628615598751104694,291.2,1.197460275854208628615598751104694
28,314.404831846834651837803328986253617,313.2,1.204831846834651837803328986253617
29,337.211942130680633452211306386294229,336.0,1.211942130680633452211306386294229
30,360.818809057361385298021995892350183,359.6,1.218809057361385298021995892350183
31,385.225448770034067904121062814714827,384.0,1.225448770034067904121062814714827
32,410.431875855040520429390610726883933,409.2,1.231875855040520429390610726883933
33,436.438103536031502380306971162114680,435.2,1.238103536031502380306971162114680
34,463.244143838731355576732439606677940,462.0,1.244143838731355576732439606677940
35,490.850007731516819741069833821132422,489.6,1.250007731516819741069833821132422
36,519.255705245950256194649227235595985,518.0,1.255705245950256194649227235595985
37,548.461245580603449587086574627821370,547.2,1.261245580603449587086574627821370
38,578.466637190877738833911460811353952,577.2,1.266637190877738833911460811353952
39,609.271887867028379782677139084720089,608.0,1.271887867028379782677139084720089
40,640.877004802205221339959390177359339,639.6,1.277004802205221339959390177359339
41,673.281994652005026514660359982425687,672.0,1.281994652005026514660359982425687
42,706.486863586775777229025357023458272,705.2,1.286863586775777229025357023458272
43,740.491617337706815401949971272135136,739.2,1.291617337706815401949971272135136
44,775.296261237570578792198906638725744,774.0,1.296261237570578792198906638725744
45,810.900800256844120519072888716942537,809.6,1.300800256844120519072888716942537
46,847.305239035825464894667573024338275,846.0,1.305239035825464894667573024338275
47,884.509581913266375588968235093327837,883.2,1.309581913266375588968235093327837
48,922.513832951965525784395026007377647,921.2,1.313832951965525784395026007377647
49,961.317995961701397432286972007156190,960.0,1.317995961701397432286972007156190
50,1000.92207451983011401005602986269476,999.6,1.32207451983011401005602986269476
51,1041.32607198982794421527198487323099,1040.0,1.32607198982794421527198487323099
52,1082.52999153801986881872422244984866,1081.2,1.32999153801986881872422244984866
53,1124.53383614870315278012552375542305,1123.2,1.33383614870315278012552375542305
54,1167.33760863784730359889336633530173,1166.0,1.33760863784730359889336633530173
55,1210.94131166552832138021470660027603,1209.6,1.34131166552832138021470660027603
56,1255.34494774723507152680778404883066,1254.0,1.34494774723507152680778404883066
57,1300.54851926416841200205229282018106,1299.2,1.34851926416841200205229282018106
58,1346.55202847263890992429002829466536,1345.2,1.35202847263890992429002829466536
59,1393.35547751265622830527034138040282,1392.0,1.35547751265622830527034138040282
60,1440.95886841579223923851156189806718,1439.6,1.35886841579223923851156189806718
61,1489.36220311239035561636138117586514,1488.0,1.36220311239035561636138117586514
62,1538.56548343818527244998780954393274,1537.2,1.36548343818527244998780954393274
63,1588.56871114039006697809173652719169,1587.2,1.36871114039006697809173652719169
64,1639.37188788330129427082861302359168,1638.0,1.37188788330129427082861302359168
65,1690.97501525346718019610559372877086,1689.6,1.37501525346718019610559372877086
66,1743.37809476445916627703384246386261,1742.0,1.37809476445916627703384246386261
67,1796.58112786128279867870215886784497,1795.2,1.38112786128279867870215886784497
68,1850.58411592446019740236438399757321,1849.2,1.38411592446019740236438399757321
69,1905.38706027381302909517686621244692,1904.0,1.38706027381302909517686621244692
70,1960.98996217197197861614461127906837,1959.6,1.38996217197197861614461127906837
71,2017.39282282763611579605366963915180,2016.0,1.39282282763611579605366963915180
72,2074.59564339860325558762917995527805,2073.2,1.39564339860325558762917995527805
73,2132.59842499459035679666991103836231,2131.2,1.39842499459035679666991103836231
74,2191.40116867986118573727605997185323,2190.0,1.40116867986118573727605997185323
75,2251.00387547567684005416106174914954,2249.6,1.40387547567684005416106174914954
76,2311.40654636258327839927874752611666,2310.0,1.40654636258327839927874752611666
77,2372.60918228254869925262911410950115,2371.2,1.40918228254869925262911410950115
78,2434.61178414096244638000907085991807,2433.2,1.41178414096244638000907085991807
79,2497.41435280850607160160124651755375,2496.0,1.41435280850607160160124651755375
80,2561.01688912290624742082012497992578,2559.6,1.41688912290624742082012497992578
81,2625.41939389057837272257414188436370,2624.0,1.41939389057837272257414188436370
82,2690.62186788816895330080265299749072,2689.2,1.42186788816895330080265299749072
83,2756.62431186400415024266845137928436,2755.2,1.42431186400415024266845137928436
84,2823.42672653945126490642457788662897,2822.0,1.42672653945126490642457788662897
85,2891.02911261019936995521949725377006,2889.6,1.42911261019936995521949725377006
86,2959.43147074746478004516745712739965,2958.0,1.43147074746478004516745712739965
87,3028.63380159912659829675062585706769,3027.2,1.43380159912659829675062585706769
88,3098.63610579079715130245517991928936,3097.2,1.43610579079715130245517991928936
89,3169.43838392683174192302903397297240,3168.0,1.43838392683174192302903397297240
90,3241.04063659128180590973519425999337,3239.6,1.44063659128180590973519425999337
91,3313.44286434879523693969595356406195,3312.0,1.44286434879523693969595356406195
92,3386.64506774546735635573931150655494,3385.2,1.44506774546735635573931150655494
93,3460.64724730964574164901948017404520,3459.2,1.44724730964574164901948017404520
94,3535.44940355269188479595584238351843,3534.0,1.44940355269188479595584238351843
95,3611.05153696970243040907975409458370,3609.6,1.45153696970243040907975409458370
96,3687.45364804019254184142757244214839,3686.0,1.45364804019254184142757244214839
97,3764.65573722874375904427907619961798,3763.2,1.45573722874375904427907619961798
98,3842.65780498561853910606936956496307,3841.2,1.45780498561853910606936956496307
99,3921.45985174734351693058013967004122,3920.0,1.45985174734351693058013967004122
100,4001.06187793726337717463359379157911,3999.6,1.46187793726337717463359379157911
101,4081.46388396606709926401537864405237,4080.0,1.46388396606709926401537864405237
102,4162.66587023228821173439259302425399,4161.2,1.46587023228821173439259302425399
103,4244.66783712278058423325635964369571,4243.2,1.46783712278058423325635964369571
104,4327.46978501317117825722625464620716,4326.0,1.46978501317117825722625464620716
105,4411.07171426829108462840097728141758,4409.6,1.47171426829108462840097728141758
106,4495.47362524258608495247672924740589,4494.0,1.47362524258608495247672924740589
107,4580.67551828050789622280063883063889,4579.2,1.47551828050789622280063883063889
108,4666.67739371688717849851132933184054,4665.2,1.47739371688717849851132933184054
109,4753.47925187728931699510526297177388,4752.0,1.47925187728931699510526297177388
110,4841.08109307835392750949199732777629,4839.6,1.48109307835392750949199732777629
111,4929.48291762811896824444760349897475,4928.0,1.48291762811896824444760349897475
112,5018.68472582633029166795235236460737,5017.2,1.48472582633029166795235236460737
113,5108.68651796473741451150532773832644,5107.2,1.48651796473741451150532773832644
114,5199.48829432737623525834309461631666,5198.0,1.48829432737623525834309461631666
115,5291.09005519083938802879542628198242,5289.6,1.49005519083938802879542628198242
116,5383.49180082453487344337455480713675,5382.0,1.49180082453487344337455480713675
117,5476.69353149093357533643442368934570,5475.2,1.49353149093357533643442368934570
118,5570.69524744580623116761061974815794,5569.2,1.49524744580623116761061974815794
119,5665.49694893845039027027162662718431,5664.0,1.49694893845039027027162662718431
120,5761.09863621190786823997581080448951,5759.6,1.49863621190786823997581080448951
121,5857.50030950317316750495045420905201,5856.0,1.50030950317316750495045420905201
122,5954.70196904339331521404953872330286,5953.2,1.50196904339331521404953872330286
123,6052.70361505805953739158761818916101,6051.2,1.50361505805953739158761818916101
124,6151.50524776719117063581937109211737,6150.0,1.50524776719117063581937109211737
125,6251.10686738551218307913185839346216,6249.6,1.50686738551218307913185839346216
126,6351.50847412262066113858302902210655,6350.0,1.50847412262066113858302902210655
127,6452.71006818315159801582293624874475,6451.2,1.51006818315159801582293624874475
128,6554.71164976693329732690399591089528,6553.2,1.51164976693329732690399591089528
129,6657.51321906913769317832803023471580,6656.0,1.51321906913769317832803023471580
130,6761.11477628042486963334612670127491,6759.6,1.51477628042486963334612670127491
131,6865.51632158708204711839235089484442,6864.0,1.51632158708204711839235089484442
132,6970.71785517115728835281987929952077,6969.2,1.51785517115728835281987929952077
133,7076.71937721058816461450994110434406,7075.2,1.51937721058816461450994110434406
134,7183.52088787932561188952897608010266,7182.0,1.52088787932561188952897608010266
135,7291.12238734745318835777684971306364,7289.6,1.52238734745318835777684971306364
136,7399.52387578130194099176146234815367,7398.0,1.52387578130194099176146234815367
137,7508.72535334356107575108937422269769,7507.2,1.52535334356107575108937422269769
138,7618.72682019338461225730597379045429,7617.2,1.52682019338461225730597379045429
139,7729.52827648649420174258212189929377,7728.0,1.52827648649420174258212189929377
140,7841.12972237527827163533561970648328,7839.6,1.52972237527827163533561970648328
141,7953.53115800888765560467564174477806,7952.0,1.53115800888765560467564174477806
142,8066.73258353332785982952682489899781,8065.2,1.53258353332785982952682489899781
143,8180.73399909154810762616780794861863,8179.2,1.53399909154810762616780794861863
144,8295.53540482352729740733610056061587,8294.0,1.53540482352729740733610056061587
145,8411.13680086635700477833745994251110,8409.6,1.53680086635700477833745994251110
146,8527.53818735432165172796408457748827,8526.0,1.53818735432165172796408457748827
147,8644.73956441897595769129501408605415,8643.2,1.53956441897595769129501408605415
148,8762.74093218921978832688657294857760,8761.2,1.54093218921978832688657294857760
149,8881.54229079137050434750368389151531,8880.0,1.54229079137050434750368389151531
150,9001.14364034923291460952231808077814,8999.6,1.54364034923291460952231808077814
151,9121.54498098416692996704284433723471,9120.0,1.54498098416692996704284433723471
152,9242.74631281515300881069045560111494,9241.2,1.54631281515300881069045560111494
153,9364.74763595885548389224672715106789,9363.2,1.54763595885548389224672715106789
154,9487.54895052968385501816149328239764,9486.0,1.54895052968385501816149328239764
155,9611.15025663985212656596193432257654,9609.6,1.55025663985212656596193432257654
156,9735.55155439943626844407570133847621,9734.0,1.55155439943626844407570133847621
157,9860.75284391642987233398503597370410,9859.2,1.55284391642987233398503597370410
158,9986.75412529679807586559285790011731,9985.2,1.55412529679807586559285790011731
159,10113.5553986445298192740903619157508,10112.0,1.5553986445298192740903619157508
160,10241.1566640616885017965873933722538,10239.6,1.5566640616885017965873933722538
161,10369.5579216484610972732365554641580,10368.0,1.5579216484610972732365554641580
162,10498.7591715032057894332618406502045,10497.2,1.5591715032057894332618406502045
163,10628.7604137224981827922372975294789,10627.2,1.5604137224981827922372975294789
164,10759.5616484011761449272460295231343,10758.0,1.5616484011761449272460295231343
165,10891.1628756323833299205308568134638,10889.6,1.5628756323833299205308568134638
166,11023.5640955076114347416951672879132,11022.0,1.5640955076114347416951672879132
167,11156.7653081167412371232361123612794,11155.2,1.5653081167412371232361123612794
168,11290.7665135480824590129593224700770,11289.2,1.5665135480824590129593224700770
169,11425.5677118884125021366304514385629,11424.0,1.5677118884125021366304514385629
170,11561.1689032230140969667287387029250,11559.6,1.5689032230140969667287387029250
171,11697.5700876357119069310570073603135,11696.0,1.5700876357119069310570073603135
172,11834.7712652089081274592432418938638,11833.2,1.5712652089081274592432418938638
173,11972.7724360236171170987668758277707,11971.2,1.5724360236171170987668758277707
174,12111.5736001594990984776017765006190,12110.0,1.5736001594990984776017765006190
175,12251.1747576948929651429925437838908,12249.6,1.5747576948929651429925437838908
176,12391.5759087068482261455595339979778,12390.0,1.5759087068482261455595339979778
177,12532.7770532711561239181534565796623,12531.2,1.5770532711561239181534565796623
178,12674.7781914623799570271811769275511,12673.2,1.5781914623799570271811769275511
179,12817.5793233538846368080420674464764,12816.0,1.5793233538846368080420674464764
180,12961.1804490178655115508413966970395,12959.6,1.5804490178655115508413966970395
181,13105.5815685253764837681692689146033,13104.0,1.5815685253764837681692689146033
182,13250.7826819463574512981603347177547,13249.2,1.5826819463574512981603347177547
183,13396.7837893496610985366430115469639,13395.2,1.5837893496610985366430115469639
184,13543.5848908030790654840644511416063,13542.0,1.5848908030790654840644511416063
185,13691.1859863733675200731315195867992,13689.6,1.5859863733675200731315195867992
186,13839.5870761262721586323355378627849,13838.0,1.5870761262721586323355378627849
187,13988.7881601265526624174609474871021,13987.2,1.5881601265526624174609474871021
188,14138.7892384380066300416019749390066,14137.2,1.5892384380066300416019749390066
189,14289.5903111234930142106647060074830,14288.0,1.5903111234930142106647060074830
190,14441.1913782449550833935609264732917,14439.6,1.5913782449550833935609264732917
191,14593.5924398634429329522033860650852,14592.0,1.5924398634429329522033860650852
192,14746.7934960391355677647460267140057,14745.2,1.5934960391355677647460267140057
193,14900.7945468313625806718220396107151,14899.2,1.5945468313625806718220396107151
194,15055.5955922986254465155149181395173,15054.0,1.5955922986254465155149181395173
195,15211.1966324986184565661782938862836,15209.6,1.5966324986184565661782938862836
196,15367.5976674882493143588762374116531,15366.0,1.5976674882493143588762374116531
197,15524.7986973236594151480924323296922,15523.2,1.5986973236594151480924323296922
198,15682.7997220602438315187888760412521,15681.2,1.5997220602438315187888760412521
199,15841.6007417526710269496062058244595,15840.0,1.6007417526710269496062058244595
200,16001.2017564549023208627135116314100,15999.6,1.6017564549023208627135116314100
201,16161.6027662202111264145068767163559,16160.0,1.6027662202111264145068767163559
202,16322.8037711012019854200153847908813,16321.2,1.6037711012019854200153847908813
203,16484.8047711498294228819216055626029,16483.2,1.6047711498294228819216055626029
204,16647.6057664174166454211888955201573,16646.0,1.6057664174166454211888955201573
205,16811.2067569546741071948062219304082,16809.6,1.6067569546741071948062219304082
206,16975.6077428117179709570573467583882,16974.0,1.6077428117179709570573467583882
207,17140.8087240380884858767738802866908,17139.2,1.6087240380884858767738802866908
208,17306.8097006827683132730974880173184,17305.2,1.6097006827683132730974880173184
209,17473.6106727942008242573858545983657,17472.0,1.6106727942008242573858545983657
210,17641.2116404203084004397600171538996,17639.6,1.6116404203084004397600171538996
211,17809.6126036085107662663887137996849,17808.0,1.6126036085107662663887137996849
212,17978.8135624057433861043016849528232,17977.2,1.6135624057433861043016849528232
213,18148.8145168584759551765713683973758,18147.2,1.6145168584759551765713683973758
214,18319.6154670127310260517887357494614,18318.0,1.6154670127310260517887357494614
215,18491.2164129141027988111434440114126,18489.6,1.6164129141027988111434440114126
216,18663.6173546077761201584309406582581,18662.0,1.6173546077761201584309406582581
217,18836.8182921385457293631280692468063,18835.2,1.6182921385457293631280692468063
218,19010.8192255508357968111571144936798,19009.2,1.6192255508357968111571144936798
219,19185.6201548887197983872690282230073,19184.0,1.6201548887197983872690282230073
220,19361.2210801959407816051408208442342,19359.6,1.6210801959407816051408208442342
221,19537.6220015159320685946527223759854,19536.0,1.6220015159320685946527223759854
222,19714.8229188918384645305291122435543,19713.2,1.6229188918384645305291122435543
223,19892.8238323665380210531726014502428,19891.2,1.6238323665380210531726014502428
224,20071.6247419826644308059512339833054,20070.0,1.6247419826644308059512339833054
225,20251.2256477826301223122685495764147,20249.6,1.6256477826301223122685495764147
226,20431.6265498086501315870452314236819,20430.0,1.6265498086501315870452314236819
227,20612.8274481027668388304411549061250,20611.2,1.6274481027668388304411549061250
228,20794.8283427068756593044546105815887,20793.2,1.6283427068756593044546105815887
229,20977.6292336627517912475624926122675,20976.0,1.6292336627517912475624926122675
230,21161.2301210120781305580513968240370,21159.6,1.6301210120781305580513968240370
231,21345.6310047964744694662970918574327,21344.0,1.6310047964744694662970918574327
232,21530.8318850575281165996511475546533,21529.2,1.6318850575281165996511475546533
233,21716.8327618368260733119352683654476,21715.2,1.6327618368260733119352683654476
234,21903.6336351759889367030406371435011,21902.0,1.6336351759889367030406371435011
235,22091.2345051167066928703164562038652,22089.6,1.6345051167066928703164562038652
236,22279.6353717007765984780715320756077,22278.0,1.6353717007765984780715320756077
237,22468.8362349701433628560088134826314,22467.2,1.6362349701433628560088134826314
238,22658.8370949669418636388037568705225,22657.2,1.6370949669418636388037568705225
