Eigenstate,Energy,Kinetic Energy,Potential Energy
1,0.500000000413930893735007488604909917,0.0,0.500000000413930893735007488604909917
2,1.84623094035307788633977328193582294,1.2,0.64623094035307788633977328193582294
3,3.93633761764194835838200741618647946,3.2,0.73633761764194835838200741618647946
4,6.79966529434654240829277399621939948,6.0,0.79966529434654240829277399621939948
5,10.4480466039241130539057407755877390,9.6,0.8480466039241130539057407755877390
6,14.8870660411877376485985746799902182,14.0,0.8870660411877376485985746799902182
7,20.1197208876035402739509801375885164,19.2,0.9197208876035402739509801375885164
8,26.1477839295638246418590161567836919,25.2,0.9477839295638246418590161567836919
9,32.9723836660844646120785112210063922,32.0,0.9723836660844646120785112210063922
10,40.5942803513207874820752072989829160,39.6,0.9942803513207874820752072989829160
11,49.0140095554191251830126227747356724,48.0,1.0140095554191251830126227747356724
12,58.2319623736886401991823645800853362,57.2,1.0319623736886401991823645800853362
13,68.2484329361992955348312408274081388,67.2,1.0484329361992955348312408274081388
14,79.0636479406382340780574062756273302,78.0,1.0636479406382340780574062756273302
15,90.6777857681240951041948548809567308,89.6,1.0777857681240951041948548809567308
16,103.090989288077542289988639683418996,102.0,1.090989288077542289988639683418996
17,116.303374691682822314397738747717498,115.2,1.103374691682822314397738747717498
18,130.315037742894001012082323766119707,129.2,1.115037742894001012082323766119707
19,145.126058301538966546623815152489061,144.0,1.126058301538966546623815152489061
20,160.736503660953384142129282958152871,159.6,1.136503660953384142129282958152871
21,177.146431054062406687161489705324469,176.0,1.146431054062406687161489705324469
22,194.355889564539424966924583316339919,193.2,1.155889564539424966924583316339919
23,212.364921604742600098625151850762357,211.2,1.164921604742600098625151850762357
24,231.173564073115291827799564160862454,230.0,1.173564073115291827799564160862454
25,250.781849270981989876475069935329809,249.6,1.181849270981989876475069935329809
26,271.189805636355905791781086637564177,270.0,1.189805636355905791781086637564177
27,292.397458336901552248956593148953973,291.2,1.197458336901552248956593148953973
28,314.404829753293785889963305276866077,313.2,1.204829753293785889963305276866077
29,337.211939876419761913401236659665927,336.0,1.211939876419761913401236659665927
30,360.818806636220761031212279120461288,359.6,1.218806636220761031212279120461288
31,385.225446175824910885559509416299337,384.0,1.225446175824910885559509416299337
32,410.431873081543924418657730451954137,409.2,1.231873081543924418657730451954137
33,436.438100576997329872605009567848332,435.2,1.238100576997329872605009567848332
34,463.244140687877120821553931942500688,462.0,1.244140687877120821553931942500688
35,490.850004382526559566490279460883594,489.6,1.250004382526559566490279460883594
36,519.255701692473388339545968500515591,518.0,1.255701692473388339545968500515591
37,548.461241816253618212623988041808813,547.2,1.261241816253618212623988041808813
38,578.466633209231646859190987940284618,577.2,1.266633209231646859190987940284618
39,609.271883661624607666430939993186729,608.0,1.271883661624607666430939993186729
40,640.877000366543031909742034803686807,639.6,1.277000366543031909742034803686807
41,673.281989979543155426532988441224146,672.0,1.281989979543155426532988441224146
42,706.486858670931208623743722907244161,705.2,1.286858670931208623743722907244161
43,740.491612171853542307785948438794841,739.2,1.291612171853542307785948438794841
44,775.296255815038347809447826571695196,774.0,1.296255815038347809447826571695196
45,810.900794570917160306793176371457178,809.6,1.300794570917160306793176371457178
46,847.305233079741197966077840877016029,846.0,1.305233079741197966077840877016029
47,884.509575680214112908039464260092079,883.2,1.309575680214112908039464260092079
48,922.513826435085143642400252522434469,921.2,1.313826435085143642400252522434469
49,961.317989154081996069306767621626521,960.0,1.317989154081996069306767621626521
50,1000.92206741450865743260102811499443,999.6,1.32206741450865743260102811499443
51,1041.32606457978788064720221083179591,1040.0,1.32606457978788064720221083179591
52,1082.52998381618973120846180350360238,1081.2,1.32998381618973120846180350360238
53,1124.53382810795513877271601890535533,1123.2,1.33382810795513877271601890535533
54,1167.33760027099583436672819107596740,1166.0,1.33760027099583436672819107596740
55,1210.94130296532857869114191328353387,1209.6,1.34130296532857869114191328353387
56,1255.34493870638151241289238812960512,1254.0,1.34493870638151241289238812960512
57,1300.54850987529326037636845554005326,1299.2,1.34850987529326037636845554005326
58,1346.55201872831062447680015602983325,1345.2,1.35201872831062447680015602983325
59,1393.35546740537794599204807193933652,1392.0,1.35546740537794599204807193933652
60,1440.95885793800019366125729281358352,1439.6,1.35885793800019366125729281358352
61,1489.36219225645226957132446802074671,1488.0,1.36219225645226957132446802074671
62,1538.56547219639872390701023951533622,1537.2,1.36547219639872390701023951533622
63,1588.56869950498082773150683283189945,1587.2,1.36869950498082773150683283189945
64,1639.37187584642164048435414010939269,1638.0,1.37187584642164048435414010939269
65,1690.97500280719417404363212381089308,1689.6,1.37500280719417404363212381089308
66,1743.37808190079290786031031349426269,1742.0,1.37808190079290786031031349426269
67,1796.58111457214464738132398679677350,1795.2,1.38111457214464738132398679677350
68,1850.58410220169096181715024181617521,1849.2,1.38410220169096181715024181617521
69,1905.38704610917112463894932445610675,1904.0,1.38704610917112463894932445610675
70,1960.98994755713155192208542549482792,1959.6,1.38994755713155192208542549482792
71,2017.39280775418513494913639730243186,2016.0,1.39280775418513494913639730243186
72,2074.59562785804156524313594093969480,2073.2,1.39562785804156524313594093969480
73,2132.59840897832769719541742559331085,2131.2,1.39840897832769719541742559331085
74,2191.40115217921517460389400650829859,2190.0,1.40115217921517460389400650829859
75,2251.00385848187091633653634640967237,2249.6,1.40385848187091633653634640967237
76,2311.40652886674460677807598432329363,2310.0,1.40652886674460677807598432329363
77,2372.60916427570603431957585658648252,2371.2,1.40916427570603431957585658648252
78,2434.61176561404395535235515249679075,2433.2,1.41176561404395535235515249679075
79,2497.41433375233711440779484048702198,2496.0,1.41433375233711440779484048702198
80,2561.01686952820711295893406596010209,2559.6,1.41686952820711295893406596010209
81,2625.41937374796197005832679563884629,2624.0,1.41937374796197005832679563884629
82,2690.62184718813845653610376203143641,2689.2,1.42184718813845653610376203143641
83,2756.62429059695059574843123382239904,2755.2,1.42429059695059574843123382239904
84,2823.42670469565109957487656410683407,2822.0,1.42670469565109957487656410683407
85,2891.02909017981194908705305115356655,2889.6,1.42909017981194908705305115356655
86,2959.43144772052981344556334415562459,2958.0,1.43144772052981344556334415562459
87,3028.63377796556154311150189117647572,3027.2,1.43377796556154311150189117647572
88,3098.63608154039455008107746666251624,3097.2,1.43608154039455008107746666251624
89,3169.43835904925650434979773619533410,3168.0,1.43835904925650434979773619533410
90,3241.04061107606843259596929383339194,3239.6,1.44061107606843259596929383339194
91,3313.44283818534498362126024831317140,3312.0,1.44283818534498362126024831317140
92,3386.64504092304533678857480871967638,3385.2,1.44504092304533678857480871967638
93,3460.64721981737796744248128650688485,3459.2,1.44721981737796744248128650688485
94,3535.44937537956224036874202885947939,3534.0,1.44937537956224036874202885947939
95,3611.05150810454958119551280994164057,3609.6,1.45150810454958119551280994164057
96,3687.45361847170677381671114432525691,3686.0,1.45361847170677381671114432525691
97,3764.65570694546374757599598994183183,3763.2,1.45570694546374757599598994183183
98,3842.65777397592804507555382617551987,3841.2,1.45777397592804507555382617551987
99,3921.45981999946800800175610389752369,3920.0,1.45981999946800800175610389752369
100,4001.06184543926657201938533351784808,3999.6,1.46184543926657201938533351784808
101,4081.46385070584743248203343661719462,4080.0,1.46385070584743248203343661719462
102,4162.66583619757521713160969988236964,4161.2,1.46583619757521713160969988236964
103,4244.66780230113119404634152080495475,4243.2,1.46780230113119404634152080495475
104,4327.46974939196593583200575361556724,4326.0,1.46974939196593583200575361556724
105,4411.07167783473026797742664689122499,4409.6,1.47167783473026797742664689122499
106,4495.47358798368573853110316278823395,4494.0,1.47358798368573853110316278823395
107,4580.67548018309576817393597700157606,4579.2,1.47548018309576817393597700157606
108,4666.67735476759856052353611678267670,4665.2,1.47735476759856052353611678267670
109,4753.47921206256278391213707752187057,4752.0,1.47921206256278391213707752187057
110,4841.08105238442697346007341538265379,4839.6,1.48105238442697346007341538265379
111,4929.48287604102353640566710518185945,4928.0,1.48287604102353640566710518185945
112,5018.68468333188819421880262845015782,5017.2,1.48468333188819421880262845015782
113,5108.68647454855563948975648975667609,5107.2,1.48647454855563948975648975667609
114,5199.48824997484213682717024410902425,5198.0,1.48824997484213682717024410902425
115,5291.09000988711575655063314970213420,5289.6,1.49000988711575655063314970213420
116,5383.49175455455488163177924132604715,5382.0,1.49175455455488163177924132604715
117,5476.69348423939559662488170777348277,5475.2,1.49348423939559662488170777348277
118,5570.69519919716852629691087611933513,5569.2,1.49519919716852629691087611933513
119,5665.49689967692565795339699505997950,5664.0,1.49689967692565795339699505997950
120,5761.09858592145765561429961339503026,5759.6,1.49858592145765561429961339503026
121,5857.50025816750213592693537759712347,5856.0,1.50025816750213592693537759712347
122,5954.70191664594335678998535829084096,5953.2,1.50191664594335678998535829084096
123,6052.70356158200373746977035817723463,6051.2,1.50356158200373746977035817723463
124,6151.50519319542761131028179761626076,6150.0,1.50519319542761131028179761626076
125,6251.10681170065758257229991510417434,6249.6,1.50681170065758257229991510417434
126,6351.50841730700384373974491234799477,6350.0,1.50841730700384373974491234799477
127,6452.71001021880678905363482183298893,6451.2,1.51001021880678905363482183298893
128,6554.71159063559323744695245125609972,6553.2,1.51159063559323744695245125609972
129,6657.51315875222656598060690772155231,6656.0,1.51315875222656598060690772155231
130,6761.11471475905103649893240613764150,6759.6,1.51471475905103649893240613764150
131,6865.51625884203058281917881236276986,6864.0,1.51625884203058281917881236276986
132,6970.71779118288231079238191519757382,6969.2,1.51779118288231079238191519757382
133,7076.71931195920495179154568010268781,7075.2,1.51931195920495179154568010268781
134,7183.52082134460249890726384864331679,7182.0,1.52082134460249890726384864331679
135,7291.12231950880323702269930356853673,7289.6,1.52231950880323702269930356853673
136,7399.52380661777437425246189865350050,7398.0,1.52380661777437425246189865350050
137,7508.72528283383246892213926388129841,7507.2,1.52528283383246892213926388129841
138,7618.72674831574983265339653847227029,7617.2,1.52674831574983265339653847227029
139,7729.52820321885708801382332539329890,7728.0,1.52820321885708801382332539329890
140,7841.12964769514204374490562532102752,7839.6,1.52964769514204374490562532102752
141,7953.53108189334504602417852118406418,7952.0,1.53108189334504602417852118406418
142,8066.73250595905095614453555063111693,8065.2,1.53250595905095614453555063111693
143,8180.73392003477789634367882903878186,8179.2,1.53392003477789634367882903878186
144,8295.53532426006289833724998765385727,8294.0,1.53532426006289833724998765385727
145,8411.13671877154458492161498682716114,8409.6,1.53671877154458492161498682716114
146,8527.53810370304300714373442942966352,8526.0,1.53810370304300714373442942966352
147,8644.73947918563675133278471640621003,8643.2,1.53947918563675133278471640621003
148,8762.74084534773743133037995822580265,8761.2,1.54084534773743133037995822580265
149,8881.54220231516166772839616547268942,8880.0,1.54220231516166772839616547268942
150,9001.14355021120065776354097953218124,8999.6,1.54355021120065776354097953218124
151,9121.54488915668743179143527767599928,9120.0,1.54488915668743179143527767599928
152,9242.74621927006188664812296503559886,9241.2,1.54621927006188664812296503559886
153,9364.74754066743368485770415667428405,9363.2,1.54754066743368485770415667428405
154,9487.54885346264310359459238674778893,9486.0,1.54885346264310359459238674778893
155,9611.15015776731991164591524443479137,9609.6,1.55015776731991164591524443479137
156,9735.55145369094035225022562750926596,9734.0,1.55145369094035225022562750926596
157,9860.75274134088230286920959768408933,9859.2,1.55274134088230286920959768408933
158,9986.75402082247868372087830196629583,9985.2,1.55402082247868372087830196629583
159,10113.5552922390691787577590691188602,10112.0,1.5552922390691787577590691188602
160,10241.1565556920503354386249097628418,10239.6,1.5565556920503354386249097628418
161,10369.5578112809241018012052519564981,10368.0,1.5578112809241018012052519564981
162,10498.7590591033448603086370824103186,10497.2,1.5590591033448603086370824103186
163,10628.7602992551650133349568853541696,10627.2,1.5602992551650133349568853541696
164,10759.5615318304791749385950050727342,10758.0,1.5615318304791749385950050727342
165,10891.1627569216670175368212752859831,10889.6,1.5627569216670175368212752859831
166,11023.5639746194348240098415203827249,11022.0,1.5639746194348240098415203827249
167,11156.7651850128557924803799050770137,11155.2,1.5651850128557924803799050770137
168,11290.7663881894091364715784411244885,11289.2,1.5663881894091364715784411244885
169,11425.5675842350180255196435575489687,11424.0,1.5675842350180255196435575489687
170,11561.1687732340864059991404599845549,11559.6,1.5687732340864059991404599845549
171,11697.5699552695347423706231953566815,11696.0,1.5699552695347423706231953566815
172,11834.7711304228347167329624514999940,11833.2,1.5711304228347167329624514999940
173,11972.7722987740429220988811583534766,11971.2,1.5722987740429220988811583534766
174,12111.5734604018335852539039277177229,12110.0,1.5734604018335852539039277177229
175,12251.1746153835303532008495770873348,12249.6,1.5746153835303532008495770873348
176,12391.5757637951371729139675250514500,12390.0,1.5757637951371729139675250514500
177,12532.7769057113682976815471318000112,12531.2,1.5769057113682976815471318000112
178,12674.7780412056774492102670769850022,12673.2,1.5780412056774492102670769850022
179,12817.5791703502861619557016019390370,12816.0,1.5791703502861619557016019390370
180,12961.1802932162113406454639464652350,12959.6,1.5802932162113406454639464652350
181,13105.5814098732920536642950774652626,13104.0,1.5814098732920536642950774652626
182,13250.7825203902155900178705730762733,13249.2,1.5825203902155900178705730762733
183,13396.7836248345428029466685158210371,13395.2,1.5836248345428029466685158210371
184,13543.5847232727327644542144420801696,13542.0,1.5847232727327644542144420801696
185,13691.1858157701667525813502202154379,13689.6,1.5858157701667525813502202154379
186,13839.5869023911715924194164757998337,13838.0,1.5869023911715924194164757998337
187,13988.7879831990423746879292689083156,13987.2,1.5879831990423746879292689083156
188,14138.7890582560645673389505587989762,14137.2,1.5890582560645673389505587989762
189,14289.5901276235355439459888941584351,14288.0,1.5901276235355439459888941584351
190,14441.1911913617855445561260704521100,14439.6,1.5911913617855445561260704521100
191,14593.5922495301980882564631207854707,14592.0,1.5922495301980882564631207854707
192,14746.7933021872298538665758205698282,14745.2,1.5933021872298538665758205698282
193,14900.7943493904300470912964235536169,14899.2,1.5943493904300470912964235536169
194,15055.5953911964592675061032622600481,15054.0,1.5953911964592675061032622600481
195,15211.1964276611078933400281347006602,15209.6,1.5964276611078933400281347006602
196,15367.5974588393139977816409019612544,15366.0,1.5974588393139977816409019612544
197,15524.7984847851808112182308121786081,15523.2,1.5984847851808112182308121786081
198,15682.7995055519937436061551819731876,15681.2,1.5995055519937436061551819731876
199,15841.6005211922369798434319585657737,15840.0,1.6005211922369798434319585657737
200,16001.2015317576096621232777683914386,15999.6,1.6015317576096621232777683914386
201,16161.6025372990416702848444911416552,16160.0,1.6025372990416702848444911416552
202,16322.8035378667090135785330552879407,16321.2,1.6035378667090135785330552879407
203,16484.8045335100488445432567752867460,16483.2,1.6045335100488445432567752867460
204,16647.6055242777741066547160520877067,16646.0,1.6055242777741066547160520877067
205,16811.2065102178878257557401273303158,16809.6,1.6065102178878257557401273303158
206,16975.6074913776970583347638178320039,16974.0,1.6074913776970583347638178320039
207,17140.8084678038265025721106412493839,17139.2,1.6084678038265025721106412493839
208,17306.8094395422317864262871689640820,17305.2,1.6094395422317864262871689640820
209,17473.6104066382124385557338040967224,17472.0,1.6104066382124385557338040967224
210,17641.2113691364245536261340619079227,17639.6,1.6113691364245536261340619079227
211,17809.6123270808931594187425478411328,17808.0,1.6123270808931594187425478411328
212,17978.8132805150242960253677744879963,17977.2,1.6132805150242960253677744879963
213,18148.8142294816168115685891806378448,18147.2,1.6142294816168115685891806378448
214,18319.6151740228738894857785813417885,18318.0,1.6151740228738894857785813417885
215,18491.2161141804143066483745073095790,18489.6,1.6161141804143066483745073095790
216,18663.6170499952834363384899607698101,18662.0,1.6170499952834363384899607698101
217,18836.8179815079640001120314803027389,18835.2,1.6179815079640001120314803027389
218,19010.8189087583865775935549908251294,19009.2,1.6189087583865775935549908251294
219,19185.6198317859398775512813670929982,19184.0,1.6198317859398775512813670929982
220,19361.2207506294807828387489798561034,19359.6,1.6207506294807828387489798561034
221,19537.6216653273441671867214774763107,19536.0,1.6216653273441671867214774763107
222,19714.8225759173525011271171334729997,19713.2,1.6225759173525011271171334729997
223,19892.8234824368252406974724638364050,19891.2,1.6234824368252406974724638364050
224,20071.6243849225880140762373826968842,20070.0,1.6243849225880140762373826968842
225,20251.2252834109816088000244239762546,20249.6,1.6252834109816088000244239762546
226,20431.6261779378707631989574631854590,20430.0,1.6261779378707631989574631854590
227,20612.8270685386527707950506074573994,20611.2,1.6270685386527707950506074573994
228,20794.8279552482658995798849340681219,20793.2,1.6279552482658995798849340681219
229,20977.6288381011976334339961678491645,20976.0,1.6288381011976334339961678491645
230,21161.2297171314927404888496677745233,21159.6,1.6297171314927404888496677745233
231,21345.6305923727611703398806845405019,21344.0,1.6305923727611703398806845405019
232,21530.8314638581857906435109191171044,21529.2,1.6314638581857906435109191171044
233,21716.8323316205299582126212388712926,21715.2,1.6323316205299582126212388712926
234,21903.6331956921449408907749761333441,21902.0,1.6331956921449408907749761333441
235,22091.2340561049771835159525624929828,22089.6,1.6340561049771835159525624929828
236,22279.6349128905754278179720802790249,22278.0,1.6349128905754278179720802790249
237,22468.8357660800976900211102827156042,22467.2,1.6357660800976900211102827156042
238,22658.8366157043180980405772639154615,22657.2,1.6366157043180980405772639154615
