Eigenstate,Energy,Kinetic Energy,Potential Energy
1,0.500000000062016408259206315354288744,0.0,0.500000000062016408259206315354288744
2,1.84623093805592581211077036776207026,1.2,0.64623093805592581211077036776207026
3,3.93633761089407750678145136873097323,3.2,0.73633761089407750678145136873097323
4,6.79966528029100710665774728628476958,6.0,0.79966528029100710665774728628476958
5,10.4480465795759662155378657575067617,9.6,0.8480465795759662155378657575067617
6,14.8870660035091050090649480011046045,14.0,0.8870660035091050090649480011046045
7,20.1197208335311722787296419949146763,19.2,0.9197208335311722787296419949146763
8,26.1477838560204854913697865402890398,25.2,0.9477838560204854913697865402890398
9,32.9723835699841350879760078965873381,32.0,0.9723835699841350879760078965873381
10,40.5942802295712197382078291532489535,39.6,0.9942802295712197382078291532489535
11,49.0140094049231507740491229361719915,48.0,1.0140094049231507740491229361719915
12,58.2319621913448425868959643536150943,57.2,1.0319621913448425868959643536150943
13,68.2484327189023364189080962932437218,67.2,1.0484327189023364189080962932437218
14,79.0636476852789803040419180173727423,78.0,1.0636476852789803040419180173727423
15,90.6777854715896250616332236330697326,89.6,1.0777854715896250616332236330697326
16,103.090988947251076407307019031675028,102.0,1.090988947251076407307019031675028
17,116.303374303443603971839587688110386,115.2,1.103374303443603971839587688110386
18,130.315037304117143993338272857971596,129.2,1.115037304117143993338272857971596
19,145.126057809095279227727049554654664,144.0,1.126057809095279227727049554654664
20,160.736503111709177055290227835948182,159.6,1.136503111709177055290227835948182
21,177.146430444879287888409412927792683,176.0,1.146430444879287888409412927792683
22,194.355888892274086227766212237511713,193.2,1.155888892274086227766212237511713
23,212.364920866246596020925543888041786,211.2,1.164920866246596020925543888041786
24,231.173563265234813365254153000977088,230.0,1.173563265234813365254153000977088
25,250.781848390557633325795463298908766,249.6,1.181848390557633325795463298908766
26,271.189804680222438024579388242742487,270.0,1.189804680222438024579388242742487
27,292.397457301887672748757966150130302,291.2,1.197457301887672748757966150130302
28,314.404828636221886010438443555643220,313.2,1.204828636221886010438443555643220
29,337.211938674105681665835740323177140,336.0,1.211938674105681665835740323177140
30,360.818805345473543629430562479594128,359.6,1.218805345473543629430562479594128
31,385.225444793446555216858537572482289,384.0,1.225444793446555216858537572482289
32,410.431871604329135564174050198696295,409.2,1.231871604329135564174050198696295
33,436.438099001733267766017653361074608,435.2,1.238099001733267766017653361074608
34,463.244139011343147108342032537533556,462.0,1.244139011343147108342032537533556
35,490.850002601493982705128056393061070,489.6,1.250002601493982705128056393061070
36,519.255699803705206969589237208388777,518.0,1.255699803705206969589237208388777
37,548.461239816504262801563356067035375,547.2,1.261239816504262801563356067035375
38,578.466631095246719629437669290153643,577.2,1.266631095246719629437669290153643
39,609.271881430140620795276824623582807,608.0,1.271881430140620795276824623582807
40,640.876998014287143988155952094577346,639.6,1.276998014287143988155952094577346
41,673.281987503232906156886830443591769,672.0,1.281987503232906156886830443591769
42,706.486856067274251731747351643358757,705.2,1.286856067274251731747351643358757
43,740.491609437547376639851797915050868,739.2,1.291609437547376639851797915050868
44,775.296252946770046583251176533176389,774.0,1.296252946770046583251176533176389
45,810.900791565363098479821319700453129,809.6,1.300791565363098479821319700453129
46,847.305229933566777684375763157349257,846.0,1.305229933566777684375763157349257
47,884.509572390073486995087255484594067,883.2,1.309572390073486995087255484594067
48,922.513822997620937086036554735348086,921.2,1.313822997620937086036554735348086
49,961.317985565925025462796693229981729,960.0,1.317985565925025462796693229981729
50,1000.92206367227764832429643375250481,999.6,1.32206367227764832429643375250481
51,1041.32606068008918275172501561640064,1040.0,1.32606068008918275172501561640064
52,1082.52997975561703143093326085643714,1081.2,1.32997975561703143093326085643714
53,1124.53382388308917199623380504388250,1123.2,1.33382388308917199623380504388250
54,1167.33759587840409195204197477742664,1166.0,1.33759587840409195204197477742664
55,1210.94129840156501463628252565876461,1209.6,1.34129840156501463628252565876461
56,1255.34493396798624711935872026603029,1254.0,1.34493396798624711935872026603029
57,1300.54850495879228196735800118727315,1299.2,1.34850495879228196735800118727315
58,1346.55201363021548761187527840509365,1345.2,1.35201363021548761187527840509365
59,1393.35546212218546812155707538812856,1392.0,1.35546212218546812155707538812856
60,1440.95885246619214866276605487485324,1439.6,1.35885246619214866276605487485324
61,1489.36218659249507870925896182517837,1488.0,1.36218659249507870925896182517837
62,1538.56546633674314405565651800259078,1537.2,1.36546633674314405565651800259078
63,1588.56869344606163680046170217148553,1587.2,1.36869344606163680046170217148553
64,1639.37186958465731998445998480228364,1638.0,1.37186958465731998445998480228364
65,1690.97499633898658873036142813341094,1689.6,1.37499633898658873036142813341094
66,1743.37807522252698239048952859051511,1742.0,1.37807522252698239048952859051511
67,1796.58110768018803991799534334070648,1795.2,1.38110768018803991799534334070648
68,1850.58409509239373451626625163230954,1849.2,1.38409509239373451626625163230954
69,1905.38703877886541095047155577961666,1904.0,1.38703877886541095047155577961666
70,1960.98994000213122063692225268112317,1959.6,1.38994000213122063692225268112317
71,2017.39279997078545092219140344534261,2016.0,1.39279997078545092219140344534261
72,2074.59561984251884672156063346916117,2073.2,1.39561984251884672156063346916117
73,2132.59840072693896967995513470313094,2131.2,1.39840072693896967995513470313094
74,2191.40114368819782116997602603667804,2190.0,1.40114368819782116997602603667804
75,2251.00384974744232434053595710726897,2249.6,1.40384974744232434053595710726897
76,2311.40651988510181087284812265123484,2310.0,1.40651988510181087284812265123484
77,2372.60915504302535570210077255176739,2371.2,1.40915504302535570210077255176739
78,2434.61175612648063716496877103953369,2433.2,1.41175612648063716496877103953369
79,2497.41432400602495321312145712998948,2496.0,1.41432400602495321312145712998948
80,2561.01685951925808620724125305097546,2559.6,1.41685951925808620724125305097546
81,2625.41936347246585946459104064653999,2624.0,1.41936347246585946459104064653999
82,2690.62183664216246728261445231549605,2689.2,1.42183664216246728261445231549605
83,2756.62427977653897142726349538990769,2755.2,1.42427977653897142726349538990769
84,2823.42669359682473278303178293664187,2822.0,1.42669359682473278303178293664187
85,2891.02907879856798758549784677580690,2889.6,1.42907879856798758549784677580690
86,2959.43143605284126179179348207910071,2958.0,1.43143605284126179179348207910071
87,3028.63376600737685967361245956987670,3027.2,1.43376600737685967361245956987670
88,3098.63606928763723933963883153166649,3097.2,1.43606928763723933963883153166649
89,3169.43834649782470439211273767845822,3168.0,1.43834649782470439211273767845822
90,3241.04059822183449770552221834483810,3239.6,1.44059822183449770552221834483810
91,3313.44282502415506186335893603456672,3312.0,1.44282502415506186335893603456672
92,3386.64502745071894249133635197252441,3385.2,1.44502745071894249133635197252441
93,3460.64720602970754847041346903844218,3459.2,1.44720602970754847041346903844218
94,3535.44936127231274008422904066181536,3534.0,1.44936127231274008422904066181536
95,3611.05149367345799500152216972962773,3609.6,1.45149367345799500152216972962773
96,3687.45360371248170017199865754874177,3686.0,1.45360371248170017199865754874177
97,3764.65569185378493337199325458799149,3763.2,1.45569185378493337199325458799149
98,3842.65775854744592526198265418002135,3841.2,1.45775854744592526198265418002135
99,3921.45980422980323934581568124272780,3920.0,1.45980422980323934581568124272780
100,4001.06182932400956088111042803908652,3999.6,1.46182932400956088111042803908652
101,4081.46383424055785648611415178543518,4080.0,1.46383424055785648611415178543518
102,4162.66581937778154061360030923564134,4161.2,1.46581937778154061360030923564134
103,4244.66778512233017714876438586475154,4243.2,1.46778512233017714876438586475154
104,4327.46973184962213712337018660895900,4326.0,1.46973184962213712337018660895900
105,4411.07165992427554046464064231733976,4409.6,1.47165992427554046464064231733976
106,4495.47356970051871893314414746182075,4494.0,1.47356970051871893314414746182075
107,4580.67546152258135932197177475984810,4579.2,1.47546152258135932197177475984810
108,4666.67733572506740674994651976358919,4665.2,1.47733572506740674994651976358919
109,4753.47919263331073928807147783910667,4752.0,1.47919263331073928807147783910667
110,4841.08103256371456273829904050916888,4839.6,1.48103256371456273829904050916888
111,4929.48285582407540852250443380593658,4928.0,1.48285582407540852250443380593658
112,5018.68466271389256820591385962274286,5017.2,1.48466271389256820591385962274286
113,5108.68645352466374264344325084545430,5107.2,1.48645352466374264344325084545430
114,5199.48822854016763497964739064784265,5198.0,1.48822854016763497964739064784265
115,5291.08998803673417628447670871089488,5289.6,1.48998803673417628447670871089488
116,5383.49173228350302427539091435602938,5382.0,1.49173228350302427539091435602938
117,5476.69346154267094386337189571258229,5475.2,1.49346154267094386337189571258229
118,5570.69517606972863722927266831186677,5569.2,1.49517606972863722927266831186677
119,5665.49687611368755742322328857765008,5664.0,1.49687611368755742322328857765008
120,5761.09856191729721363757939082642859,5759.6,1.49856191729721363757939082642859
121,5857.50023371725343803665503837114081,5856.0,1.50023371725343803665503837114081
122,5954.70189174439806511334873803249567,5953.2,1.50189174439806511334873803249567
123,6052.70353622391044234983974404009243,6051.2,1.50353622391044234983974404009243
124,6151.50516737549117327972285791906287,6150.0,1.50516737549117327972285791906287
125,6251.10678541353846448268735355941892,6249.6,1.50678541353846448268735355941892
126,6351.50839054731743284554782583480532,6350.0,1.50839054731743284554782583480532
127,6452.70998298112270884554847144948538,6451.2,1.50998298112270884554847144948538
128,6554.71156291443464902467280386288723,6553.2,1.51156291443464902467280386288723
129,6657.51313054206945875045237462895913,6656.0,1.51313054206945875045237462895913
130,6761.11468605432350797690115483017064,6759.6,1.51468605432350797690115483017064
131,6865.51622963711210731508407465809583,6864.0,1.51622963711210731508407465809583
132,6970.71776147210299674562804695004318,6969.2,1.51776147210299674562804695004318
133,7076.71928173684478752389867621279721,7075.2,1.51928173684478752389867621279721
134,7183.52079060489058655260876993329912,7182.0,1.52079060489058655260876993329912
135,7291.12228824591701438828101828957794,7289.6,1.52228824591701438828101828957794
136,7399.52377482583882436045747303832553,7398.0,1.52377482583882436045747303832553
137,7508.72525050691931697460505311693882,7507.2,1.52525050691931697460505311693882
138,7618.72671544787673015767562355009924,7617.2,1.52671544787673015767562355009924
139,7729.52816980398678379937378152069377,7728.0,1.52816980398678379937378152069377
140,7841.12961372718154159621714131699695,7839.6,1.52961372718154159621714131699695
141,7953.53104736614474864798419714763865,7952.0,1.53104736614474864798419714763865
142,8066.73247086640379518287797578026214,8065.2,1.53247086640379518287797578026214
143,8180.73388437041844813756415012118716,8179.2,1.53388437041844813756415012118716
144,8295.53528801766648513860593426505084,8294.0,1.53528801766648513860593426505084
145,8411.13668194472636124405841996477446,8409.6,1.53668194472636124405841996477446
146,8527.53806628535703093523481765481852,8526.0,1.53806628535703093523481765481852
147,8644.73944117057503964569085816514986,8643.2,1.53944117057503964569085816514986
148,8762.74080672872900015644032078146842,8761.2,1.54080672872900015644032078146842
149,8881.54216308557155565834087342875613,8880.0,1.54216308557155565834087342875613
150,9001.14351036432893312251156000199997,8999.6,1.54351036432893312251156000199997
151,9121.54484868576818289302085583986585,9120.0,1.54484868576818289302085583986585
152,9242.74617816826219480099817710223894,9241.2,1.54617816826219480099817710223894
153,9364.74749892785257974984655400004409,9363.2,1.54749892785257974984655400004409
154,9487.54881107831050067078111631090526,9486.0,1.54881107831050067078111631090526
155,9611.15011473119553108466941967654813,9609.6,1.55011473119553108466941967654813
156,9735.55140999591261913651922275259043,9734.0,1.55140999591261913651922275259043
157,9860.75269697976722814919896028855172,9859.2,1.55269697976722814919896028855172
158,9986.75397578801872551447483421171196,9985.2,1.55397578801872551447483421171196
159,10113.5552465239320835941796155404395,10112.0,1.5552465239320835941796155404395
160,10241.1565092888279589690333415488235,10239.6,1.5565092888279589690333415488235
161,10369.5577641821312085312169841997359,10368.0,1.5577641821312085312169841997359
162,10498.7590113014179018817811434597163,10497.2,1.5590113014179018817811434597163
163,10628.7602507424608848861692304157422,10627.2,1.5602507424608848861692304157422
164,10759.5614825992739490244314186487754,10758.0,1.5614825992739490244314186487754
165,10891.1627069641546551363275614610712,10889.6,1.5627069641546551363275614610712
166,11023.5639239277258620768885925360754,11022.0,1.5639239277258620768885925360754
167,11156.7651335789760075147373184241776,11155.2,1.5651335789760075147373184241776
168,11290.7663360052981835620632913989025,11289.2,1.5663360052981835620632913989025
169,11425.5675312925280522983234435508232,11424.0,1.5675312925280522983234435508232
170,11561.1687195249806409307663254662678,11559.6,1.5687195249806409307663254662678
171,11697.5699007854860567862216934318458,11696.0,1.5699007854860567862216934318458
172,11834.7710751554241600007957779373269,11833.2,1.5710751554241600007957779373269
173,11972.7722427147582293097845087773165,11971.2,1.5722427147582293097845087773165
174,12111.5734035420676567813010850101795,12110.0,1.5734035420676567813010850101795
175,12251.1745577145797054785329264671994,12249.6,1.5745577145797054785329264671994
176,12391.5757053082003597569633826401428,12390.0,1.5757053082003597569633826401428
177,12532.7768463975443014570779479043300,12531.2,1.5768463975443014570779479043300
178,12674.7779810559640411469340976042979,12673.2,1.5779810559640411469340976042979
179,12817.5791093555782308595231539398067,12816.0,1.5791093555782308595231539398067
180,12961.1802313672991892713062280511754,12959.6,1.5802313672991892713062280511754
181,13105.5813471608596619704933047002357,13104.0,1.5813471608596619704933047002357
182,13250.7824568048388445104341829921997,13249.2,1.5824568048388445104341829921997
183,13396.7835603666876912973785441062963,13395.2,1.5835603666876912973785441062963
184,13543.5846579127535345541246687141553,13542.0,1.5846579127535345541246687141553
185,13691.1857495083040351676638914330901,13689.6,1.5857495083040351676638914330901
186,13839.5868352175504863894233030430960,13838.0,1.5868352175504863894233030430960
187,13988.7879151036704941885885441832120,13987.2,1.5879151036704941885885441832120
188,14138.7889892288300496948045290952724,14137.2,1.5889892288300496948045290952724
189,14289.5900576542050174613258216430180,14288.0,1.5900576542050174613258216430180
190,14441.1911204400020551996753038524553,14439.6,1.5911204400020551996753038524553
191,14593.5921776454789842083437999990343,14592.0,1.5921776454789842083437999990343
192,14746.7932293289646268777140209440471,14745.2,1.5932293289646268777140209440471
193,14900.7942755478781295750364481589834,14899.2,1.5942755478781295750364481589834
194,15055.5953163587477842502196823420746,15054.0,1.5953163587477842502196823420746
195,15211.1963518172293666947727277082529,15209.6,1.5963518172293666947727277082529
196,15367.5973819781240051457782119734050,15366.0,1.5973819781240051457782119734050
197,15524.7984068953955936101960813121251,15523.2,1.5984068953955936101960813121251
198,15682.7994266221877640714548318672030,15681.2,1.5994266221877640714548318672030
199,15841.6004412108404304121635180445222,15840.0,1.6004412108404304121635180445222
200,16001.2014507129059179931210998963162,15999.6,1.6014507129059179931210998963162
201,16161.6024551791646898650202088633407,16160.0,1.6024551791646898650202088633407
202,16322.8034546596406829889734477877768,16321.2,1.6034546596406829889734477877768
203,16484.8044492036162651205618412460552,16483.2,1.6044492036162651205618412460552
204,16647.6054388596468239722850613118908,16646.0,1.6054388596468239722850613118908
205,16811.2064236755749986197431557446323,16809.6,1.6064236755749986197431557446323
206,16975.6074036985445661702652557930893,16974.0,1.6074036985445661702652557930893
207,17140.8083789750139895646295313212082,17139.2,1.6083789750139895646295313212082
208,17306.8093495507696407332971803600878,17305.2,1.6093495507696407332971803600878
209,17473.6103154709387048500077857603295,17472.0,1.6103154709387048500077857603295
210,17641.2112767800017771783540961556792,17639.6,1.6112767800017771783540961556792
211,17809.6122335218051598703121042631291,17808.0,1.6122335218051598703121042631291
212,17978.8131857395728689438686831659145,17977.2,1.6131857395728689438686831659145
213,18148.8141334759183558176547683909961,18147.2,1.6141334759183558176547683909961
214,18319.6150767728559583782876526601672,18318.0,1.6150767728559583782876526601672
215,18491.2160156718120807866683638640636,18489.6,1.6160156718120807866683638640636
216,18663.6169502136361159777052062215624,18662.0,1.6169502136361159777052062215624
217,18836.8178804386111148125201672596690,18835.2,1.6178804386111148125201672596690
218,19010.8188063864642108556024544435612,19009.2,1.6188063864642108556024544435612
219,19185.6197280963768040498605604616935,19184.0,1.6197280963768040498605604616935
220,19361.2206456069945157977146256855227,19359.6,1.6206456069945157977146256855227
221,19537.6215589564369133505347526045664,19536.0,1.6215589564369133505347526045664
222,19714.8224681823070207038058734074390,19713.2,1.6224681823070207038058734074390
223,19892.8233733217006095588658782764931,19891.2,1.6233733217006095588658782764931
224,20071.6242744112152854105309410529823,20070.0,1.6242744112152854105309410529823
225,20251.2251714869593713171667635242696,20249.6,1.6251714869593713171667635242696
226,20431.6260645845605928911627819055167,20430.0,1.6260645845605928911627819055167
227,20612.8269537391745731526716191805419,20611.2,1.6269537391745731526716191805419
228,20794.8278389854931390568312786678128,20793.2,1.6278389854931390568312786678128
229,20977.6287203577524468466290419805747,20976.0,1.6287203577524468466290419805747
230,21161.2295978897409309176614037729812,21159.6,1.6295978897409309176614037729812
231,21345.6304716148070779840707558293192,21344.0,1.6304716148070779840707558293192
232,21530.8313415658670369545882879927931,21529.2,1.6313415658670369545882879927931
233,21716.8322077754120595041992844995602,21715.2,1.6322077754120595041992844995602
234,21903.6330702755157874875055825122209,21902.0,1.6330702755157874875055825122209
235,22091.2339290978413803648971829441187,22089.6,1.6339290978413803648971829441187
236,22279.6347842736484923403109367836739,22278.0,1.6347842736484923403109367836739
237,22468.8356358338001028307155333642408,22467.2,1.6356358338001028307155333642408
238,22658.8364838087692019983435219988483,22657.2,1.6364838087692019983435219988483
