Eigenstate,Energy,Kinetic Energy,Potential Energy
1,0.500000000188484250331460821070999595,0.0,0.500000000188484250331460821070999595
2,1.84623093888144951248778999026647554,1.2,0.64623093888144951248778999026647554
3,3.93633761331902112898719932990062483,3.2,0.73633761331902112898719932990062483
4,6.79966528534198584461254609656363127,6.0,0.79966528534198584461254609656363127
5,10.4480465883255114592015308708524329,9.6,0.8480465883255114592015308708524329
6,14.8870660170486559658264494082300184,14.0,0.8870660170486559658264494082300184
7,20.1197208529611456958713032592946701,19.2,0.9197208529611456958713032592946701
8,26.1477838824461537777256265342085172,25.2,0.9477838824461537777256265342085172
9,32.9723836045137275210407638398650230,32.0,0.9723836045137275210407638398650230
10,40.5942802733149752313504071015194164,39.6,0.9942802733149752313504071015194164
11,49.0140094589928186212308768098401684,48.0,1.0140094589928186212308768098401684
12,58.2319622568534115164825676206414394,57.2,1.0319622568534115164825676206414394
13,68.2484327969638879666588883582022613,67.2,1.0484327969638879666588883582022613
14,79.0636477770086137592072199069481829,78.0,1.0636477770086137592072199069481829
15,90.6777855781034256193775555786830652,89.6,1.0777855781034256193775555786830652
16,103.090989069666110489240660735349189,102.0,1.090989069666110489240660735349189
17,116.303374442877932247457926801514745,115.2,1.103374442877932247457926801514745
18,130.315037461689846300874095806514142,129.2,1.115037461689846300874095806514142
19,145.126057985926487721030510089276930,144.0,1.126057985926487721030510089276930
20,160.736503308920115182940682462818898,159.6,1.136503308920115182940682462818898
21,177.146430663592313604957423004557209,176.0,1.146430663592313604957423004557209
22,194.355889133612738343152605409981530,193.2,1.155889133612738343152605409981530
23,212.364921131335642925027052510665715,211.2,1.164921131335642925027052510665715
24,231.173563555200303585739893911032705,230.0,1.173563555200303585739893911032705
25,250.781848706526947528423582913526189,249.6,1.181848706526947528423582913526189
26,271.189805023324342169968629674111681,270.0,1.189805023324342169968629674111681
27,292.397457673252372193816675788332506,291.2,1.197457673252372193816675788332506
28,314.404829036981080395857617573673182,313.2,1.204829036981080395857617573673182
29,337.211939105392620469804760902365139,336.0,1.211939105392620469804760902365139
30,360.818805808423082296322244322696747,359.6,1.218805808423082296322244322696747
31,385.225445289195211790978336473068719,384.0,1.225445289195211790978336473068719
32,410.431872134015147774791518980580947,409.2,1.231872134015147774791518980580947
33,436.438099566496650522204746682801210,435.2,1.238099566496650522204746682801210
34,463.244139612325750371629601638918973,462.0,1.244139612325750371629601638918973
35,490.850003239839549715373341878253081,489.6,1.250003239839549715373341878253081
36,519.255700480559432805241063436566652,518.0,1.255700480559432805241063436566652
37,548.461240533014853260098078391208493,547.2,1.261240533014853260098078391208493
38,578.466631852563450417397708809128134,577.2,1.266631852563450417397708809128134
39,609.271882229415397020285271973764464,608.0,1.271882229415397020285271973764464
40,640.876998856674059947662909435244487,639.6,1.276998856674059947662909435244487
41,673.281988389888305420346100230793894,672.0,1.281988389888305420346100230793894
42,706.486856999356787514517814835232940,705.2,1.286856999356787514517814835232940
43,740.491610416218072468437355858604358,739.2,1.291610416218072468437355858604358
44,775.296253973192357252591425423883686,774.0,1.296253973192357252591425423883686
45,810.900792640702971304265638464423270,809.6,1.300792640702971304265638464423270
46,847.305231058992714044750167704428977,846.0,1.305231058992714044750167704428977
47,884.509573566756604184922776548197780,883.2,1.309573566756604184922776548197780
48,922.513824226735030460592078821024347,921.2,1.313824226735030460592078821024347
49,961.317986848646630894994825259028034,960.0,1.317986848646630894994825259028034
50,1000.92206500978610497211199149897866,999.6,1.32206500978610497211199149897866
51,1041.32606207356669614193388163038936,1040.0,1.32606207356669614193388163038936
52,1082.52998120624873686445280268096748,1081.2,1.32998120624873686445280268096748
53,1124.53382539206319828057308573854277,1123.2,1.33382539206319828057308573854277
54,1167.33759744691162546663636815629064,1166.0,1.33759744691162546663636815629064
55,1210.94130003080036373671808036757636,1209.6,1.34130003080036373671808036757636
56,1255.34493565914690688670101475144922,1254.0,1.34493565914690688670101475144922
57,1300.54850671307899930899154871321767,1299.2,1.34850671307899930899154871321767
58,1346.55201544883232672043637894917923,1345.2,1.35201544883232672043637894917923
59,1393.35546400633987629870633450978238,1392.0,1.35546400633987629870633450978238
60,1440.95885441709502251470037272625606,1439.6,1.35885441709502251470037272625606
61,1489.36218861136083072100717700582639,1488.0,1.36218861136083072100717700582639
62,1538.56546842478976955134002050022312,1537.2,1.36546842478976955134002050022312
63,1588.56869560451078129683222406564611,1587.2,1.36869560451078129683222406564611
64,1639.37187181473434694515247636856570,1638.0,1.37187181473434694515247636856570
65,1690.97499864192064772842203722721091,1689.6,1.37499864192064772842203722721091
66,1743.37807759955107768685663947061427,1742.0,1.37807759955107768685663947061427
67,1796.58111013253909946372735839866556,1795.2,1.38111013253909946372735839866556
68,1850.58409762131267938642320731290908,1849.2,1.38409762131267938642320731290908
69,1905.38704138559722521766983449423647,1904.0,1.38704138559722521766983449423647
70,1960.98994268792502169269158397389399,1959.6,1.38994268792502169269158397389399
71,2017.39280273689456025437400441309523,2016.0,1.39280273689456025437400441309523
72,2074.59562269020086115610081633399298,2073.2,1.39562269020086115610081633399298
73,2132.59840365745583309553789677575893,2131.2,1.39840365745583309553789677575893
74,2191.40114670281589669408146966704882,2190.0,1.40114670281589669408146966704882
75,2251.00385284743246703558683141063653,2249.6,1.40385284743246703558683141063653
76,2311.40652307173944092123709112520350,2310.0,1.40652307173944092123709112520350
77,2372.60915831759053209899552129188028,2371.2,1.40915831759053209899552129188028
78,2434.61175949025813192790460191538343,2433.2,1.41175949025813192790460191538343
79,2497.41432746030432611750405436690673,2496.0,1.41432746030432611750405436690673
80,2561.01686306533376005699573121036025,2559.6,1.41686306533376005699573121036025
81,2625.41936711163719590730961368548092,2624.0,1.41936711163719590730961368548092
82,2690.62184037573384317867093227372730,2689.2,1.42184037573384317867093227372730
83,2756.62428360581985578248178151530231,2755.2,1.42428360581985578248178151530231
84,2823.42669752312976425461516958945976,2822.0,1.42669752312976425461516958945976
85,2891.02908282321705257104786721035547,2889.6,1.42908282321705257104786721035547
86,2959.43144017715957311137028280926235,2958.0,1.43144017715957311137028280926235
87,3028.63377023269503585491460452122596,3027.2,1.43377023269503585491460452122596
88,3098.63607361529138451650753897018625,3097.2,1.43607361529138451650753897018625
89,3169.43835092915648882669530912975867,3168.0,1.43835092915648882669530912975867
90,3241.04060275819123894456079355624359,3239.6,1.44060275819123894456079355624359
91,3313.44282966688980653920543040271863,3312.0,1.44282966688980653920543040271863
92,3386.64503220119054877842967188900367,3385.2,1.44503220119054877842967188900367
93,3460.64721088928076920809455202356771,3459.2,1.44721088928076920809455202356771
94,3535.44936624235830657690969395257999,3534.0,1.44936624235830657690969395257999
95,3611.05149875535270150736778694519025,3609.6,1.45149875535270150736778694519025
96,3687.45360890760848909143031037996044,3686.0,1.45360890760848909143031037996044
97,3764.65569716353298114746427463016083,3763.2,1.45569716353298114746427463016083
98,3842.65776397321072900063523339142629,3841.2,1.45776397321072900063523339142629
99,3921.45980977298670417677825609441197,3920.0,1.45980977298670417677825609441197
100,4001.06183498602008805935284055052164,3999.6,1.46183498602008805935284055052164
101,4081.46384002281043225493773761254628,4080.0,1.46384002281043225493773761254628
102,4162.66582528169782583800316228354290,4161.2,1.46582528169782583800316228354290
103,4244.66779114933859773208735946606939,4243.2,1.46779114933859773208735946606939
104,4327.46973800115797521979889394630537,4326.0,1.46973800115797521979889394630537
105,4411.07166620178102650031012236238703,4409.6,1.47166620178102650031012236238703
106,4495.47357610544312444876853557430338,4494.0,1.47357610544312444876853557430338
107,4580.67546805638109065009991476363551,4579.2,1.47546805638109065009991476363551
108,4666.67734238920609954012616332955936,4665.2,1.47734238920609954012616332955936
109,4753.47919942925935389339049532392206,4752.0,1.47919942925935389339049532392206
110,4841.08103949295148047696039700613094,4839.6,1.48103949295148047696039700613094
111,4929.48286288808652882828453975767195,4928.0,1.48286288808652882828453975767195
112,5018.68466991417140668154974196861427,5017.2,1.48466991417140668154974196861427
113,5108.68646086271153003119378013850200,5107.2,1.48646086271153003119378013850200
114,5199.48823601749341706347725780425964,5198.0,1.48823601749341706347725780425964
115,5291.08999565485491473851945199332315,5289.6,1.48999565485491473851945199332315
116,5383.49174004394369847355843644216283,5382.0,1.49174004394369847355843644216283
117,5476.69346944696465366519320414424356,5475.2,1.49346944696465366519320414424356
118,5570.69518411941670675726438159913239,5569.2,1.49518411941670675726438159913239
119,5665.49688431031963984731744754686993,5664.0,1.49688431031963984731744754686993
120,5761.09857026243139698236260041899617,5759.6,1.49857026243139698236260041899617
121,5857.50024221245635202740497695557338,5856.0,1.50024221245635202740497695557338
122,5954.70190039124498907709063208654893,5953.2,1.50190039124498907709063208654893
123,6052.70354502398541418788685305520290,6051.2,1.50354502398541418788685305520290
124,6151.50517633038709952841041429063036,6150.0,1.50517633038709952841041429063036
125,6251.10679452485723147926051198023717,6249.6,1.50679452485723147926051198023717
126,6351.50839981667001901641918100992850,6350.0,1.50839981667001901641918100992850
127,6452.70999241012929813440089616715159,6451.2,1.50999241012929813440089616715159
128,6554.71157250472474547814877887860301,6553.2,1.51157250472474547814877887860301
129,6657.51314029528200227944142221350212,6656.0,1.51314029528200227944142221350212
130,6761.11469597210699131171222437592066,6759.6,1.51469597210699131171222437592066
131,6865.51623972112469417307112360778888,6864.0,1.51623972112469417307112360778888
132,6970.71777172401264123012339145746288,6969.2,1.51777172401264123012339145746288
133,7076.71929215832935477359950966823578,7075.2,1.51929215832935477359950966823578
134,7183.52080119763797466086152773253920,7182.0,1.52080119763797466086152773253920
135,7291.12229901162527761201055026697383,7289.6,1.52229901162527761201055026697383
136,7399.52378576621629763879667867099480,7398.0,1.52378576621629763879667867099480
137,7508.72526162368474177759774150384008,7507.2,1.52526162368474177759774150384008
138,7618.72672674275938168574441971085261,7617.2,1.52672674275938168574441971085261
139,7729.52818127872659955457427454027675,7728.0,1.52818127872659955457427454027675
140,7841.12962538352925134663339090052996,7839.6,1.52962538352925134663339090052996
141,7953.53105920586200580695990391529411,7952.0,1.53105920586200580695990391529411
142,8066.73248289126330962512673670400047,8065.2,1.53248289126330962512673670400047
143,8180.73389658220412047455556397637178,8179.2,1.53389658220412047455556397637178
144,8295.53530041817354247598503220257062,8294.0,1.53530041817354247598503220257062
145,8411.13669453576149444422423692784728,8409.6,1.53669453576149444422423692784728
146,8527.53807906873853340858015168636145,8526.0,1.53807906873853340858015168636145
147,8644.73945414813294769438763095031026,8643.2,1.53945414813294769438763095031026
148,8762.74081990230523489504445018338205,8761.2,1.54081990230523489504445018338205
149,8881.54217645702006653589110858581391,8880.0,1.54217645702006653589110858581391
150,9001.14352393551584307119998883175311,8999.6,1.54352393551584307119998883175311
151,9121.54486245857193512892975940304195,9120.0,1.54486245857193512892975940304195
152,9242.74619214457370130281828958547940,9241.2,1.54619214457370130281828958547940
153,9364.74751310957537144192391099907856,9363.2,1.54751310957537144192391099907856
154,9487.54882546736087933727851248628251,9486.0,1.54882546736087933727851248628251
155,9611.15012932950272304207731519170412,9609.6,1.55012932950272304207731519170412
156,9735.55142480541893069220819514697929,9734.0,1.55142480541893069220819514697929
157,9860.75271200242820287417207708174331,9859.2,1.55271200242820287417207708174331
158,9986.75399102580330335895490015338706,9985.2,1.55399102580330335895490015338706
159,10113.5552619788227618751506990017455,10112.0,1.5552619788227618751506990017455
160,10241.1565249628209552593527153986214,10239.6,1.5565249628209552593527153986214
161,10369.5577800772366254804183628698337,10368.0,1.5577800772366254804183628698337
162,10498.7590274196598939992060176123692,10497.2,1.5590274196598939992060176123692
163,10628.7602670858778273175889300045469,10627.2,1.5602670858778273175889300045469
164,10759.5614991699186083538601650217673,10758.0,1.5614991699186083538601650217673
165,10891.1627237640943622452744826372783,10889.6,1.5627237640943622452744826372783
166,11023.5639409590426870938558109522052,11022.0,1.5639409590426870938558109522052
167,11156.7651508437669368883412083559964,11155.2,1.5651508437669368883412083559964
168,11290.7663535056752992917401513594964,11289.2,1.5663535056752992917401513594964
169,11425.5675490306187133571732930485540,11424.0,1.5675490306187133571732930485540
170,11561.1687375029276669156966948988086,11559.6,1.5687375029276669156966948988086
171,11697.5699190054479138311717975261727,11696.0,1.5699190054479138311717975261727
172,11834.7710936195751489894538207789633,11833.2,1.5710936195751489894538207789633
173,11972.7722614252886764248557578012389,11971.2,1.5722614252886764248557578012389
174,12111.5734225011841064280441212230818,12110.0,1.5734225011841064280441212230818
175,12251.1745769245051156209526733577043,12249.6,1.5745769245051156209526733577043
176,12391.5757247711742997057370877799770,12390.0,1.5757247711742997057370877799770
177,12532.7768661158231521489909772108581,12531.2,1.5768661158231521489909772108581
178,12674.7780010318211979563175001022141,12673.2,1.5780010318211979563175001022141
179,12817.5791295913043089829170012808127,12816.0,1.5791295913043089829170012808127
180,12961.1802518652022317273183808411182,12959.6,1.5802518652022317273183808411182
181,13105.5813679232653502575850941243316,13104.0,1.5813679232653502575850941243316
182,13250.7824778340907119661429467211289,13249.2,1.5824778340907119661429467211289
183,13396.7835816651473392032825246595256,13395.2,1.5835816651473392032825246595256
184,13543.5846794828008510316663375133714,13542.0,1.5846794828008510316663375133714
185,13691.1857713523374169107785488297822,13689.6,1.5857713523374169107785488297822
186,13839.5868573379870632807647781889421,13838.0,1.5868573379870632807647781889421
187,13988.7879375029463568470106351870153,13987.2,1.5879375029463568470106351870153
188,14138.7890119094004800026403279611621,14137.2,1.5890119094004800026403279611621
189,14289.5900806185447221209088723866751,14288.0,1.5900806185447221209088723866751
190,14441.1911436906054023694705164633982,14439.6,1.5911436906054023694705164633982
191,14593.5922011848602432699978471804333,14592.0,1.5922011848602432699978471804333
192,14746.7932531596582113862975514346107,14745.2,1.5932531596582113862975514346107
193,14900.7942996724388434457352155935994,14899.2,1.5942996724388434457352155935994
194,15055.5953407797510712357368157031094,15054.0,1.5953407797510712357368157031094
195,15211.1963765372715632087317947192752,15209.6,1.5963765372715632087317947192752
196,15367.5974069998225964884674328583826,15366.0,1.5974069998225964884674328583826
197,15524.7984322213894736540666018759029,15523.2,1.5984322213894736540666018759029
198,15682.7994522551374984648838052419044,15681.2,1.5994522551374984648838052419044
199,15841.6004671534285233611142262088413,15840.0,1.6004671534285233611142262088413
200,16001.2014769678370826814776830684250,15999.6,1.6014769678370826814776830684250
201,16161.6024817491661225755460008557304,16160.0,1.6024817491661225755460008557304
202,16322.8034815474623409880429194960253,16321.2,1.6034815474623409880429194960253
203,16484.8044764120311483710369613880724,16483.2,1.6044764120311483710369613880724
204,16647.6054663914512607401620631591424,16646.0,1.6054663914512607401620631591424
205,16811.2064515335889350414744840663602,16809.6,1.6064515335889350414744840663602
206,16975.6074318856118598489720788321152,16974.0,1.6074318856118598489720788321152
207,17140.8084074940027072647587697654232,17139.2,1.6084074940027072647587697654232
208,17306.8093784045723602446458749474556,17305.2,1.6093784045723602446458749474556
209,17473.6103446624728210934399155724153,17472.0,1.6103446624728210934399155724153
210,17641.2113063122098126269655517694250,17639.6,1.6113063122098126269655517694250
211,17809.6122633976550793612657942467153,17808.0,1.6122633976550793612657942467153
212,17978.8132159620583989576208096853832,17977.2,1.6132159620583989576208096853832
213,18148.8141640480593083028272404457241,18147.2,1.6141640480593083028272404457241
214,18319.6151076976985592020091952629597,18318.0,1.6151076976985592020091952629597
215,18491.2160469524293028918132079475137,18489.6,1.6160469524293028918132079475137
216,18663.6169818531280173301002939658405,18662.0,1.6169818531280173301002939658405
217,18836.8179124401051812228724405656182,18835.2,1.6179124401051812228724405656182
218,19010.8188387531157037626173572146440,19009.2,1.6188387531157037626173572146440
219,19185.6197608313691133527841711982193,19184.0,1.6197608313691133527841711982193
220,19361.2206787135395178283317971247643,19359.6,1.6206787135395178283317971247643
221,19537.6215924377753340765002588261442,19536.0,1.6215924377753340765002588261442
222,19714.8225020417088042570737662235735,19713.2,1.6225020417088042570737662235735
223,19892.8234075624652921849122423261016,19891.2,1.6234075624652921849122423261016
224,20071.6243090366723749360451752859428,20070.0,1.6243090366723749360451752859428
225,20251.2252065004687322359110084987191,20249.6,1.6252065004687322359110084987191
226,20431.6260999895128371697725750861944,20430.0,1.6260999895128371697725750861944
227,20612.8269895389914568602928401025334,20611.2,1.6269895389914568602928401025334
228,20794.8278751836279649246648286706980,20793.2,1.6278751836279649246648286706980
229,20977.6287569576904728656790939867121,20976.0,1.6287569576904728656790939867121
230,21161.2296348949997850852650423761158,21159.6,1.6296348949997850852650423761158
231,21345.6305090289371793121212032967518,21344.0,1.6305090289371793121212032967518
232,21530.8313793924520228547573034720908,21529.2,1.6313793924520228547573034720908
233,21716.8322460180692196679141772151397,21715.2,1.6322460180692196679141772151397
234,21903.6331089378965043809489388395610,21902.0,1.6331089378965043809489388395610
235,22091.2339681836315764618666058623604,22089.6,1.6339681836315764618666058623604
236,22279.6348237865690842184141544254126,22278.0,1.6348237865690842184141544254126
237,22468.8356757776074622590773631787970,22467.2,1.6356757776074622590773631787970
238,22658.8365241872556241477662651839219,22657.2,1.6365241872556241477662651839219
