Eigenstate,Energy,Kinetic Energy,Potential Energy
1,0.500000000051602686847656105240876860,0.0,0.500000000051602686847656105240876860
2,1.84623093798795023434495088697692899,1.2,0.64623093798795023434495088697692899
3,3.93633761069440367680457456492114425,3.2,0.73633761069440367680457456492114425
4,6.79966527987510630711850369023936392,6.0,0.79966527987510630711850369023936392
5,10.4480465788555342755291227270257146,9.6,0.8480465788555342755291227270257146
6,14.8870660023942881164772173978720019,14.0,0.8870660023942881164772173978720019
7,20.1197208319313865356325610740038491,19.2,0.9197208319313865356325610740038491
8,26.1477838538447581918966456747137752,25.2,0.9477838538447581918966456747137752
9,32.9723835671412629437371765312339493,32.0,0.9723835671412629437371765312339493
10,40.5942802259698487523518417946306049,39.6,0.9942802259698487523518417946306049
11,49.0140094004718192305516404902711590,48.0,1.0140094004718192305516404902711590
12,58.2319621859520052434017515924587451,57.2,1.0319621859520052434017515924587451
13,68.2484327124763784661890789566286810,67.2,1.0484327124763784661890789566286810
14,79.0636476777282254355940964544023040,78.0,1.0636476777282254355940964544023040
15,90.6777854628223399894918406754162781,89.6,1.0777854628223399894918406754162781
16,103.090988937175473145001942072934392,102.0,1.090988937175473145001942072934392
17,116.303374291967840664345065319431929,115.2,1.103374291967840664345065319431929
18,130.315037291149324772032905686641247,129.2,1.115037291149324772032905686641247
19,145.126057794543453393150119112530944,144.0,1.126057794543453393150119112530944
20,160.736503095481337785119447925746506,159.6,1.136503095481337785119447925746506
21,177.146430426883370602733442621870133,176.0,1.146430426883370602733442621870133
22,194.355888872417966702050428975976227,193.2,1.155888872417966702050428975976227
23,212.364920844438088309824688503433961,211.2,1.164920844438088309824688503433961
24,231.173563241381667582210738262110299,230.0,1.173563241381667582210738262110299
25,250.781848364567533310935849461606041,249.6,1.181848364567533310935849461606041
26,271.189804652002998924783388262654011,270.0,1.189804652002998924783388262654011
27,292.397457271346438527674445806919028,291.2,1.197457271346438527674445806919028
28,314.404828603266326901838882638929925,313.2,1.204828603266326901838882638929925
29,337.211938638643191580508891520831322,336.0,1.211938638643191580508891520831322
30,360.818805307411437523469489093382814,359.6,1.218805307411437523469489093382814
31,385.225444752692066427435619711199844,384.0,1.225444752692066427435619711199844
32,410.431871560789413117574151612023492,409.2,1.231871560789413117574151612023492
33,436.438098955315373661688563671252942,435.2,1.238098955315373661688563671252942
34,463.244138961954053581942479656081388,462.0,1.244138961954053581942479656081388
35,490.850002549040569472948174217666223,489.6,1.250002549040569472948174217666223
36,519.255699748094258456243748064190796,518.0,1.255699748094258456243748064190796
37,548.461239757642465352482624446732522,547.2,1.261239757642465352482624446732522
38,578.466631033040658709383105034612634,577.2,1.266631033040658709383105034612634
39,609.271881364496778173867588416973909,608.0,1.271881364496778173867588416973909
40,640.876997945111894913200507553638643,639.6,1.276997945111894913200507553638643
41,673.281987430432516516155757057508171,672.0,1.281987430432516516155757057508171
42,706.486855990754875203695345938407952,705.2,1.286855990754875203695345938407952
43,740.491609357215051833691147047168137,739.2,1.291609357215051833691147047168137
44,775.296252862530694168691639973785365,774.0,1.296252862530694168691639973785365
45,810.900791477122518306718741677869013,809.6,1.300791477122518306718741677869013
46,847.305229841230645892471033792886073,846.0,1.305229841230645892471033792886073
47,884.509572293547353113966306944373879,883.2,1.309572293547353113966306944373879
48,922.513822896810221125399064648068073,921.2,1.313822896810221125399064648068073
49,961.317985460735014993084711825512161,960.0,1.317985460735014993084711825512161
50,1000.92206356261349554770310175108515,999.6,1.32206356261349554770310175108515
51,1041.32606056585590156357698535234395,1040.0,1.32606056585590156357698535234395
52,1082.52997963671949447141756176645578,1081.2,1.32997963671949447141756176645578
53,1124.53382375943210769242022882961985,1123.2,1.33382375943210769242022882961985
54,1167.33759574989208155013493512035047,1166.0,1.33759574989208155013493512035047
55,1210.94129826810248922402147612917036,1209.6,1.34129826810248922402147612917036
56,1255.34493382947748463847316599570574,1254.0,1.34493382947748463847316599570574
57,1300.54850481514140421597175426389771,1299.2,1.34850481514140421597175426389771
58,1346.55201348132645723674441185622153,1345.2,1.35201348132645723674441185622153
59,1393.35546196796208560001718883515404,1392.0,1.35546196796208560001718883515404
60,1440.95885230653804927425637098535007,1439.6,1.35885230653804927425637098535007
61,1489.36218642731372949628374773862586,1488.0,1.36218642731372949628374773862586
62,1538.56546616593784077403776683049235,1537.2,1.36546616593784077403776683049235
63,1588.56869326953550085873132621080148,1587.2,1.36869326953550085873132621080148
64,1639.37186940231329537223443752850872,1638.0,1.37186940231329537223443752850872
65,1690.97499615072743893553684728775107,1689.6,1.37499615072743893553684728775107
66,1743.37807502825528730509111228215458,1742.0,1.37807502825528730509111228215458
67,1796.58110747980619273251057492004232,1795.2,1.38110747980619273251057492004232
68,1850.58409488580393860228783910116263,1849.2,1.38409488580393860228783910116263
69,1905.38703856596967673147237534180704,1904.0,1.38703856596967673147237534180704
70,1960.98993978283136244698139444150441,1959.6,1.38993978283136244698139444150441
71,2017.39279974498308385248718672397848,2016.0,1.39279974498308385248718672397848
72,2074.59561961011538345444367734614956,2073.2,1.39561961011538345444367734614956
73,2132.59840048783561731041166133651891,2131.2,1.39840048783561731041166133651891
74,2191.40114344229557801428898316294906,2190.0,1.40114344229557801428898316294906
75,2251.00384949464197673194899379371027,2249.6,1.40384949464197673194899379371027
76,2311.40651962530392994403497971248443,2310.0,1.40651962530392994403497971248443
77,2372.60915477613029415424030235571925,2371.2,1.40915477613029415424030235571925
78,2434.61175585238852602322348603540746,2433.2,1.41175585238852602322348603540746
79,2497.41432372463569856831524658594527,2496.0,1.41432372463569856831524658594527
80,2561.01685923047136594352976999923528,2559.6,1.41685923047136594352976999923528
81,2625.41936317618111997291606715709274,2624.0,1.41936317618111997291606715709274
82,2690.62183633827892015973144059613174,2689.2,1.42183633827892015973144059613174
83,2756.62427946495559016012941864945697,2755.2,1.42427946495559016012941864945697
84,2823.42669327744024941833836118721916,2822.0,1.42669327744024941833836118721916
85,2891.02907847128088938413315267596085,2889.6,1.42907847128088938413315267596085
86,2959.43143571754978786801295280748588,2958.0,1.43143571754978786801295280748588
87,3028.63376566397899761869823094930256,3027.2,1.43376566397899761869823094930256
88,3098.63606893603072182982439653401852,3097.2,1.43606893603072182982439653401852
89,3169.43834613790700578054784690072440,3168.0,1.43834613790700578054784690072440
90,3241.04059785350283059805098161652557,3239.6,1.44059785350283059805098161652557
91,3313.44282464730637367788201253043958,3312.0,1.44282464730637367788201253043958
92,3386.64502706524991200052615189448441,3385.2,1.44502706524991200052615189448441
93,3460.64720563551458232754922513102999,3459.2,1.44720563551458232754922513102999
94,3535.44936086929196933191657215052314,3534.0,1.44936086929196933191657215052314
95,3611.05149326150527156306111337263974,3609.6,1.45149326150527156306111337263974
96,3687.45360329149259332515791469764313,3686.0,1.45360329149259332515791469764313
97,3764.65569142365472620495321892721162,3763.2,1.45569142365472620495321892721162
98,3842.65775810806961111120084194656908,3841.2,1.45775810806961111120084194656908
99,3921.45980378107551821557010666074558,3920.0,1.45980378107551821557010666074558
100,4001.06182886582483584447306697376558,3999.6,1.46182886582483584447306697376558
101,4081.46383377281023006710454595592118,4080.0,1.46383377281023006710454595592118
102,4162.66581890036481115026734569258220,4161.2,1.46581890036481115026734569258220
103,4244.66778463513783513694201014076053,4243.2,1.46778463513783513694201014076053
104,4327.46973135254736154085050017240821,4326.0,1.46973135254736154085050017240821
105,4411.07165941721119507550567535181146,4409.6,1.47165941721119507550567535181146
106,4495.47356918335734857199536268375166,4494.0,1.47356918335734857199536268375166
107,4580.67546099521518615779393764022622,4579.2,1.47546099521518615779393764022622
108,4666.67733518738832652934034971591502,4665.2,1.47733518738832652934034971591502
109,4753.47919208521031755758705672717178,4752.0,1.47919208521031755758705672717178
110,4841.08103200508403104559961828949090,4839.6,1.48103200508403104559961828949090
111,4929.48285525480566059608781793283177,4928.0,1.48285525480566059608781793283177
112,5018.68466213387415611311616949941975,5017.2,1.48466213387415611311616949941975
113,5108.68645293378687292644725291506676,5107.2,1.48645293378687292644725291506676
114,5199.48822793832216476921526916979723,5198.0,1.48822793832216476921526916979723
115,5291.08998742380960939112438539836840,5289.6,1.48998742380960939112438539836840
116,5383.49173165938850725771862288896767,5382.0,1.49173165938850725771862288896767
117,5476.69346090725526207326301068320524,5475.2,1.49346090725526207326301068320524
118,5570.69517542290021083367016317869813,5569.2,1.49517542290021083367016317869813
119,5665.49687545533443740219051988360972,5664.0,1.49687545533443740219051988360972
120,5761.09856124730707775834921423334415,5759.6,1.49856124730707775834921423334415
121,5857.50023303551358680336843825558253,5856.0,1.50023303551358680336843825558253
122,5954.70189105079541769218138820104753,5953.2,1.50189105079541769218138820104753
123,6052.70353551833153246921210218750619,6051.2,1.50353551833153246921210218750619
124,6151.50516665782214510528657857844506,6150.0,1.50516665782214510528657857844506
125,6251.10678468366506846677775468392696,6249.6,1.50678468366506846677775468392696
126,6351.50838980512502155078932170384109,6350.0,1.50838980512502155078932170384109
127,6452.70998222649623274229684618233789,6451.2,1.50998222649623274229684618233789
128,6554.71156214725865226197517001218594,6553.2,1.51156214725865226197517001218594
129,6657.51312976222807490020255332605777,6656.0,1.51312976222807490020255332605777
130,6761.11468526170045575086523532762342,6759.6,1.51468526170045575086523532762342
131,6865.51622883159068625446762090896681,6864.0,1.51622883159068625446762090896681
132,6970.71776065356608288285316704221260,6969.2,1.51776065356608288285316704221260
133,7076.71928090517482901625619935808048,7075.2,1.51928090517482901625619935808048
134,7183.52078975996959928744709772251993,7182.0,1.52078975996959928744709772251993
135,7291.12228738762657755939026046779542,7289.6,1.52228738762657755939026046779542
136,7399.52377395406007601530379229662546,7398.0,1.52377395406007601530379229662546
137,7508.72524962153294953206698127939984,7507.2,1.52524962153294953206698127939984
138,7618.72671454876298589593040087006736,7617.2,1.52671454876298589593040087006736
139,7729.52816889102545031357831952074060,7728.0,1.52816889102545031357831952074060
140,7841.12961280025194722562479387175468,7839.6,1.52961280025194722562479387175468
141,7953.53104642512575787213465667989132,7952.0,1.53104642512575787213465667989132
142,8066.73246991117380398649410847875869,8065.2,1.53246991117380398649410847875869
143,8180.73388340085537934378584858835067,8179.2,1.53388340085537934378584858835067
144,8295.53528703364778371018715498821786,8294.0,1.53528703364778371018715498821786
145,8411.13668094612898955214989310270628,8409.6,1.53668094612898955214989310270628
146,8527.53806527205746399537097731066192,8526.0,1.53806527205746399537097731066192
147,8644.73944014244926032059565538267970,8643.2,1.53944014244926032059565538267970
148,8762.74080568565249432526248590264311,8761.2,1.54080568565249432526248590264311
149,8881.54216202741930735192519671865804,8880.0,1.54216202741930735192519671865804
150,9001.14350929097541962430879173513398,8999.6,1.54350929097541962430879173513398
151,9121.54484759708736980523443129865844,9120.0,1.54484759708736980523443129865844
152,9242.74617706412753107556194401421923,9241.2,1.54617706412753107556194401421923
153,9364.74749780813699268382326123173724,9363.2,1.54749780813699268382326123173724
154,9487.54880994288639086576725391732562,9486.0,1.54880994288639086576725391732562
155,9611.15011357993476736978751166011280,9609.6,1.55011357993476736978751166011280
156,9735.55140882868653345457410501720495,9734.0,1.55140882868653345457410501720495
157,9860.75269579644661040557034103676379,9859.2,1.55269579644661040557034103676379
158,9986.75397458847381838831353147015070,9985.2,1.55397458847381838831353147015070
159,10113.5552453080325773114705110456628,10112.0,1.5552453080325773114705110456628
160,10241.1565080564429860370831316430511,10239.6,1.5565080564429860370831316430511
161,10369.5577629331293384341202030755961,10368.0,1.5577629331293384341202030755961
162,10498.7590100356671357364129986707980,10497.2,1.5590100356671357364129986707980
163,10628.7602494598286500582490178054039,10627.2,1.5602494598286500582490178054039
164,10759.5614812996270937041950751122582,10758.0,1.5614812996270937041950751122582
165,10891.1627056473594428733430376523870,10889.6,1.5627056473594428733430376523870
166,11023.5639225936479662735426147109529,11022.0,1.5639225936479662735426147109529
167,11156.7651322274805058779167962159400,11155.2,1.5651322274805058779167962159400
168,11290.7663346362495525125494154444285,11289.2,1.5663346362495525125494154444285
169,11425.5675299057901613374113834681343,11424.0,1.5675299057901613374113834681343
170,11561.1687181204167469636175300407754,11559.6,1.5687181204167469636175300407754
171,11697.5698993629587984014509576720460,11696.0,1.5698993629587984014509576720460
172,11834.7710737147955517057890784104635,11833.2,1.5710737147955517057890784104635
173,11972.7722412558896557212383803636803,11971.2,1.5722412558896557212383803636803
174,12111.5734020648198667704683354890843,12110.0,1.5734020648198667704683354890843
175,12251.1745562188128062706538412738897,12249.6,1.5745562188128062706538412738897
176,12391.5757037937738109843556033073110,12390.0,1.5757037937738109843556033073110
177,12532.7768448643169091653523069491326,12531.2,1.5768448643169091653523069491326
178,12674.7779795037939517537975059927196,12673.2,1.5779795037939517537975059927196
179,12817.5791077843229250656236868768472,12816.0,1.5791077843229250656236868768472
180,12961.1802297768154759225691463673899,12959.6,1.5802297768154759225691463673899
181,13105.5813455510036718713906375902424,13104.0,1.5813455510036718713906375902424
182,13250.7824551754660241876238705901785,13249.2,1.5824551754660241876238705901785
183,13396.7835587176527967131428320601530,13395.2,1.5835587176527967131428320601530
184,13543.5846562439106247690307854654278,13542.0,1.5846562439106247690307854654278
185,13691.1857478195064659518633128439042,13689.6,1.5857478195064659518633128439042
186,13839.5868335086509037819993047313280,13838.0,1.5868335086509037819993047313280
187,13988.7879133745208280043546554712892,13987.2,1.5879133745208280043546554712892
188,14138.7889874792815069779496921127956,14137.2,1.5889874792815069779496921127956
189,14289.5900558841080758852949491319573,14288.0,1.5900558841080758852949491319573
190,14441.1911186492064564126668044278766,14439.6,1.5911186492064564126668044278766
191,14593.5921758338337271237982580165754,14592.0,1.5921758338337271237982580165754
192,14746.7932274963179609091609157947429,14745.2,1.5932274963179609091609157947429
193,14900.7942736940775478146584080177704,14899.2,1.5942736940775478146584080177704
194,15055.5953144836400165904860343939020,15054.0,1.5953144836400165904860343939020
195,15211.1963499206603728924865381669443,15209.6,1.5963499206603728924865381669443
196,15367.5973800599389678278731453326199,15366.0,1.5973800599389678278731453326199
197,15524.7984049554389112206113768045478,15523.2,1.5984049554389112206113768045478
198,15682.7994246603030437584091234994125,15681.2,1.5994246603030437584091234994125
199,15841.6004392268704808551393187366641,15840.0,1.6004392268704808551393187366641
200,16001.2014487066927421688644226169731,15999.6,1.6014487066927421688644226169731
201,16161.6024531505494777518504947676809,16160.0,1.6024531505494777518504947676809
202,16322.8034526084638042086912286552883,16321.2,1.6034526084638042086912286552883
203,16484.8044471297172615172325832285518,16483.2,1.6044471297172615172325832285518
204,16647.6054367628644021271688170690709,16646.0,1.6054367628644021271688170690709
205,16811.2064215557470223016310409429593,16809.6,1.6064215557470223016310409429593
206,16975.6074015555080487204747414291099,16974.0,1.6074015555080487204747414291099
207,17140.8083768086050862159008667026559,17139.2,1.6083768086050862159008667026559
208,17306.8093473608236408618250081880976,17305.2,1.6093473608236408618250081880976
209,17473.6103132572900241598316891506119,17472.0,1.6103132572900241598316891506119
210,17641.2112745424839498173227472104539,17639.6,1.6112745424839498173227472104539
211,17809.6122312602508304768258899436103,17808.0,1.6122312602508304768258899436103
212,17978.8131834538137846235957899093375,17977.2,1.6131834538137846235957899093375
213,18148.8141311657853580494060254586709,18147.2,1.6141311657853580494060254586709
214,18319.6150744381789748482250558361012,18318.0,1.6150744381789748482250558361012
215,18491.2160133124201171500119927212025,18489.6,1.6160133124201171500119927212025
216,18663.6169478293572475470929126643972,18662.0,1.6169478293572475470929126643972
217,18836.8178780292724781721638252502032,18835.2,1.6178780292724781721638252502032
218,19010.8188039518919954003740856070991,19009.2,1.6188039518919954003740856070991
219,19185.6197256363962434484302948610058,19184.0,1.6197256363962434484302948610058
220,19361.2206431214298793788517783761551,19359.6,1.6206431214298793788517783761551
221,19537.6215564451114974116721630371808,19536.0,1.6215564451114974116721630371808
222,19714.8224656450431397409560552110540,19713.2,1.6224656450431397409560552110540
223,19892.8233707583195874169660915093485,19891.2,1.6233707583195874169660915093485
224,20071.6242718215374463532827478808601,20070.0,1.6242718215374463532827478808601
225,20251.2251688708040310154236196993345,20249.6,1.6251688708040310154236196993345
226,20431.6260619417460493289070696616701,20430.0,1.6260619417460493289070696616701
227,20612.8269510695180974496108457618345,20611.2,1.6269510695180974496108457618345
228,20794.8278362888109662066297545717208,20793.2,1.6278362888109662066297545717208
229,20977.6287176338597663697798020832796,20976.0,1.6287176338597663697798020832796
230,21161.2295951384518774279900306882611,21159.6,1.6295951384518774279900306882611
231,21345.6304688359347216678491865119857,21344.0,1.6304688359347216678491865119857
232,21530.8313387592233739612247430460689,21529.2,1.6313387592233739612247430460689
233,21716.8322049408080022474554689848603,21715.2,1.6322049408080022474554689848603
234,21903.6330674127611548561807456894385,21902.0,1.6330674127611548561807456894385
235,22091.2339262067448878419028412477087,22089.6,1.6339262067448878419028412477087
236,22279.6347813540177420290477501444959,22278.0,1.6347813540177420290477501444959
237,22468.8356328854415733876482792131042,22467.2,1.6356328854415733876482792131042
238,22658.8364808314882384706571024259469,22657.2,1.6364808314882384706571024259469
