Eigenstate,Energy,Kinetic Energy,Potential Energy
1,0.500000000013021675653800428566183227,0.0,0.500000000013021675653800428566183227
2,1.84623093773611332890130843803751265,1.2,0.64623093773611332890130843803751265
3,3.93633760995465231070461727244262764,3.2,0.73633760995465231070461727244262764
4,6.79966527833428646163968423137882024,6.0,0.79966527833428646163968423137882024
5,10.4480465761865140995260923931033418,9.6,0.8480465761865140995260923931033418
6,14.8870659982642074627772452047271388,14.0,0.8870659982642074627772452047271388
7,20.1197208260046965652494029363923077,19.2,0.9197208260046965652494029363923077
8,26.1477838457844890473628431979610844,25.2,0.9477838457844890473628431979610844
9,32.9723835566096132484352933213690619,32.0,0.9723835566096132484352933213690619
10,40.5942802126284848350736659789154572,39.6,0.9942802126284848350736659789154572
11,49.0140093839820377017268516722620821,48.0,1.0140093839820377017268516722620821
12,58.2319621659748259371834695451487632,57.2,1.0319621659748259371834695451487632
13,68.2484326886725994732175699737941633,67.2,1.0484326886725994732175699737941633
14,79.0636476497584563186441592262220075,78.0,1.0636476497584563186441592262220075
15,90.6777854303470218370118273747156333,89.6,1.0777854303470218370118273747156333
16,103.090988899854890356591564515835174,102.0,1.090988899854890356591564515835174
17,116.303374249462127357671557746484347,115.2,1.103374249462127357671557746484347
18,130.315037243118467582436999439304420,129.2,1.115037243118467582436999439304420
19,145.126057740647291788005328094430444,144.0,1.126057740647291788005328094430444
20,160.736503035379562624669431518276798,159.6,1.136503035379562624669431518276798
21,177.146430360235521437019875035469956,176.0,1.146430360235521437019875035469956
22,194.355888798883428139149342595592976,193.2,1.155888798883428139149342595592976
23,212.364920763676085689674592083958240,211.2,1.164920763676085689674592083958240
24,231.173563153051262122835939031254329,230.0,1.173563153051262122835939031254329
25,250.781848268327616847830702638747711,249.6,1.181848268327616847830702638747711
26,271.189804547512288332230109474839647,270.0,1.189804547512288332230109474839647
27,292.397457158263469888156823760789856,291.2,1.197457158263469888156823760789856
28,314.404828481249449473486868975501049,313.2,1.204828481249449473486868975501049
29,337.211938507350561600696561483567204,336.0,1.211938507350561600696561483567204
30,360.818805166501011877977099717150408,359.6,1.218805166501011877977099717150408
31,385.225444601821596208083438748322432,384.0,1.225444601821596208083438748322432
32,410.431871399616437086326783499331114,409.2,1.231871399616437086326783499331114
33,436.438098783497211635484056383328322,435.2,1.238098783497211635484056383328322
34,463.244138779147799749616532023160570,462.0,1.244138779147799749616532023160570
35,490.850002354903085653382246958380174,489.6,1.250002354903085653382246958380174
36,519.255699542282167305108949536444405,518.0,1.255699542282167305108949536444405
37,548.461239539812143523562987181945756,547.2,1.261239539812143523562987181945756
38,578.466630802848229975356833927067855,577.2,1.266630802848229975356833927067855
39,609.271881121598106510538973838956384,608.0,1.271881121598106510538973838956384
40,640.876997689162577550460195522663757,639.6,1.276997689162577550460195522663757
41,673.281987161087876958366510813954537,672.0,1.281987161087876958366510813954537
42,706.486855707669956221726045630231014,705.2,1.286855707669956221726045630231014
43,740.491609060044608430432011479111072,739.2,1.291609060044608430432011479111072
44,775.296252550929186519561762702501818,774.0,1.296252550929186519561762702501818
45,810.900791150744104676409692981537882,809.6,1.300791150744104676409692981537882
46,847.305229499729175528947217026216233,846.0,1.305229499729175528947217026216233
47,884.509571936576359120555830222714088,883.2,1.309571936576359120555830222714088
48,922.513822524022913311651362519070764,921.2,1.313822524022913311651362519070764
49,961.317985071784272704938032819293623,960.0,1.317985071784272704938032819293623
50,1000.92206315715186047739188415294893,999.6,1.32206315715186047739188415294893
51,1041.32606014353557053961262589218097,1040.0,1.32606014353557053961262589218097
52,1082.52997919719231222889357663669163,1081.2,1.32997919719231222889357663669163
53,1124.53382330234955962382184623735135,1123.2,1.33382330234955962382184623735135
54,1167.33759527490528643677191470907431,1166.0,1.33759527490528643677191470907431
55,1210.94129777486219194814999489727403,1209.6,1.34129777486219194814999489727403
56,1255.34493331763404887612656126623977,1254.0,1.34493331763404887612656126623977
57,1300.54850428434480511047983246177588,1299.2,1.34850428434480511047983246177588
58,1346.55201293122627405288578700909319,1345.2,1.35201293122627405288578700909319
59,1393.35546139820749435871842865248651,1392.0,1.35546139820749435871842865248651
60,1440.95885171677781536772449537457942,1439.6,1.35885171677781536772449537457942
61,1489.36218581719620028343464403052060,1488.0,1.36218581719620028343464403052060
62,1538.56546553511093815606172491830062,1537.2,1.36546553511093815606172491830062
63,1588.56869261764671383461801043212059,1587.2,1.36869261764671383461801043212059
64,1639.37186872900967257406270166929798,1638.0,1.37186872900967257406270166929798
65,1690.97499545565558114331950951794515,1689.6,1.37499545565558114331950951794515
66,1743.37807431106133994095125466478821,1742.0,1.37807431106133994095125466478821
67,1796.58110674013583833395357949583416,1795.2,1.38110674013583833395357949583416
68,1850.58409412330238927432221234217637,1849.2,1.38409412330238927432221234217637
69,1905.38703778028166657732215101775346,1904.0,1.38703778028166657732215101775346
70,1960.98993897360113997712387649621753,1959.6,1.38993897360113997712387649621753
71,2017.39279891185440437174098355446484,2016.0,1.39279891185440437174098355446484
72,2074.59561875273150142682445986070485,2073.2,1.39561875273150142682445986070485
73,2132.59839960583927870146563281158652,2131.2,1.39839960583927870146563281158652
74,2191.40114253532901261060750988015785,2190.0,1.40114253532901261060750988015785
75,2251.00384856234689043756147827462388,2249.6,1.40384856234689043756147827462388
76,2311.40651866732149705337140894579745,2310.0,1.40651866732149705337140894579745
77,2372.60915379210114960134930460681955,2371.2,1.40915379210114960134930460681955
78,2434.61175484195275760692664985477522,2433.2,1.41175484195275760692664985477522
79,2497.41432268743283915297354337758773,2496.0,1.41432268743283915297354337758773
80,2561.01685816614038563509342804819674,2559.6,1.41685816614038563509342804819674
81,2625.41936208436041826992470159695317,2624.0,1.41936208436041826992470159695317
82,2690.62183521860631807892712017463530,2689.2,1.42183521860631807892712017463530
83,2756.62427831706832233634133568686855,2755.2,1.42427831706832233634133568686855
84,2823.42669210097495617829384327183087,2822.0,1.42669210097495617829384327183087
85,2891.02907726587360879384599764826538,2889.6,1.42907726587360879384599764826538
86,2959.43143448283594775339652064159609,2958.0,1.43143448283594775339652064159609
87,3028.63376439959340755904705484683167,3027.2,1.43376439959340755904705484683167
88,3098.63606764160756512380471120233890,3097.2,1.43606764160756512380471120233890
89,3169.43834481307983138433407086660570,3168.0,1.43834481307983138433407086660570
90,3241.04059649790454503524185766598501,3239.6,1.44059649790454503524185766598501
91,3313.44282326056923292082682920594596,3312.0,1.44282326056923292082682920594596
92,3386.64502564700551332268833802995396,3385.2,1.44502564700551332268833802995396
93,3460.64720418539385612653140316316157,3459.2,1.44720418539385612653140316316157
94,3535.44935938692517092276803430670013,3534.0,1.44935938692517092276803430670013
95,3611.05149174652197294148556474593959,3609.6,1.45149174652197294148556474593959
96,3687.45360174352167490023635249918271,3686.0,1.45360174352167490023635249918271
97,3764.65568984232436850099355311503223,3763.2,1.45568984232436850099355311503223
98,3842.65775649300728643832307430041212,3841.2,1.45775649300728643832307430041212
99,3921.45980213190798230863258331344558,3920.0,1.45980213190798230863258331344558
100,4001.06182718217811946994248322565962,3999.6,1.46182718217811946994248322565962
101,4081.46383205430963059746922626414258,4080.0,1.46383205430963059746922626414258
102,4162.66581714663488410559030595294780,4161.2,1.46581714663488410559030595294780
103,4244.66778284580238569314737306999330,4243.2,1.46778284580238569314737306999330
104,4327.46972952722943600433350119861302,4326.0,1.46972952722943600433350119861302
105,4411.07165755553307232365376751619029,4409.6,1.47165755553307232365376751619029
106,4495.47356728494053145920457603341876,4494.0,1.47356728494053145920457603341876
107,4580.67545905968039288656174519129864,4579.2,1.47545905968039288656174519129864
108,4666.67733321435548198601301456922748,4665.2,1.47733321435548198601301456922748
109,4753.47919007429854461233643357209094,4752.0,1.47919007429854461233643357209094
110,4841.08102995591164181620107450757810,4839.6,1.48102995591164181620107450757810
111,4929.48285316699014767506796276826102,4928.0,1.48285316699014767506796276826102
112,5018.68466000703218375783565672670498,5017.2,1.48466000703218375783565672670498
113,5108.68645076753426821168084066883860,5107.2,1.48645076753426821168084066883860
114,5199.48822573227390870178793942598832,5198.0,1.48822573227390870178793942598832
115,5291.08998517757982798615919963014779,5289.6,1.48998517757982798615919963014779
116,5383.49172937259046257604847437990194,5382.0,1.49172937259046257604847437990194
117,5476.69345857950134321955516801622127,5475.2,1.49345857950134321955516801622127
118,5570.69517305380192491480922099232444,5569.2,1.49517305380192491480922099232444
119,5665.49687304450240044546175587485925,5664.0,1.49687304450240044546175587485925
120,5761.09855879435100558896096892857515,5759.6,1.49855879435100558896096892857515
121,5857.50023054004228588084867632922682,5856.0,1.50023054004228588084867632922682
122,5954.70188851241677590518009944162730,5953.2,1.50188851241677590518009944162730
123,6052.70353293665250988823749943191688,6051.2,1.50353293665250988823749943191688
124,6151.50516403244876469289959841838722,6150.0,1.50516403244876469289959841838722
125,6251.10678201420240674476561942960855,6249.6,1.50678201420240674476561942960855
126,6351.50838709117719922383521343645633,6350.0,1.50838709117719922383521343645633
127,6452.70997946766640527765916476001791,6451.2,1.50997946766640527765916476001791
128,6554.71155934314900042468583743284297,6553.2,1.51155934314900042468583743284297
129,6657.51312691243979524329026736020137,6656.0,1.51312691243979524329026736020137
130,6761.11468236583375106010549592097876,6759.6,1.51468236583375106010549592097876
131,6865.51622588924475594715768829066942,6864.0,1.51622588924475594715768829066942
132,6970.71775766433911336010574822149537,6969.2,1.51775766433911336010574822149537
133,7076.71927786866398396830227673528364,7075.2,1.51927786866398396830227673528364
134,7183.52078667577100995143371712454573,7182.0,1.52078667577100995143371712454573
135,7291.12228425533533292915515328830694,7289.6,1.52228425533533292915515328830694
136,7399.52377077327021300260487500604070,7398.0,1.52377077327021300260487500604070
137,7508.72524639183744307874011757866522,7507.2,1.52524639183744307874011757866522
138,7618.72671126975373903644491131339607,7617.2,1.52671126975373903644491131339607
139,7729.52816556229328418745528901946326,7728.0,1.52816556229328418745528901946326
140,7841.12960942138659103917884141449197,7839.6,1.52960942138659103917884141449197
141,7953.53104299571583880899569024355909,7952.0,1.53104299571583880899569024355909
142,8066.73246643080683706636078800722282,8065.2,1.53246643080683706636078800722282
143,8180.73387986911775722885827114341093,8179.2,1.53387986911775722885827114341093
144,8295.53528345012476645872147475092538,8294.0,1.53528345012476645872147475092538
145,8411.13667731040469431857327750020056,8409.6,1.53667731040469431857327750020056
146,8527.53806158371485467639036808033264,8526.0,1.53806158371485467639036808033264
147,8644.73943640107013714672910634088678,8643.2,1.53943640107013714672910634088678
148,8762.74080189081748339721732945237591,8761.2,1.54080189081748339721732945237591
149,8881.54215817870785012124206791214878,8880.0,1.54215817870785012124206791214878
150,9001.14350538796576231768609335802374,8999.6,1.54350538796576231768609335802374
151,9121.54484363935655279194226456816809,9120.0,1.54484363935655279194226456816809
152,9242.74617305125137817735016333852495,9241.2,1.54617305125137817735016333852495
153,9364.74749373969010042672270840307311,9363.2,1.54749373969010042672270840307311
154,9487.54880581844211767317854926526580,9486.0,1.54880581844211767317854926526580
155,9611.15010939906522269624614242272861,9609.6,1.55010939906522269624614242272861
156,9735.55140459096256685957544201108136,9734.0,1.55140459096256685957544201108136
157,9860.75269150143780056683307836273244,9859.2,1.55269150143780056683307836273244
158,9986.75397023574846205385438412726285,9985.2,1.55397023574846205385438412726285
159,10113.5552408971576781898576630734888,10112.0,1.5552408971576781898576630734888
160,10241.1565035869842436252303736308504,10239.6,1.5565035869842436252303736308504
161,10369.5577584046511367819781381935562,10368.0,1.5577584046511367819781381935562
162,10498.7590054477325321479078475572095,10497.2,1.5590054477325321479078475572095
163,10628.7602448119993637278142203856688,10627.2,1.5602448119993637278142203856688
164,10759.5614765914634942882346489338259,10758.0,1.5614765914634942882346489338259
165,10891.1627008784205389959598598348030,10889.6,1.5627008784205389959598598348030
166,11023.5639177634913939658591532312140,11022.0,1.5639177634913939658591532312140
167,11156.7651273356625169503095016277199,11155.2,1.5651273356625169503095016277199
168,11290.7663296823250028591118663914252,11289.2,1.5663296823250028591118663914252
169,11425.5675248893124991719553276515196,11424.0,1.5675248893124991719553276515196
170,11561.1687130409380009865144856636109,11559.6,1.5687130409380009865144856636109
171,11697.5698942200295658966108686224347,11696.0,1.5698942200295658966108686224347
172,11834.7710685079649865670660381878120,11833.2,1.5710685079649865670660381878120
173,11972.7722359847054564075470361186419,11971.2,1.5722359847054564075470361186419
174,12111.5733967288282641888879343391888,12110.0,1.5733967288282641888879343391888
175,12251.1745508175585515867902939233973,12249.6,1.5745508175585515867902939233973
176,12391.5756983268001633592251219152838,12390.0,1.5756983268001633592251219152838
177,12532.7768393311656234180435340011264,12531.2,1.5768393311656234180435340011264
178,12674.7779739040052659491620542489017,12673.2,1.5779739040052659491620542489017
179,12817.5791021174355480262380402292861,12816.0,1.5791021174355480262380402292861
180,12961.1802240423665746642038022893719,12959.6,1.5802240423665746642038022893719
181,13105.5813397485288589612152353892939,13104.0,1.5813397485288589612152353892939
182,13250.7824493044993450243699008460712,13249.2,1.5824493044993450243699008460712
183,13396.7835527777267167284380450383692,13395.2,1.5835527777267167284380450383692
184,13543.5846502345560165491120970289654,13542.0,1.5846502345560165491120970289654
185,13691.1857417402525962788673183315290,13689.6,1.5857417402525962788673183315290
186,13839.5868273590254205940223832736646,13838.0,1.5868273590254205940223832736646
187,13988.7879071540497472734663634772754,13987.2,1.5879071540497472734663634772754
188,14138.7889811874891995053357340370418,14137.2,1.5889811874891995053357340370418
189,14289.5900495205172540126979803992927,14288.0,1.5900495205172540126979803992927
190,14441.1911122133381606492853541721246,14439.6,1.5911122133381606492853541721246
191,14593.5921693252073126877960484662594,14592.0,1.5921693252073126877960484662594
192,14746.7932209144510841829305559004319,14745.2,1.5932209144510841829305559004319
193,14900.7942670384861527129752785232781,14899.2,1.5942670384861527129752785232781
194,15055.5953077538383208406796084460838,15054.0,1.5953077538383208406796084460838
195,15211.1963431161608542257481321438704,15209.6,1.5963431161608542257481321438704
196,15367.5973731802523500808102822390203,15366.0,1.5973731802523500808102822390203
197,15524.7983980000741503461503453912739,15523.2,1.5983980000741503461503453912739
198,15682.7994176287673137451385695560032,15681.2,1.5994176287673137451385695560032
199,15841.6004321186691595541784630399108,15840.0,1.6004321186691595541784630399108
200,16001.2014415213293970273309360709149,15999.6,1.6014415213293970273309360709149
201,16161.6024458875258514519936416131549,16160.0,1.6024458875258514519936416131549
202,16322.8034452672798002117464314630209,16321.2,1.6034452672798002117464314630209
203,16484.8044397098709295110446147105807,16483.2,1.6044397098709295110446147105807
204,16647.6054292638519233766210329852439,16646.0,1.6054292638519233766210329852439
205,16811.2064139770626949009086578927051,16809.6,1.6064139770626949009086578927051
206,16975.6073938966442727461801187448984,16974.0,1.6073938966442727461801187448984
207,17140.8083690690523487800292857935442,17139.2,1.6083690690523487800292857935442
208,17306.8093395400705010635990893541851,17305.2,1.6093395400705010635990893541851
209,17473.6103053548230979353827167066544,17472.0,1.6103053548230979353827167066544
210,17641.2112665577878946861967966912020,17639.6,1.6112665577878946861967966912020
211,17809.6122231928083301842825556297086,17808.0,1.6122231928083301842825556297086
212,17978.8131753031055336776565731019841,17977.2,1.6131753031055336776565731019841
213,18148.8141229312900461515985660550032,18147.2,1.6141229312900461515985660550032
214,18319.6150661193732712169593974163574,18318.0,1.6150661193732712169593974163574
215,18491.2160049087786547355134001205132,18489.6,1.6160049087786547355134001205132
216,18663.6169393403526071368051198526557,18662.0,1.6169393403526071368051198526557
217,18836.8178694543751723855253883907447,18835.2,1.6178694543751723855253883907447
218,19010.8187952905704525718591632322539,19009.2,1.6187952905704525718591632322539
219,19185.6197168881167913977334544949122,19184.0,1.6197168881167913977334544949122
220,19361.2206342856567290670854941013322,19359.6,1.6206342856567290670854941013322
221,19537.6215475213067264824331459678597,19536.0,1.6215475213067264824331459678597
222,19714.8224566326666759451051424321333,19713.2,1.6224566326666759451051424321333
223,19892.8233616568291919199543119029108,19891.2,1.6233616568291919199543119029108
224,20071.6242626303886969238438651037455,20070.0,1.6242626303886969238438651037455
225,20251.2251595894503050944410175172901,20249.6,1.6251595894503050944410175172901
226,20431.6260525696385069772504815430801,20430.0,1.6260525696385069772504815430801
227,20612.8269416061056641737258689143806,20611.2,1.6269416061056641737258689143806
228,20794.8278267335403156606498459803778,20793.2,1.6278267335403156606498459803778
229,20977.6287079861753029329178445250070,20976.0,1.6287079861753029329178445250070
230,21161.2295853977957186559531365020003,21159.6,1.6295853977957186559531365020003
231,21345.6304590017466806170071772400316,21344.0,1.6304590017466806170071772400316
232,21530.8313288309409413842492090863672,21529.2,1.6313288309409413842492090863672
233,21716.8321949178663286591327408553234,21715.2,1.6321949178663286591327408553234
234,21903.6330572945930324680877831374448,21902.0,1.6330572945930324680877831374448
235,22091.2339159927807323646216887346641,22089.6,1.6339159927807323646216887346641
236,22279.6347710436855743405795208690392,22278.0,1.6347710436855743405795208690392
237,22468.8356224781670010666732586448514,22467.2,1.6356224781670010666732586448514
238,22658.8364703266944371932730206560799,22657.2,1.6364703266944371932730206560799
