Eigenstate,Energy,Kinetic Energy,Potential Energy
1,0.500000000071314157929078802740678640,0.0,0.500000000071314157929078802740678640
2,1.84623093811661694088227479438683266,1.2,0.64623093811661694088227479438683266
3,3.93633761107235400595002497451775600,3.2,0.73633761107235400595002497451775600
4,6.79966528066234013833984102057270041,6.0,0.79966528066234013833984102057270041
5,10.4480465802191986082978526582918084,9.6,0.8480465802191986082978526582918084
6,14.8870660045044642484928808467425763,14.0,0.8870660045044642484928808467425763
7,20.1197208349595390557553194398800344,19.2,0.9197208349595390557553194398800344
8,26.1477838579630892744657838271922897,25.2,0.9477838579630892744657838271922897
9,32.9723835725224131316003018461411906,32.0,0.9723835725224131316003018461411906
10,40.5942802327867460465188558854921954,39.6,0.9942802327867460465188558854921954
11,49.0140094088975979970319112658610077,48.0,1.0140094088975979970319112658610077
12,58.2319621961599606990021542581367001,57.2,1.0319621961599606990021542581367001
13,68.2484327246399405348184576537798420,67.2,1.0484327246399405348184576537798420
14,79.0636476920209437535226603822707244,78.0,1.0636476920209437535226603822707244
15,90.6777854794178756377783137705775534,89.6,1.0777854794178756377783137705775534
16,103.090988956247594608829907838058799,102.0,1.090988956247594608829907838058799
17,116.303374313690422543163967907425197,115.2,1.103374313690422543163967907425197
18,130.315037315696348335730595028647159,129.2,1.115037315696348335730595028647159
19,145.126057822089008411165629161118044,144.0,1.126057822089008411165629161118044
20,160.736503126199625254836490533414844,159.6,1.136503126199625254836490533414844
21,177.146430460948706127195629890736097,176.0,1.146430460948706127195629890736097
22,194.355888910004784345923226053234764,193.2,1.155888910004784345923226053234764
23,212.364920885720944814099503135033194,211.2,1.164920885720944814099503135033194
24,231.173563286535246852624283734196793,230.0,1.173563286535246852624283734196793
25,250.781848413766651118600412214354796,249.6,1.181848413766651118600412214354796
26,271.189804705422607773870435798921446,270.0,1.189804705422607773870435798921446
27,292.397457329161632656546966824008903,291.2,1.197457329161632656546966824008903
28,314.404828665652347392319593605165978,313.2,1.204828665652347392319593605165978
29,337.211938705775431556007569146237730,336.0,1.211938705775431556007569146237730
30,360.818805379465447421144552074038597,359.6,1.218805379465447421144552074038597
31,385.225444829843559332888505900615746,384.0,1.225444829843559332888505900615746
32,410.431871643214270153083982776919167,409.2,1.231871643214270153083982776919167
33,436.438099043189649420908576427580888,435.2,1.238099043189649420908576427580888
34,463.244139055453981605454075479618792,462.0,1.244139055453981605454075479618792
35,490.850002648342567760214578644965713,489.6,1.250002648342567760214578644965713
36,519.255699853374935010403846053500151,518.0,1.255699853374935010403846053500151
37,548.461239869078623755135758234010863,547.2,1.261239869078623755135758234010863
38,578.466631150809303723081168866351337,577.2,1.266631150809303723081168866351337
39,609.271881488775121370484353761277402,608.0,1.271881488775121370484353761277402
40,640.876998076077360326714415635010424,639.6,1.276998076077360326714415635010424
41,673.281987568262746318680063618476005,672.0,1.281987568262746318680063618476005
42,706.486856135627735403832925205078848,705.2,1.286856135627735403832925205078848
43,740.491609509308637996491471746074185,739.2,1.291609509308637996491471746074185
44,775.296253022023337156653020530222776,774.0,1.296253022023337156653020530222776
45,810.900791644192790041416607974538486,809.6,1.300791644192790041416607974538486
46,847.305230016057365136508181291658793,846.0,1.305230016057365136508181291658793
47,884.509572476309591273037709524129651,883.2,1.309572476309591273037709524129651
48,922.513823087687308070345526747902553,921.2,1.313823087687308070345526747902553
49,961.317985659906544901878919859328065,960.0,1.317985659906544901878919859328065
50,1000.92206377025933276737065252840643,999.6,1.32206377025933276737065252840643
51,1041.32606078215618649210557914079701,1040.0,1.32606078215618649210557914079701
52,1082.52997986185464945975104679039545,1081.2,1.32997986185464945975104679039545
53,1124.53382399358284296667177103064991,1123.2,1.33382399358284296667177103064991
54,1167.33759599323940115418626920016861,1166.0,1.33759599323940115418626920016861
55,1210.94129852082769698270367129543679,1209.6,1.34129852082769698270367129543679
56,1255.34493409176219014154930766046268,1254.0,1.34493409176219014154930766046268
57,1300.54850508716752882316390235791484,1299.2,1.34850508716752882316390235791484
58,1346.55201376327624010406673825580187,1345.2,1.35201376327624010406673825580187
59,1393.35546226001808972769435173108752,1392.0,1.35546226001808972769435173108752
60,1440.95885260888316757652175302935636,1439.6,1.35885260888316757652175302935636
61,1489.36218674013119089336600157387065,1488.0,1.36218674013119089336600157387065
62,1538.56546648941121630665666234735861,1537.2,1.36546648941121630665666234735861
63,1588.56869360384870982543523656527526,1587.2,1.36869360384870982543523656527526
64,1639.37186974765061148992215078339799,1638.0,1.37186974765061148992215078339799
65,1690.97499650727349652351593913596970,1689.6,1.37499650727349652351593913596970
66,1743.37807539619508749303382170450785,1742.0,1.37807539619508749303382170450785
67,1796.58110785932510969267623932894205,1795.2,1.38110785932510969267623932894205
68,1850.58409527708772580638850726032907,1849.2,1.38409527708772580638850726032907
69,1905.38703896920447323256535429253241,1904.0,1.38703896920447323256535429253241
70,1960.98994019820369918677898976830024,1959.6,1.38994019820369918677898976830024
71,2017.39280017267988999448040033125433,2016.0,1.39280017267988999448040033125433
72,2074.59562005032399274324240119332669,2073.2,1.39562005032399274324240119332669
73,2132.59840094074377445770981401024765,2131.2,1.39840094074377445770981401024765
74,2191.40114390809144511186840280628378,2190.0,1.40114390809144511186840280628378
75,2251.00384997351413969214125409699778,2249.6,1.40384997351413969214125409699778
76,2311.40652011744140496806536628064353,2310.0,1.40652011744140496806536628064353
77,2372.60915528172253422888318412388255,2371.2,1.40915528172253422888318412388255
78,2434.61175637162542744620322461653593,2433.2,1.41175637162542744620322461653593
79,2497.41432425770760750289144112458755,2496.0,1.41432425770760750289144112458755
80,2561.01685977756908500271034520320492,2559.6,1.41685977756908500271034520320492
81,2625.41936373749591483374632650851889,2624.0,1.41936373749591483374632650851889
82,2690.62183691400252620811168310821980,2689.2,1.42183691400252620811168310821980
83,2756.62428005528021916661828503395178,2755.2,1.42428005528021916661828503395178
84,2823.42669388255859624540343960187298,2822.0,1.42669388255859624540343960187298
85,2891.02907909138613872531491601865219,2889.6,1.42907909138613872531491601865219
86,2959.43143635283562101947237405880463,2958.0,1.43143635283562101947237405880463
87,3028.63376631463959928362301198858374,3027.2,1.43376631463959928362301198858374
88,3098.63606960226078695617298560278270,3097.2,1.43606960226078695617298560278270
89,3169.43834681990174643261493373288297,3168.0,1.43834681990174643261493373288297
90,3241.04059855145798286234254269295182,3239.6,1.44059855145798286234254269295182
91,3313.44282536141820460379245685976309,3312.0,1.44282536141820460379245685976309
92,3386.64502779571522657631453749413410,3385.2,1.44502779571522657631453749413410
93,3460.64720638253073049211605856094502,3459.2,1.44720638253073049211605856094502
94,3535.44936163305685302288717368275540,3534.0,1.44936163305685302288717368275540
95,3611.05149404221735180168615399878426,3609.6,1.45149404221735180168615399878426
96,3687.45360408935089733854620815430163,3686.0,1.45360408935089733854620815430163
97,3764.65569223885885458615664902041502,3763.2,1.45569223885885458615664902041502
98,3842.65775894081974501767583861386388,3841.2,1.45775894081974501767583861386388
99,3921.45980463157242660654489188146840,3920.0,1.45980463157242660654489188146840
100,4001.06182973426988275775464109435126,3999.6,1.46182973426988275775464109435126
101,4081.46383465940538193586425221358775,4080.0,1.46383465940538193586425221358775
102,4162.66581980531264416034863551220018,4161.2,1.46581980531264416034863551220018
103,4244.66778555864154262523899520989433,4243.2,1.46778555864154262523899520989433
104,4327.46973229481076143531104534336428,4326.0,1.46973229481076143531104534336428
105,4411.07166037843873737731761615689332,4409.6,1.47166037843873737731761615689332
106,4495.47357016375412288051964103175788,4494.0,1.47357016375412288051964103175788
107,4580.67546199498692923881363974969168,4579.2,1.47546199498692923881363974969168
108,4666.67733620674142992719989002863092,4665.2,1.47733620674142992719989002863092
109,4753.47919312435183525180107146653586,4752.0,1.47919312435183525180107146653586
110,4841.08103306422168715251647149968329,4839.6,1.48103306422168715251647149968329
111,4929.48285633414785711619812811240114,4928.0,1.48285633414785711619812811240114
112,5018.68466323362998072460229303347102,5017.2,1.48466323362998072460229303347102
113,5108.68645405416610682557528404392684,5107.2,1.48645405416610682557528404392684
114,5199.48822907953529055817665310034913,5198.0,1.48822907953529055817665310034913
115,5291.08998858606781901394033077170700,5289.6,1.48998858606781901394033077170700
116,5383.49173284290370998482593138873561,5382.0,1.49173284290370998482593138873561
117,5476.69346211224009253540621377405667,5475.2,1.49346211224009253540621377405667
118,5570.69517664956803710573062165733155,5569.2,1.49517664956803710573062165733155
119,5665.49687670389936913758931948239493,5664.0,1.49687670389936913758931948239493
120,5761.09856251798397437466689941465878,5759.6,1.49856251798397437466689941465878
121,5857.50023432851806571983075915829201,5856.0,1.50023432851806571983075915829201
122,5954.70189236634386261966678827987003,5953.2,1.50189236634386261966678827987003
123,6052.70353685664110175344284573530743,6051.2,1.50353685664110175344284573530743
124,6151.50516801911078012387215699546325,6150.0,1.50516801911078012387215699546325
125,6251.10678606815150208078571772059562,6249.6,1.50678606815150208078571772059562
126,6351.50839121302878661152542079598143,6350.0,1.50839121302878661152542079598143
127,6452.70998365803767065398315252303060,6451.2,1.50998365803767065398315252303060
128,6554.71156360265892160102181632163172,6553.2,1.51156360265892160102181632163172
129,6657.51313124170916009177569610967204,6656.0,1.51313124170916009177569610967204
130,6761.11468676548517580346081848757280,6759.6,1.51468676548517580346081848757280
131,6865.51623035990270355320795651273206,6864.0,1.51623035990270355320795651273206
132,6970.71776220662991204223051407693904,6969.2,1.51776220662991204223051407693904
133,7076.71928248321584579305482819007667,7075.2,1.51928248321584579305482819007667
134,7183.52079136321404955458313536321493,7182.0,1.52079136321404955458313536321493
135,7291.12228901630158634141586676486139,7289.6,1.52228901630158634141586676486139
136,7399.52377560839365658633028392958063,7398.0,1.52377560839365658633028392958063
137,7508.72525130175401257686908897456868,7507.2,1.52525130175401257686908897456868
138,7618.72671625510134873500201531154539,7617.2,1.52671625510134873500201531154539
139,7729.52817062371184619291799022234524,7728.0,1.52817062371184619291799022234524
140,7841.12961455951803467203749667757712,7839.6,1.52961455951803467203749667757712
141,7953.53104821120413011484458791700700,7952.0,1.53104821120413011484458791700700
142,8066.73247172429799844587179846279854,8065.2,1.53247172429799844587179846279854
143,8180.73388524125988718800128069596699,8179.2,1.53388524125988718800128069596699
144,8295.53528890156805948060934382068616,8294.0,1.53528890156805948060934382068616
145,8411.13668284180146085832206123605158,8409.6,1.53668284180146085832206123605158
146,8527.53806719571954128039951347270460,8526.0,1.53806719571954128039951347270460
147,8644.73944209433934669779990287932929,8643.2,1.53944209433934669779990287932929
148,8762.74080766600999548694172182125604,8761.2,1.54080766600999548694172182125604
149,8881.54216403648464155110848690256234,8880.0,1.54216403648464155110848690256234
150,9001.14351132899002773036254424119773,8999.6,1.54351132899002773036254424119773
151,9121.54484966429372543421242726650112,9120.0,1.54484966429372543421242726650112
152,9242.74617916076915079619215540794252,9241.2,1.54617916076915079619215540794252
153,9364.74749993445844630003550782147097,9363.2,1.54749993445844630003550782147097
154,9487.54881209913331177667590893817615,9486.0,1.54881209913331177667590893817615
155,9611.15011576635386300805344268910098,9609.6,1.55011576635386300805344268910098
156,9735.55141104552559580408058085011618,9734.0,1.55141104552559580408058085011618
157,9860.75269804395452659935760746230356,9859.2,1.55269804395452659935760746230356
158,9986.75397686690058138772782964581586,9985.2,1.55397686690058138772782964581586
159,10113.5552476176292966674936278955516,10112.0,1.5552476176292966674936278955516
160,10241.1565103974618987348197176918036,10239.6,1.5565103974618987348197176918036
161,10369.5577653058238198214310528123086,10368.0,1.5577653058238198214310528123086
162,10498.7590124402917105376936314887790,10497.2,1.5590124402917105376936314887790
163,10628.7602518966390034743642528673588,10627.2,1.5602518966390034743642528673588
164,10759.5614837688800825995919062295898,10758.0,1.5614837688800825995919062295898
165,10891.1627081493131070513758444989802,10889.6,1.5627081493131070513758444989802
166,11023.5639251285615398410563053650600,11022.0,1.5639251285615398410563053650600
167,11156.7651347956144287001458140627032,11155.2,1.5651347956144287001458140627032
168,11290.7663372378654817594028042348943,11289.2,1.5663372378654817594028042348943
169,11425.5675325411509831222260104842410,11424.0,1.5675325411509831222260104842410
170,11561.1687207897865880754747258502288,11559.6,1.5687207897865880754747258502288
171,11697.5699020666030381321641090937360,11696.0,1.5699020666030381321641090937360
172,11834.7710764529808337726829677815499,11833.2,1.5710764529808337726829677815499
173,11972.7722440288839002868538397843132,11971.2,1.5722440288839002868538397843132
174,12111.5734048728922825603394662713252,12110.0,1.5734048728922825603394662713252
175,12251.1745590622339027903182985745318,12249.6,1.5745590622339027903182985745318
176,12391.5757066728154108367721675437528,12390.0,1.5757066728154108367721675437528
177,12532.7768477792521604699139557304859,12531.2,1.5768477792521604699139557304859
178,12674.7779824548973406681422103378464,12673.2,1.5779824548973406681422103378464
179,12817.5791107718702884114594783674331,12816.0,1.5791107718702884114594783674331
180,12961.1802328010840139167446384669777,12959.6,1.5802328010840139167446384669777
181,13105.5813486122719609634566491315040,13104.0,1.5813486122719609634566491315040
182,13250.7824582740140300051470258747825,13249.2,1.5824582740140300051470258747825
183,13396.7835618537618871160469362318837,13395.2,1.5835618537618871160469362318837
184,13543.5846594178635830142573105353685,13542.0,1.5846594178635830142573105353685
185,13691.1857510315875039696579878265434,13689.6,1.5857510315875039696579878265434
186,13839.5868367591456755651473255436995,13838.0,1.5868367591456755651473255436995
187,13988.7879166637164431117035492825406,13987.2,1.5879166637164431117035492825406
188,14138.7889908074665441535748185951718,14137.2,1.5889908074665441535748185951718
189,14289.5900592515725967946794063255032,14288.0,1.5900592515725967946794063255032
190,14441.1911220562420194972839834190518,14439.6,1.5911220562420194972839834190518
191,14593.5921792807334015755027557199145,14592.0,1.5921792807334015755027557199145
192,14746.7932309833763407658107283844843,14745.2,1.5932309833763407658107283844843
193,14900.7942772215907661784084333786972,14899.2,1.5942772215907661784084333786972
194,15055.5953180519057599702109976013053,15054.0,1.5953180519057599702109976013053
195,15211.1963535299778956718101415788178,15209.6,1.5963535299778956718101415788178
196,15367.5973837106091068602971484721803,15366.0,1.5973837106091068602971484721803
197,15524.7984086477641005532587833702423,15523.2,1.5984086477641005532587833702423
198,15682.7994283945873294859124845627056,15681.2,1.5994283945873294859124845627056
199,15841.6004430034195361052264954777903,15840.0,1.6004430034195361052264954777903
200,16001.2014525258138822212115695843930,15999.6,1.6014525258138822212115695843930
201,16161.6024570125516752917934400977271,16160.0,1.6024570125516752917934400977271
202,16322.8034565136577047174053976268979,16321.2,1.6034565136577047174053976268979
203,16484.8044510784151988000123282941595,16483.2,1.6044510784151988000123282941595
204,16647.6054407553804139814580228164236,16646.0,1.6054407553804139814580228164236
205,16811.2064255923968663264770345870983,16809.6,1.6064255923968663264770345870983
206,16975.6074056366092182690993390098928,16974.0,1.6074056366092182690993390098928
207,17140.8083809344768264931044813971376,17139.2,1.6083809344768264931044813971376
208,17306.8093515317869651679602434416692,17305.2,1.6093515317869651679602434416692
209,17473.6103174736677302831067341577728,17472.0,1.6103174736677302831067341577728
210,17641.2112788046006365762160965490036,17639.6,1.6112788046006365762160965490036
211,17809.6122355684329144144179042764554,17808.0,1.6122355684329144144179042764554
212,17978.8131878083895168556452579458858,17977.2,1.6131878083895168556452579458858
213,18148.8141355670848412680236490889345,18147.2,1.6141355670848412680236490889345
214,18319.6150788865341804830200891207670,18318.0,1.6150788865341804830200891207670
215,18491.2160178081649026886121293822674,18489.6,1.6160178081649026886121293822674
216,18663.6169523728273740169627236819940,18662.0,1.6169523728273740169627236819940
217,18836.8178826208056277856718065495900,18835.2,1.6178826208056277856718065495900
218,19010.8188085918277893650839160111173,19009.2,1.6188085918277893650839160111173
219,19185.6197303250762599446180975955405,19184.0,1.6197303250762599446180975955405
220,19361.2206478591976717062771129485955,19359.6,1.6206478591976717062771129485955
221,19537.6215612323126123076572688362637,19536.0,1.6215612323126123076572688362637
222,19714.8224704820251358718550571604619,19713.2,1.6224704820251358718550571604619
223,19892.8233756454320540451332208733992,19891.2,1.6233756454320540451332208733992
224,20071.6242767591320221816766434210551,20070.0,1.6242767591320221816766434210551
225,20251.2251738592344232120133831644091,20249.6,1.6251738592344232120133831644091
226,20431.6260669813680527330742269906964,20430.0,1.6260669813680527330742269906964
227,20612.8269561606896139627702885722010,20611.2,1.6269561606896139627702885722010
228,20794.8278414318920243693237987757762,20793.2,1.6278414318920243693237987757762
229,20977.6287228292125411275279025946089,20976.0,1.6287228292125411275279025946089
230,21161.2296003864407100882085607586419,21159.6,1.6296003864407100882085607586419
231,21345.6304741369261400501863958544839,21344.0,1.6304741369261400501863958544839
232,21530.8313441135861127436875894466669,21529.2,1.6313441135861127436875894466669
233,21716.8322103489130235107373730887780,21715.2,1.6322103489130235107373730887780
234,21903.6330728749816688286313666489339,21902.0,1.6330728749816688286313666489339
235,22091.2339317234563738476147198622609,22089.6,1.6339317234563738476147198622609
236,22279.6347869255979696415677902817523,22278.0,1.6347869255979696415677902817523
237,22468.8356385122706237918567437355623,22467.2,1.6356385122706237918567437355623
238,22658.8364865139485260353906754759094,22657.2,1.6364865139485260353906754759094
