Eigenstate,Energy,Kinetic Energy,Potential Energy
1,0.500000000026519702795642412088114858,0.0,0.500000000026519702795642412088114858
2,1.84623093782422133822232201819591111,1.2,0.64623093782422133822232201819591111
3,3.93633761021346212504665278051241857,3.2,0.73633761021346212504665278051241857
4,6.79966527887335674403739032869922848,6.0,0.79966527887335674403739032869922848
5,10.4480465771202919154608488262373804,9.6,0.8480465771202919154608488262373804
6,14.8870659997091414241600005330212510,14.0,0.8870659997091414241600005330212510
7,20.1197208280781727307500165807734272,19.2,0.9197208280781727307500165807734272
8,26.1477838486043867532950722867773616,25.2,0.9477838486043867532950722867773616
9,32.9723835602940982063247611041159216,32.0,0.9723835602940982063247611041159216
10,40.5942802172959037847572761011157143,39.6,0.9942802172959037847572761011157143
11,49.0140093897508608719451660083682399,48.0,1.0140093897508608719451660083682399
12,58.2319621729636138679421600043933950,57.2,1.0319621729636138679421600043933950
13,68.2484326969999831005881263124714776,67.2,1.0484326969999831005881263124714776
14,79.0636476595431246919230585905114522,78.0,1.0636476595431246919230585905114522
15,90.6777854417077144401441170012217221,89.6,1.0777854417077144401441170012217221
16,103.090988912910392321577979535255026,102.0,1.090988912910392321577979535255026
17,116.303374264331266558990481045267374,115.2,1.103374264331266558990481045267374
18,130.315037259920112992743079735136046,129.2,1.115037259920112992743079735136046
19,145.126057759500352702491301159891076,144.0,1.126057759500352702491301159891076
20,160.736503056402988498041284058616660,159.6,1.136503056402988498041284058616660
21,177.146430383548302161740560161021651,176.0,1.146430383548302161740560161021651
22,194.355888824604594647622353873174488,193.2,1.155888824604594647622353873174488
23,212.364920791924710798351377466571817,211.2,1.164920791924710798351377466571817
24,231.173563183946461559839343205557559,230.0,1.173563183946461559839343205557559
25,250.781848301988550421793100492686031,249.6,1.181848301988550421793100492686031
26,271.189804584058161211237739665496424,270.0,1.189804584058161211237739665496424
27,292.397457197813533965602032177058044,291.2,1.197457197813533965602032177058044
28,314.404828523923004803307050259547154,313.2,1.204828523923004803307050259547154
29,337.211938553266957888611091196997760,336.0,1.211938553266957888611091196997760
30,360.818805215779650018381240639947284,359.6,1.218805215779650018381240639947284
31,385.225444654581929858533164629526449,384.0,1.225444654581929858533164629526449
32,410.431871455977974273265714117754822,409.2,1.231871455977974273265714117754822
33,436.438098843579516386173527998940050,435.2,1.238098843579516386173527998940050
34,463.244138843070493746238627998525281,462.0,1.244138843070493746238627998525281
35,490.850002422785849906069629339039361,489.6,1.250002422785849906069629339039361
36,519.255699614244743841269826159976103,518.0,1.255699614244743841269826159976103
37,548.461239615974337091355043181878435,547.2,1.261239615974337091355043181878435
38,578.466630883329909759550372203993939,577.2,1.266630883329909759550372203993939
39,609.271881206519207859319241622309209,608.0,1.271881206519207859319241622309209
40,640.876997778643103711968823593398049,639.6,1.276997778643103711968823593398049
41,673.281987255247900825984898175770594,672.0,1.281987255247900825984898175770594
42,706.486855806629622087269282544679848,705.2,1.286855806629622087269282544679848
43,740.491609163924133744558079595443267,739.2,1.291609163924133744558079595443267
44,775.296252659848863658813151252003655,774.0,1.296252659848863658813151252003655
45,810.900791264824302716397878370232327,809.6,1.300791264824302716397878370232327
46,847.305229619090342023268263143450560,846.0,1.305229619090342023268263143450560
47,884.509572061339021885090536514508610,883.2,1.309572061339021885090536514508610
48,922.513822654307682213958256119921785,921.2,1.313822654307682213958256119921785
49,961.317985207711841458493834258632159,960.0,1.317985207711841458493834258632159
50,1000.92206329884300844047339697927729,999.6,1.32206329884300844047339697927729
51,1041.32606029111116451864750692401489,1040.0,1.32606029111116451864750692401489
52,1082.52997935077330828613605719396507,1081.2,1.32997935077330828613605719396507
53,1124.53382346205700488923403224081653,1123.2,1.33382346205700488923403224081653
54,1167.33759544086032092401245446019725,1166.0,1.33759544086032092401245446019725
55,1210.94129794718605037459014553165029,1209.6,1.34129794718605037459014553165029
56,1255.34493349644806248682952658262795,1254.0,1.34493349644806248682952658262795
57,1300.54850446977040350609296801698637,1299.2,1.34850446977040350609296801698637
58,1346.55201312338498702140731839122921,1345.2,1.35201312338498702140731839122921
59,1393.35546159722095371111075187204285,1392.0,1.35546159722095371111075187204285
60,1440.95885192276775677735536433131263,1439.6,1.35885192276775677735536433131263
61,1489.36218603028446512933561852011086,1488.0,1.36218603028446512933561852011086
62,1538.56546575541947537000041370025213,1537.2,1.36546575541947537000041370025213
63,1588.56869284529758175198692553964104,1587.2,1.36869284529758175198692553964104
64,1639.37186896412504078859312566573219,1638.0,1.37186896412504078859312566573219
65,1690.97499569835773236563380189254929,1689.6,1.37499569835773236563380189254929
66,1743.37807456147267186097140286389845,1742.0,1.37807456147267186097140286389845
67,1796.58110699837886548718778727340333,1795.2,1.38110699837886548718778727340333
68,1850.58409438949974491205486654453543,1849.2,1.38409438949974491205486654453543
69,1905.38703805455610454073573297323785,1904.0,1.38703805455610454073573297323785
70,1960.98993925607553657538416338813371,1959.6,1.38993925607553657538416338813371
71,2017.39279920265176026407962401310068,2016.0,1.39279920265176026407962401310068
72,2074.59561905197494350865521863034168,2073.2,1.39561905197494350865521863034168
73,2132.59839991365206199457284368195430,2131.2,1.39839991365206199457284368195430
74,2191.40114285183452215744715403140915,2190.0,1.40114285183452215744715403140915
75,2251.00384888766864319971713392488805,2249.6,1.40384888766864319971713392488805
76,2311.40651900158314381420889414851707,2310.0,1.40651900158314381420889414851707
77,2372.60915413542647687291536104082016,2371.2,1.40915413542647687291536104082016
78,2434.61175519446568954113838035367868,2433.2,1.41175519446568954113838035367868
79,2497.41432304925743945714660447901483,2496.0,1.41432304925743945714660447901483
80,2561.01685853740085949185811116201901,2559.6,1.41685853740085949185811116201901
81,2625.41936246518111426158017882869117,2624.0,1.41936246518111426158017882869117
82,2690.62183560911173011628512418227416,2689.2,1.42183560911173011628512418227416
83,2756.62427871738309159211148863358055,2755.2,1.42427871738309159211148863358055
84,2823.42669251122387302506375467576421,2822.0,1.42669251122387302506375467576421
85,2891.02907768618161474671008751815150,2889.6,1.42907768618161474671008751815150
86,2959.43143491332813741728829005617550,2958.0,1.43143491332813741728829005617550
87,3028.63376484039503058083032692295148,3027.2,1.43376484039503058083032692295148
88,3098.63606809284402814918001633228311,3097.2,1.43606809284402814918001633228311
89,3169.43834527487670001961705735240249,3168.0,1.43834527487670001961705735240249
90,3241.04059697038754581407123180442893,3239.6,1.44059697038754581407123180442893
91,3313.44282374386425527585997281958366,3312.0,1.44282374386425527585997281958366
92,3386.64502614123861156234331238002387,3385.2,1.44502614123861156234331238002387
93,3460.64720469069125141683463062265754,3459.2,1.44720469069125141683463062265754
94,3535.44935990341325327436749070516908,3534.0,1.44935990341325327436749070516908
95,3611.05149227432730320188986708277922,3609.6,1.45149227432730320188986708277922
96,3687.45360228277098675134058313172327,3686.0,1.45360228277098675134058313172327
97,3764.65569039314457046195326371884055,3763.2,1.45569039314457046195326371884055
98,3842.65775705552546387383826715776498,3841.2,1.45775705552546387383826715776498
99,3921.45980270625139944270407232688391,3920.0,1.45980270625139944270407232688391
100,4001.06182776847422140516341065754774,3999.6,1.46182776847422140516341065754774
101,4081.46383265268604533991501617809761,4080.0,1.46383265268604533991501617809761
102,4162.66581775721942459537076985925595,4161.2,1.46581775721942459537076985925595
103,4244.66778346872305184068510127905012,4243.2,1.46778346872305184068510127905012
104,4327.46973016261441673243318120230056,4326.0,1.46973016261441673243318120230056
105,4411.07165820351074761542741577738578,4409.6,1.47165820351074761542741577738578
106,4495.47356794563947441191814861061766,4494.0,1.47356794563947441191814861061766
107,4580.67545973322937177146900724694239,4579.2,1.47545973322937177146900724694239
108,4666.67733390088346231424294481147377,4665.2,1.47733390088346231424294481147377
109,4753.47919077393469120690089997652356,4752.0,1.47919077393469120690089997652356
110,4841.08103066878532089018988687417081,4839.6,1.48103066878532089018988687417081
111,4929.48285389323092891609885174720944,4928.0,1.48285389323092891609885174720944
112,5018.68466074676984241882713824067845,5017.2,1.48466074676984241882713824067845
113,5108.68645152089878720801631090341480,5107.2,1.48645152089878720801631090341480
114,5199.48822649939548071493979240680279,5198.0,1.48822649939548071493979240680279
115,5291.08998595858885757384215043071472,5289.6,1.48998595858885757384215043071472
116,5383.49173016761756828897168374062433,5382.0,1.49173016761756828897168374062433
117,5476.69345938867735972484317328255782,5475.2,1.49345938867735972484317328255782
118,5570.69517387725790512616211371826158,5569.2,1.49517387725790512616211371826158
119,5665.49687388236961766012542211849775,5664.0,1.49687388236961766012542211849775
120,5761.09855964676095563157866023108287,5759.6,1.49855964676095563157866023108287
121,5857.50023140712668925426557948640600,5856.0,1.50023140712668925426557948640600
122,5954.70188939430757994827299815867878,5953.2,1.50188939430757994827299815867878
123,6052.70353383348189094084203931592536,6051.2,1.50353383348189094084203931592536
124,6151.50516494434913026790807655909094,6150.0,1.50516494434913026790807655909094
125,6251.10678294130639770746867676542123,6249.6,1.50678294130639770746867676542123
126,6351.50838803361769197858122068261333,6350.0,1.50838803361769197858122068261333
127,6452.70998042557651396190549799418870,6451.2,1.50998042557651396190549799418870
128,6554.71156031666207911051674421995125,6553.2,1.51156031666207911051674421995125
129,6657.51312790168944014647637230823252,6656.0,1.51312790168944014647637230823252
130,6761.11468337095380275678049327725697,6759.6,1.51468337095380275678049327725697
131,6865.51622691036930159818820599840554,6864.0,1.51622691036930159818820599840554
132,6970.71775870160248894323081984149563,6969.2,1.51775870160248894323081984149563
133,7076.71927892220077651811924561740850,7075.2,1.51927892220077651811924561740850
134,7183.52078774571605980730795904118471,7182.0,1.52078774571605980730795904118471
135,7291.12228534182373599113140372020065,7289.6,1.52228534182373599113140372020065
136,7399.52377187643732299539834604955694,7398.0,1.52377187643732299539834604955694
137,7508.72524751181887382388620142806343,7507.2,1.52524751181887382388620142806343
138,7618.72671240668536673268660048228469,7617.2,1.52671240668536673268660048228469
139,7729.52816671631124969944800655570852,7728.0,1.52816671631124969944800655570852
140,7841.12961059262730219459282068631722,7839.6,1.52961059262730219459282068631722
141,7953.53104418431597270409646797072844,7952.0,1.53104418431597270409646797072844
142,8066.73246763690334238014901161683717,8065.2,1.53246763690334238014901161683717
143,8180.73388109284785654585033159970679,8179.2,1.53388109284785654585033159970679
144,8295.53528469162595860045314809811668,8294.0,1.53528469162595860045314809811668
145,8411.13667856981475668390889537484819,8409.6,1.53667856981475668390889537484819
146,8527.53806286117184559072067150613544,8526.0,1.53806286117184559072067150613544
147,8644.73943769671239822014140025168352,8643.2,1.53943769671239822014140025168352
148,8762.74080320478364189172201836115798,8761.2,1.54080320478364189172201836115798
149,8881.54215951113682132714027019419547,8880.0,1.54215951113682132714027019419547
150,9001.14350673899675193916348481200450,8999.6,1.54350673899675193916348481200450
151,9121.54484500912905934197487569891428,9120.0,1.54484500912905934197487569891428
152,9242.74617443990519538200834679875805,9241.2,1.54617443990519538200834679875805
153,9364.74749514736531963896011520839042,9363.2,1.54749514736531963896011520839042
154,9487.54880724527913029619335596956221,9486.0,1.54880724527913029619335596956221
155,9611.15011084520472261650245604948840,9609.6,1.55011084520472261650245604948840
156,9735.55140605654555288957336097692293,9734.0,1.55140605654555288957336097692293
157,9860.75269298660557889771633897532722,9859.2,1.55269298660557889771633897532722
158,9986.75397174064264871794519262714491,9985.2,1.55397174064264871794519262714491
159,10113.5552424219202015332088631647727,10112.0,1.5552424219202015332088631647727
160,10241.1565051317573467902856381274447,10239.6,1.5565051317573467902856381274447
161,10369.5577599695773802004315140683614,10368.0,1.5577599695773802004315140683614
162,10498.7590070329547960438545935249605,10497.2,1.5590070329547960438545935249605
163,10628.7602464176608506312853213699765,10627.2,1.5602464176608506312853213699765
164,10759.5614782177077315592081809459033,10758.0,1.5614782177077315592081809459033
165,10891.1627025253913813589429423416604,10889.6,1.5627025253913813589429423416604
166,11023.5639194313330260551347263523910,11022.0,1.5639194313330260551347263523910
167,11156.7651290245194558659428845034562,11155.2,1.5651290245194558659428845034562
168,11290.7663313923421007338127419176891,11289.2,1.5663313923421007338127419176891
169,11425.5675266206349457488912325266280,11424.0,1.5675266206349457488912325266280
170,11561.1687147937113262081727957027168,11559.6,1.5687147937113262081727957027168
171,11697.5698959943996425048066116384898,11696.0,1.5698959943996425048066116384898
172,11834.7710703040780327141938086685648,11833.2,1.5710703040780327141938086685648
173,11972.7722378027080382791757109623701,11971.2,1.5722378027080382791757109623701
174,12111.5733985688672986377977154066546,12110.0,1.5733985688672986377977154066546
175,12251.1745526797813087785521907654528,12249.6,1.5745526797813087785521907654528
176,12391.5757002113542694294237010084961,12390.0,1.5757002113542694294237010084961
177,12532.7768412381990631412444468224832,12531.2,1.5768412381990631412444468224832
178,12674.7779758336663854197265131979313,12673.2,1.5779758336663854197265131979313
179,12817.5791040698730573510871693303947,12816.0,1.5791040698730573510871693303947
180,12961.1802260177295506676364511779380,12959.6,1.5802260177295506676364511779380
181,13105.5813417469667479018835811258432,13104.0,1.5813417469667479018835811258432
182,13250.7824513261619653245178770050479,13249.2,1.5824513261619653245178770050479
183,13396.7835548227642617155083523891011,13395.2,1.5835548227642617155083523891011
184,13543.5846523031190572098282990966016,13542.0,1.5846523031190572098282990966016
185,13691.1857438324920840258983323898667,13689.6,1.5857438324920840258983323898667
186,13839.5868294750926900453372674595148,13838.0,1.5868294750926900453372674595148
187,13988.7879092940965190444882146040021,13987.2,1.5879092940965190444882146040021
188,14138.7889833516675830140041963899315,14137.2,1.5889833516675830140041963899315
189,14289.5900517089797502975506854162627,14288.0,1.5900517089797502975506854162627
190,14441.1911144262376652006693561842079,14439.6,1.5911144262376652006693561842079
191,14593.5921715626971182923211026070206,14592.0,1.5921715626971182923211026070206
192,14746.7932231766848837812769259967696,14745.2,1.5932231766848837812769259967696
193,14900.7942693256180422711695454974060,14899.2,1.5942693256180422711695454974060
194,15055.5953100660228022349527306805591,15054.0,1.5953100660228022349527306805591
195,15211.1963454535528381410909014761135,15209.6,1.5963454535528381410909014761135
196,15367.5973755430071589233420744016679,15366.0,1.5973755430071589233420744016679
197,15524.7984003883475211694179709312844,15523.2,1.5984003883475211694179709312844
198,15682.7994200427154011904627634453164,15681.2,1.5994200427154011904627634453164
199,15841.6004345584485388051666085581703,15840.0,1.6004345584485388051666085581703
200,16001.2014439870970667786752566959674,15999.6,1.6014439870970667786752566959674
201,16161.6024483794392368926750633040229,16160.0,1.6024483794392368926750633040229
202,16322.8034477854967560227653237879828,16321.2,1.6034477854967560227653237879828
203,16484.8044422545497428778002291640274,16483.2,1.6044422545497428778002291640274
204,16647.6054318351513170160626683485769,16646.0,1.6054318351513170160626683485769
205,16811.2064165751418301035821582827034,16809.6,1.6064165751418301035821582827034
206,16975.6073965216627524332945785681841,16974.0,1.6073965216627524332945785681841
207,17140.8083717211702205756694712648269,17139.2,1.6083717211702205756694712648269
208,17306.8093422194482603822101905681282,17305.2,1.6093422194482603822101905681282
209,17473.6103080616216910846549226845535,17472.0,1.6103080616216910846549226845535
210,17641.2112692921687219854781747992491,17639.6,1.6112692921687219854781747992491
211,17809.6122259549332490986496290625963,17808.0,1.6122259549332490986496290625963
212,17978.8131780931368619677729515756920,17977.2,1.6131780931368619677729515756920
213,18148.8141257493905650394931272701543,18147.2,1.6141257493905650394931272701543
214,18319.6150689657062285678562810259353,18318.0,1.6150689657062285678562810259353
215,18491.2160077835077682558472432694740,18489.6,1.6160077835077682558472432694740
216,18663.6169422436420675885559092835624,18662.0,1.6169422436420675885559092835624
217,18836.8178723863896468170083719968202,18835.2,1.6178723863896468170083719968202
218,19010.8187982514750875651061680858064,19009.2,1.6187982514750875651061680858064
219,19185.6197198780772163326032206181312,19184.0,1.6197198780772163326032206181312
220,19361.2206373048390594022415017615800,19359.6,1.6206373048390594022415017615800
221,19537.6215505698775670533285412270321,19536.0,1.6215505698775670533285412270321
222,19714.8224597107931242791155040729830,19713.2,1.6224597107931242791155040729830
223,19892.8233647646788415687999263929803,19891.2,1.6233647646788415687999263929803
224,20071.6242657681296408134444430886381,20070.0,1.6242657681296408134444430886381
225,20251.2251627572511388923468648946121,20249.6,1.6251627572511388923468648946121
226,20431.6260557676683324777951225302422,20430.0,1.6260557676683324777951225302422
227,20612.8269448345340927010464309728592,20611.2,1.6269448345340927010464309728592
228,20794.8278299925374714897225331601265,20793.2,1.6278299925374714897225331601265
229,20977.6287112759118267287570258744662,20976.0,1.6287112759118267287570258744662
230,21161.2295887184427709311237494933357,21159.6,1.6295887184427709311237494933357
231,21345.6304623534759452076012794781653,21344.0,1.6304623534759452076012794781653
232,21530.8313322139246289444787691931654,21529.2,1.6313322139246289444787691931654
233,21716.8321983322771801746919050227013,21715.2,1.6321983322771801746919050227013
234,21903.6330607406043227884391043941099,21902.0,1.6330607406043227884391043941099
235,22091.2339194705662737543619936821375,22089.6,1.6339194705662737543619936821375
236,22279.6347745534197200500422939604182,22278.0,1.6347745534197200500422939604182
237,22468.8356260200246489219258432309658,22467.2,1.6356260200246489219258432309658
238,22658.8364739008510332056679701644011,22657.2,1.6364739008510332056679701644011
