Eigenstate,Energy,Kinetic Energy,Potential Energy
1,0.500000000015131695404506866076729002,0.0,0.500000000015131695404506866076729002
2,1.84623093774988641468095139308500667,1.2,0.64623093774988641468095139308500667
3,3.93633760999510953146176105491131753,3.2,0.73633760999510953146176105491131753
4,6.79966527841855392653919039855140071,6.0,0.79966527841855392653919039855140071
5,10.4480465763324819167606689682005005,9.6,0.8480465763324819167606689682005005
6,14.8870659984900784097570599940068469,14.0,0.8870659984900784097570599940068469
7,20.1197208263288196931191574441620259,19.2,0.9197208263288196931191574441620259
8,26.1477838462252901933928261431350553,25.2,0.9477838462252901933928261431350553
9,32.9723835571855626380419701516537732,32.0,0.9723835571855626380419701516537732
10,40.5942802133580805590237098877820529,39.6,0.9942802133580805590237098877820529
11,49.0140093848837966666003996012225963,48.0,1.0140093848837966666003996012225963
12,58.2319621670672786240471623245399762,57.2,1.0319621670672786240471623245399762
13,68.2484326899742867694527306232857775,67.2,1.0484326899742867694527306232857775
14,79.0636476512879275428310962967517667,78.0,1.0636476512879275428310962967517667
15,90.6777854321228334835149275603002794,89.6,1.0777854321228334835149275603002794
16,103.090988901895605292178229539127205,102.0,1.090988901895605292178229539127205
17,116.303374251786314312127362391771646,115.2,1.103374251786314312127362391771646
18,130.315037245744700836296678173163752,129.2,1.115037245744700836296678173163752
19,145.126057743594150996023356733453661,144.0,1.126057743594150996023356733453661
20,160.736503038665632735001589020671532,159.6,1.136503038665632735001589020671532
21,177.146430363879392679328252271065872,176.0,1.146430363879392679328252271065872
22,194.355888802903696063287044195243397,193.2,1.155888802903696063287044195243397
23,212.364920768091351242126437499862299,211.2,1.164920768091351242126437499862299
24,231.173563157880131751781884062458756,230.0,1.173563157880131751781884062458756
25,250.781848273588702630216453026054433,249.6,1.181848273588702630216453026054433
26,271.189804553224208117979046446599328,270.0,1.189804553224208117979046446599328
27,292.397457164444847457893872094298823,291.2,1.197457164444847457893872094298823
28,314.404828487918914707032364588807885,313.2,1.204828487918914707032364588807885
29,337.211938514526750654234157671131119,336.0,1.211938514526750654234157671131119
30,360.818805174202567368276154579143944,359.6,1.218805174202567368276154579143944
31,385.225444610067167402511937779035826,384.0,1.225444610067167402511937779035826
32,410.431871408424680097659281433319837,409.2,1.231871408424680097659281433319837
33,436.438098792886789620713865119043288,435.2,1.238098792886789620713865119043288
34,463.244138789137383112139068266074673,462.0,1.244138789137383112139068266074673
35,490.850002365511352248039000604191681,489.6,1.250002365511352248039000604191681
36,519.255699553527802645677582725849945,518.0,1.255699553527802645677582725849945
37,548.461239551713840992354956888296549,547.2,1.261239551713840992354956888296549
38,578.466630815424691034644326675036003,577.2,1.266630815424691034644326675036003
39,609.271881134868040915581349096742357,608.0,1.271881134868040915581349096742357
40,640.876997703144703563939197349332086,639.6,1.276997703144703563939197349332086
41,673.281987175800921566071216354073702,672.0,1.281987175800921566071216354073702
42,706.486855723132655349354421666587488,705.2,1.286855723132655349354421666587488
43,740.491609076275707161397222505983666,739.2,1.291609076275707161397222505983666
44,775.296252567947439313708935053672119,774.0,1.296252567947439313708935053672119
45,810.900791168568275589563416426631391,809.6,1.300791168568275589563416426631391
46,847.305229518378038433222216711373363,846.0,1.305229518378038433222216711373363
47,884.509571956068697925373422523798684,883.2,1.309571956068697925373422523798684
48,922.513822544377522185412871176985987,921.2,1.313822544377522185412871176985987
49,961.317985093019956297313576315525368,960.0,1.317985093019956297313576315525368
50,1000.92206317928743414218908280858374,999.6,1.32206317928743414218908280858374
51,1041.32606016658986055819500096933158,1040.0,1.32606016658986055819500096933158
52,1082.52997922118415603412287642942109,1081.2,1.32997922118415603412287642942109
53,1124.53382332729780602450236547771056,1123.2,1.33382332729780602450236547771056
54,1167.33759530082879584257816213468507,1166.0,1.33759530082879584257816213468507
55,1210.94129780177983659502191323545490,1209.6,1.34129780177983659502191323545490
56,1255.34493334556471305211896095903769,1254.0,1.34493334556471305211896095903769
57,1300.54850431330738538205483761964920,1299.2,1.34850431330738538205483761964920
58,1346.55201296123967949163896084619150,1345.2,1.35201296123967949163896084619150
59,1393.35546142929064676853086635673913,1392.0,1.35546142929064676853086635673913
60,1440.95885174894964951233459860641943,1439.6,1.35885174894964951233459860641943
61,1489.36218585047566411442454078714501,1488.0,1.36218585047566411442454078714501
62,1538.56546556951699304125440927832577,1537.2,1.36546556951699304125440927832577
63,1588.56869265319833478688223790930502,1587.2,1.36869265319833478688223790930502
64,1639.37186876572584848052354069366204,1638.0,1.37186876572584848052354069366204
65,1690.97499549355531499497321846895064,1689.6,1.37499549355531499497321846895064
66,1743.37807435016364906268382453856664,1742.0,1.37807435016364906268382453856664
67,1796.58110678045975461496289245202420,1795.2,1.38110678045975461496289245202420
68,1850.58409416486695939894430492612005,1849.2,1.38409416486695939894430492612005
69,1905.38703782310595225626255826863264,1904.0,1.38703782310595225626255826863264
70,1960.98993901770421817909546016484454,1959.6,1.38993901770421817909546016484454
71,2017.39279895725536755551004731275855,2016.0,1.39279895725536755551004731275855
72,2074.59561879944945777366729693396774,2073.2,1.39561879944945777366729693396774
73,2132.59839965389335234803797906026994,2131.2,1.39839965389335234803797906026994
74,2191.40114258473834388222965337857124,2190.0,1.40114258473834388222965337857124
75,2251.00384861313063608192205029495210,2249.6,1.40384861313063608192205029495210
76,2311.40651871949883047465310235352980,2310.0,1.40651871949883047465310235352980
77,2372.60915384569126109477999436240025,2371.2,1.40915384569126109477999436240025
78,2434.61175489697485459375958668571275,2433.2,1.41175489697485459375958668571275
79,2497.41432274390614641590046877302458,2496.0,1.41432274390614641590046877302458
80,2561.01685822408414555409462291453428,2559.6,1.41685822408414555409462291453428
81,2625.41936214379389105856014229741798,2624.0,1.41936214379389105856014229741798
82,2690.62183527954878202107304878668118,2689.2,1.42183527954878202107304878668118
83,2756.62427837953907402337668350915038,2755.2,1.42427837953907402337668350915038
84,2823.42669216499331074674106698719183,2822.0,1.42669216499331074674106698719183
85,2891.02907733145890016347099681375514,2889.6,1.42907733145890016347099681375514
86,2959.43143455000752886577241093434726,2958.0,1.43143455000752886577241093434726
87,3028.63376446837065061658667452316989,3027.2,1.43376446837065061658667452316989
88,3098.63606771200986182926681977785653,3097.2,1.43606771200986182926681977785653
89,3169.43834488512659318080828485984299,3168.0,1.43834488512659318080828485984299
90,3241.04059657161520334661745230356200,3239.6,1.44059657161520334661745230356200
91,3313.44282333596323939275060958066339,3312.0,1.44282333596323939275060958066339
92,3386.64502572410234006401684969453336,3385.2,1.44502572410234006401684969453336
93,3460.64720426421299595128282560414059,3459.2,1.44720426421299595128282560414059
94,3535.44935946748613759257915906724547,3534.0,1.44935946748613759257915906724547
95,3611.05149182884430140857932103044983,3609.6,1.45149182884430140857932103044983
96,3687.45360182762492155090540378886632,3686.0,1.45360182762492155090540378886632
97,3764.65568992822811139960554770946236,3763.2,1.45568992822811139960554770946236
98,3842.65775658073112557185316905118679,3841.2,1.45775658073112557185316905118679
99,3921.45980222147153983172893100489634,3920.0,1.45980222147153983172893100489634
100,4001.06182727360103995053041112911206,3999.6,1.46182727360103995053041112911206
101,4081.46383214761158126289988223781019,4080.0,1.46383214761158126289988223781019
102,4162.66581724183555508933959409037174,4161.2,1.46581724183555508933959409037174
103,4244.66778294292149028207105018793907,4243.2,1.46778294292149028207105018793907
104,4327.46972962628671088648434179474756,4326.0,1.46972962628671088648434179474756
105,4411.07165765654827783666675105307938,4409.6,1.47165765654827783666675105307938
106,4495.47356738793345183925608786607852,4494.0,1.47356738793345183925608786607852
107,4580.67545916467083651790882787630846,4579.2,1.47545916467083651790882787630846
108,4666.67733332136328165111873727230261,4665.2,1.47733332136328165111873727230261
109,4753.47919018334355774258749456064225,4752.0,1.47919018334355774258749456064225
110,4841.08103006701375074322378232109871,4839.6,1.48103006701375074322378232109871
111,4929.48285328016925988264878293382684,4928.0,1.48285328016925988264878293382684
112,5018.68466012230823213445254681433300,5017.2,1.48466012230823213445254681433300
113,5108.68645088492721130365162968137247,5107.2,1.48645088492721130365162968137247
114,5199.48822585180373096704204598940315,5198.0,1.48822585180373096704204598940315
115,5291.08998529926654004863902160089554,5289.6,1.48998529926654004863902160089554
116,5383.49172949645410148074681117242658,5382.0,1.49172949645410148074681117242658
117,5476.69345870556197268819507145650572,5475.2,1.49345870556197268819507145650572
118,5570.69517318207963560217271670293649,5569.2,1.49517318207963560217271670293649
119,5665.49687317501731019637389630801496,5664.0,1.49687317501731019637389630801496
120,5761.09855892712325969593572079393297,5759.6,1.49855892712325969593572079393297
121,5857.50023067509205734240318104215313,5856.0,1.50023067509205734240318104215313
122,5954.70188864976426568482387963017400,5953.2,1.50188864976426568482387963017400
123,6052.70353307631794717414320867155310,6051.2,1.50353307631794717414320867155310
124,6151.50516417445240715826195455099310,6150.0,1.50516417445240715826195455099310
125,6251.10678215856454080885519589777416,6249.6,1.50678215856454080885519589777416
126,6351.50838723791814031375379291837106,6350.0,1.50838723791814031375379291837106
127,6452.70997961680649809080339498370914,6451.2,1.50997961680649809080339498370914
128,6554.71155949470861919192596320247167,6553.2,1.51155949470861919192596320247167
129,6657.51312706643934399287074523024212,6656.0,1.51312706643934399287074523024212
130,6761.11468252229366388227433308981933,6759.6,1.51468252229366388227433308981933
131,6865.51622604818549725953138387379826,6864.0,1.51622604818549725953138387379826
132,6970.71775782578117817377674963952089,6969.2,1.51775782578117817377674963952089
133,7076.71927803262789815469588524516056,7075.2,1.51927803262789815469588524516056
134,7183.52078684227733050992143361826501,7182.0,1.52078684227733050992143361826501
135,7291.12228442440464825543147956591338,7289.6,1.52228442440464825543147956591338
136,7399.52377094492314315783460652293228,7398.0,1.52377094492314315783460652293228
137,7508.72524656609464005948322580802975,7507.2,1.52524656609464005948322580802975
138,7618.72671144663588704536612923171097,7617.2,1.52671144663588704536612923171097
139,7729.52816574182109990482555354620601,7728.0,1.52816574182109990482555354620601
140,7841.12960960358082389517578891321034,7839.6,1.52960960358082389517578891321034
141,7953.53104318059727125681042700869065,7952.0,1.53104318059727125681042700869065
142,8066.73246661839628485611820580169758,8065.2,1.53246661839628485611820580169758
143,8180.73388005943606968235820089665457,8179.2,1.53388005943606968235820089665457
144,8295.53528364319282674500801619596979,8294.0,1.53528364319282674500801619596979
145,8411.13667750624341973033967681246480,8409.6,1.53667750624341973033967681246480
146,8527.53806178234519690722686269137046,8526.0,1.53806178234519690722686269137046
147,8644.73943660251308256922117419299650,8643.2,1.53943660251308256922117419299650
148,8762.74080209509405334190183326394925,8761.2,1.54080209509405334190183326394925
149,8881.54215838583910115642882316846936,8880.0,1.54215838583910115642882316846936
150,9001.14350559797278653015240652859389,8999.6,1.54350559797278653015240652859389
151,9121.54484385226047806850806434286197,9120.0,1.54484385226047806850806434286197
152,9242.74617326707336848734134849607501,9241.2,1.54617326707336848734134849607501
153,9364.74749395845135610533039639022832,9363.2,1.54749395845135610533039639022832
154,9487.54880604016387570572194743555166,9486.0,1.54880604016387570572194743555166
155,9611.15010962376875700334678838647012,9609.6,1.55010962376875700334678838647012
156,9735.55140481866918858325063453528434,9734.0,1.55140481866918858325063453528434
157,9860.75269173216885835751631555275083,9859.2,1.55269173216885835751631555275083
158,9986.75397046952534235835069986663171,9985.2,1.55397046952534235835069986663171
159,10113.5552411340018055402417796949324,10112.0,1.5552411340018055402417796949324
160,10241.1565038269170809286956412796065,10239.6,1.5565038269170809286956412796065
161,10369.5577586476941856116442414407974,10368.0,1.5577586476941856116442414407974
162,10498.7590056939073330345953740348960,10497.2,1.5590056939073330345953740348960
163,10628.7602450613274964527941385445110,10627.2,1.5602450613274964527941385445110
164,10759.5614768439665781769608249575869,10758.0,1.5614768439665781769608249575869
165,10891.1627011341202332127928310793449,10889.6,1.5627011341202332127928310793449
166,11023.5639180224093978097893481526132,11022.0,1.5639180224093978097893481526132
167,11156.7651275978205701516881570987420,11155.2,1.5651275978205701516881570987420
168,11290.7663299477448858773979889439153,11289.2,1.5663299477448858773979889439153
169,11425.5675251580160334944870241120031,11424.0,1.5675251580160334944870241120031
170,11561.1687133129470494283130718159013,11559.6,1.5687133129470494283130718159013
171,11697.5698944953660329012261962698368,11696.0,1.5698944953660329012261962698368
172,11834.7710687866508185084715379010249,11833.2,1.5710687866508185084715379010249
173,11972.7722362667626418930930022275517,11971.2,1.5722362667626418930930022275517
174,12111.5733970142788343633216458276433,12110.0,1.5733970142788343633216458276433
175,12251.1745511064245804373515930071693,12249.6,1.5745511064245804373515930071693
176,12391.5756986191037680218261296860099,12390.0,1.5756986191037680218261296860099
177,12532.7768396269289644845412446828883,12531.2,1.5768396269289644845412446828883
178,12674.7779742032505477757325677845601,12673.2,1.5779742032505477757325677845601
179,12817.5791024201850190428612526175015,12816.0,1.5791024201850190428612526175015
180,12961.1802243486425276852674565241289,12959.6,1.5802243486425276852674565241289
181,13105.5813400583536314972472226029166,13104.0,1.5813400583536314972472226029166
182,13250.7824496178953195949077992614454,13249.2,1.5824496178953195949077992614454
183,13396.7835530947163211760449269267555,13395.2,1.5835530947163211760449269267555
184,13543.5846505551617243545476637755252,13542.0,1.5846505551617243545476637755252
185,13691.1857420644969268774235206041208,13689.6,1.5857420644969268774235206041208
186,13839.5868276869309396930326699219612,13838.0,1.5868276869309396930326699219612
187,13988.7879074856390671709978093634947,13987.2,1.5879074856390671709978093634947
188,14138.7889815227849794100733313299642,14137.2,1.5889815227849794100733313299642
189,14289.5900498595422003650304241807947,14288.0,1.5900498595422003650304241807947
190,14441.1911125561150274436017294184535,14439.6,1.5911125561150274436017294184535
191,14593.5921696717589017960028499750115,14592.0,1.5921696717589017960028499750115
192,14746.7932212648002456791985431641787,14745.2,1.5932212648002456791985431641787
193,14900.7942673926557851997257347624954,14899.2,1.5942673926557851997257347624954
194,15055.5953081118513717758196056157047,15054.0,1.5953081118513717758196056157047
195,15211.1963434780403202511644667452698,15209.6,1.5963434780403202511644667452698
196,15367.5973735460212773521318296963915,15366.0,1.5973735460212773521318296963915
197,15524.7983983697556348637885900872939,15523.2,1.5983983697556348637885900872939
198,15682.7994180023845016866161629303662,15681.2,1.5994180023845016866161629303662
199,15841.6004324962452476077557180436299,15840.0,1.6004324962452476077557180436299
200,16001.2014419028876327269401919069017,15999.6,1.6014419028876327269401919069017
201,16161.6024462730895335134915408549170,16160.0,1.6024462730895335134915408549170
202,16322.8034456568722788704941883190496,16321.2,1.6034456568722788704941883190496
203,16484.8044401035156068608263770865228,16483.2,1.6044401035156068608263770865228
204,16647.6054296615722537099105883365388,16646.0,1.6054296615722537099105883365388
205,16811.2064143788821850504946993534275,16809.6,1.6064143788821850504946993534275
206,16975.6073943025864824281604167900193,16974.0,1.6073943025864824281604167900193
207,17140.8083694791408909381841442824154,17139.2,1.6083694791408909381841442824154
208,17306.8093399543290422151545377112506,17305.2,1.6093399543290422151545377112506
209,17473.6103057732753585181739427790241,17472.0,1.6103057732753585181739427790241
210,17641.2112669804576494072424137041655,17639.6,1.6112669804576494072424137041655
211,17809.6122236197194083697803185623050,17808.0,1.6122236197194083697803185623050
212,17978.8131757342818196244112696762900,17977.2,1.6131757342818196244112696762900
213,18148.8141233667554794798928537931014,18147.2,1.6141233667554794798928537931014
214,18319.6150665591518472248784112268887,18318.0,1.6150665591518472248784112268887
215,18491.2160053528944247547340581168742,18489.6,1.6160053528944247547340581168742
216,18663.6169397888296788898610761763951,18662.0,1.6169397888296788898610761763951
217,18836.8178699072377103445587092487854,18835.2,1.6178699072377103445587092487854
218,19010.8187957478426783188697926198741,19009.2,1.6187957478426783188697926198741
219,19185.6197173498229839863376890248191,19184.0,1.6197173498229839863376890248191
220,19361.2206347518212253857947043890163,19359.6,1.6206347518212253857947043890163
221,19537.6215479919539216194640551840470,19536.0,1.6215479919539216194640551840470
222,19714.8224571078210235547330687813956,19713.2,1.6224571078210235547330687813956
223,19892.8233621365152045904208341125634,19891.2,1.6233621365152045904208341125634
224,20071.6242631146309465468304493434537,20070.0,1.6242631146309465468304493434537
225,20251.2251600782734232361202175573614,20249.6,1.6251600782734232361202175573614
226,20431.6260530630671852509263980912849,20430.0,1.6260530630671852509263980912849
227,20612.8269421041646546140756168044623,20611.2,1.6269421041646546140756168044623
228,20794.8278272362544310995778786658267,20793.2,1.6278272362544310995778786658267
229,20977.6287084935694173770350351529714,20976.0,1.6287084935694173770350351529714
230,21161.2295859098947676656926117264007,21159.6,1.6295859098947676656926117264007
231,21345.6304595185756616873889476135587,21344.0,1.6304595185756616873889476135587
232,21530.8313293525249143273057650397455,21529.2,1.6313293525249143273057650397455
233,21716.8321954442304159880078192313652,21715.2,1.6321954442304159880078192313652
234,21903.6330578257624197828206123855483,21902.0,1.6330578257624197828206123855483
235,22091.2339165287806687396290667963706,22089.6,1.6339165287806687396290667963706
236,22279.6347715845413727138482199076034,22278.0,1.6347715845413727138482199076034
237,22468.8356230239040386306752836525341,22467.2,1.6356230239040386306752836525341
238,22658.8364708773381557876163447899966,22657.2,1.6364708773381557876163447899966
