Eigenstate,Energy,Kinetic Energy,Potential Energy
1,0.500000000486389337751976075715279534,0.0,0.500000000486389337751976075715279534
2,1.84623094082606233703791865088636696,1.2,0.64623094082606233703791865088636696
3,3.93633761903136354233415007003129594,3.2,0.73633761903136354233415007003129594
4,6.79966529724071116970741310285215217,6.0,0.79966529724071116970741310285215217
5,10.4480466089377931928130735553682586,9.6,0.8480466089377931928130735553682586
6,14.8870660489466917872149284208335680,14.0,0.8870660489466917872149284208335680
7,20.1197208987388905304972611672137672,19.2,0.9197208987388905304972611672137672
8,26.1477839447097352646335865720337730,25.2,0.9477839447097352646335865720337730
9,32.9723836858770984151098685073401021,32.0,0.9723836858770984151098685073401021
10,40.5942803763978075849414504060077618,39.6,0.9942803763978075849414504060077618
11,49.0140095864194535434655195096143144,48.0,1.0140095864194535434655195096143144
12,58.2319624112523470940338683844942043,57.2,1.0319624112523470940338683844942043
13,68.2484329809675604222021018059030882,67.2,1.0484329809675604222021018059030882
14,79.0636479932533476343274147367071829,78.0,1.0636479932533476343274147367071829
15,90.6777858292294861972977917787917373,89.6,1.0777858292294861972977917787917373
16,103.090989358317820714552947545180403,102.0,1.090989358317820714552947545180403
17,116.303374771703831879294802919384694,115.2,1.103374771703831879294802919384694
18,130.315037833342879671392657222955414,129.2,1.115037833342879671392657222955414
19,145.126058403064211484502235199720750,144.0,1.126058403064211484502235199720750
20,160.736503774204920455353158523110757,159.6,1.136503774204920455353158523110757
21,177.146431179691658764050777587205185,176.0,1.146431179691658764050777587205185
22,194.355889703199389951475978408930184,193.2,1.155889703199389951475978408930184
23,212.364921757087923018449579650680856,211.2,1.164921757087923018449579650680856
24,231.173564239802342091367056508486363,230.0,1.173564239802342091367056508486363
25,250.781849452668938931816956643388380,249.6,1.181849452668938931816956643388380
26,271.189805833702805799071355403874445,270.0,1.189805833702805799071355403874445
27,292.397458550570415662048875329497057,291.2,1.197458550570415662048875329497057
28,314.404829983948665872632306535118436,313.2,1.204829983948665872632306535118436
29,337.211940124726833538424358590688576,336.0,1.211940124726833538424358590688576
30,360.818806902848403226997538768422831,359.6,1.218806902848403226997538768422831
31,385.225446461443789107455429203255813,384.0,1.225446461443789107455429203255813
32,410.431873386827074031524225703539267,409.2,1.231873386827074031524225703539267
33,436.438100902620240238488751444750991,435.2,1.238100902620240238488751444750991
34,463.244141034517820091968513913771673,462.0,1.244141034517820091968513913771673
35,490.850004750865700183260481287058258,489.6,1.250004750865700183260481287058258
36,519.255702083194333251733294540330717,518.0,1.255702083194333251733294540330717
37,548.461242230042527819925443014060663,547.2,1.261242230042527819925443014060663
38,578.466633646777566694555247459516464,577.2,1.266633646777566694555247459516464
39,609.271884123619556832586681439759490,608.0,1.271884123619556832586681439759490
40,640.877000853682092285972518161880342,639.6,1.277000853682092285972518161880342
41,673.281990492524561663428259971941064,672.0,1.281990492524561663428259971941064
42,706.486859210456438944870016189940530,705.2,1.286859210456438944870016189940530
43,740.491612738627410138271759677675182,739.2,1.291612738627410138271759677675182
44,775.296256409769094252429503834615470,774.0,1.296256409769094252429503834615470
45,810.900795194316547489514979178231361,809.6,1.300795194316547489514979178231361
46,847.305233732524603278221643508633500,846.0,1.305233732524603278221643508633500
47,884.509576363100624155583424436243524,883.2,1.309576363100624155583424436243524
48,922.513827148797655140986396603702134,921.2,1.313827148797655140986396603702134
49,961.317989899347305701744636586706296,960.0,1.317989899347305701744636586706296
50,1000.92206819205756469575646740128402,999.6,1.32206819205756469575646740128402
51,1041.32606539035528571412373031208307,1040.0,1.32606539035528571412373031208307
52,1082.52998466051473503218732951316584,1081.2,1.32998466051473503218732951316584
53,1124.53382898678114425878448467832004,1123.2,1.33382898678114425878448467832004
54,1167.33760118507064864199808042472053,1166.0,1.33760118507064864199808042472053
55,1210.94130391540451649709387754148481,1209.6,1.34130391540451649709387754148481
56,1255.34493969321550065217049104160619,1254.0,1.34493969321550065217049104160619
57,1300.54851089964694384189470819081155,1299.2,1.34851089964694384189470819081155
58,1346.55201979095047279338334171295425,1345.2,1.35201979095047279338334171295425
59,1393.35546850707536180100072752976768,1392.0,1.35546850707536180100072752976768
60,1440.95885907953162207913709192249085,1439.6,1.35885907953162207913709192249085
61,1489.36219343859930895452852094170889,1488.0,1.36219343859930895452852094170889
62,1538.56547341994823795457442773359260,1537.2,1.36547341994823795457442773359260
63,1588.56870077072505895909869025954177,1587.2,1.36870077072505895909869025954177
64,1639.37187715515832510309724738148123,1638.0,1.37187715515832510309724738148123
65,1690.97500415972665827806465341776133,1689.6,1.37500415972665827806465341776133
66,1743.37808329793026574045980454574072,1742.0,1.37808329793026574045980454574072
67,1796.58111601470180004457618976287345,1795.2,1.38111601470180004457618976287345
68,1850.58410369048879835630294390076174,1849.2,1.38410369048879835630294390076174
69,1905.38704764503662453357297007770285,1904.0,1.38704764503662453357297007770285
70,1960.98994914089790909106115605552543,1959.6,1.38994914089790909106115605552543
71,2017.39280938669188346301119047848911,2016.0,1.39280938669188346301119047848911
72,2074.59562954013470673572288034745439,2073.2,1.39562954013470673572288034745439
73,2132.59841071085983001487864262773513,2131.2,1.39841071085983001487864262773513
74,2191.40115396304562474437490215181493,2190.0,1.40115396304562474437490215181493
75,2251.00386031786587019227270474749477,2249.6,1.40386031786587019227270474749477
76,2311.40653075577724576277153059670060,2310.0,1.40653075577724576277153059670060
77,2372.60916621865667139474791069345118,2371.2,1.40916621865667139474791069345118
78,2434.61176761180017350927043533542427,2433.2,1.41176761180017350927043533542427
79,2497.41433580579390714856661505411400,2496.0,1.41433580579390714856661505411400
80,2561.01687163826702682332757900859735,2559.6,1.41687163826702682332757900859735
81,2625.41937591553524924382236939189148,2624.0,1.41937591553524924382236939189148
82,2690.62184941414318965979702538776617,2689.2,1.42184941414318965979702538776617
83,2756.62429288231286480040810139817640,2755.2,1.42429288231286480040810139817640
84,2823.42670704130513111378847351438900,2822.0,1.42670704130513111378847351438900
85,2891.02909258670026772973647166006186,2889.6,1.42909258670026772973647166006186
86,2959.43145018960339770369604003644189,2958.0,1.43145018960339770369604003644189
87,3028.63378049777998362947033508298112,3027.2,1.43378049777998362947033508298112
88,3098.63608413672621033044348055374142,3097.2,1.43608413672621033044348055374142
89,3169.43836171067868383700124960140840,3168.0,1.43836171067868383700124960140840
90,3241.04061380356753264118699749649189,3239.6,1.44061380356753264118699749649189
91,3313.44284097991667576765977562686819,3312.0,1.44284097991667576765977562686819
92,3386.64504378569473390256033320583946,3385.2,1.44504378569473390256033320583946
93,3460.64722274911979756692195109336325,3459.2,1.44722274911979756692195109336325
94,3535.44937838142102339260814608822735,3534.0,1.44937838142102339260814608822735
95,3611.05151117755980840482126486864537,3609.6,1.45151117755980840482126486864537
96,3687.45362161691309039319677005230524,3686.0,1.45362161691309039319677005230524
97,3764.65571016392113811148762242463393,3763.2,1.45571016392113811148762242463393
98,3842.65777726870202217163737242895496,3841.2,1.45777726870202217163737242895496
99,3921.45982336763480402595798122752100,3920.0,1.45982336763480402595798122752100
100,4001.06184888391333409080802252664995,3999.6,1.46184888391333409080802252664995
101,4081.46385422807242076112075069053189,4080.0,1.46385422807242076112075069053189
102,4162.66583979848800649051726273850163,4161.2,1.46583979848800649051726273850163
103,4244.66780598185287919823651266384249,4243.2,1.46780598185287919823651266384249
104,4327.46975315362933999952259843171489,4326.0,1.46975315362933999952259843171489
105,4411.07168167848015518246223129969550,4409.6,1.47168167848015518246223129969550
106,4495.47359191067902959014999738985125,4494.0,1.47359191067902959014999738985125
107,4580.67548419450176048522513234666141,4579.2,1.47548419450176048522513234666141
108,4666.67735886459915173439489685592836,4665.2,1.47735886459915173439489685592836
109,4753.47921624635269955716273171696534,4752.0,1.47921624635269955716273171696534
110,4841.08105665621399866298544296156092,4839.6,1.48105665621399866298544296156092
111,4929.48288040202875174002586765399019,4928.0,1.48288040202875174002586765399019
112,5018.68468778334621582518065596567260,5017.2,1.48468778334621582518065596567260
113,5108.68647909171486354941299660447237,5107.2,1.48647909171486354941299660447237
114,5199.48825461096498849482089331986922,5198.0,1.48825461096498849482089331986922
115,5291.09001461747894345152210746721593,5289.6,1.49001461747894345152210746721593
116,5383.49175938044965203095345752286001,5382.0,1.49175938044965203095345752286001
117,5476.69348916212800237934246350574409,5475.2,1.49348916212800237934246350574409
118,5570.69520421805969070417434337055562,5569.2,1.49520421805969070417434337055562
119,5665.49690479731204861293945958689590,5664.0,1.49690479731204861293945958689590
120,5761.09859114269136242139408826397576,5759.6,1.49859114269136242139408826397576
121,5857.50026349095115432151159514101506,5856.0,1.50026349095115432151159514101506
122,5954.70192207299187638636350044861729,5953.2,1.50192207299187638636350044861729
123,6052.70356711405243619643519667831806,6051.2,1.50356711405243619643519667831806
124,6151.50519883389395519228258005924122,6150.0,1.50519883389395519228258005924122
125,6251.10681744697613129238471136678163,6249.6,1.50681744697613129238471136678163
126,6351.50842316262656211796803546255557,6350.0,1.50842316262656211796803546255557
127,6452.71001618520336458892044494720369,6451.2,1.51001618520336458892044494720369
128,6554.71159671425140406795657868319362,6553.2,1.51159671425140406795657868319362
129,6657.51316494465243415719653385623423,6656.0,1.51316494465243415719653385623423
130,6761.11472106676942986970651183291346,6759.6,1.51472106676942986970651183291346
131,6865.51626526658538149468382957001840,6864.0,1.51626526658538149468382957001840
132,6970.71779772583680149803886701801817,6969.2,1.51779772583680149803886701801817
133,7076.71931862214218501880722371270189,7075.2,1.51931862214218501880722371270189
134,7183.52082812912565324616056010780839,7182.0,1.52082812912565324616056010780839
135,7291.12232641653599085372552169188194,7289.6,1.52232641653599085372552169188194
136,7399.52381365036128498069112540814986,7398.0,1.52381365036128498069112540814986
137,7508.72528999293935994156091778040340,7507.2,1.52528999293935994156091778040340
138,7618.72675560306418823472494174158678,7617.2,1.52675560306418823472494174158678
139,7729.52821063608845631446299107857608,7728.0,1.52821063608845631446299107857608
140,7841.12965524402244814536237151825324,7839.6,1.52965524402244814536237151825324
141,7953.53108957562940500099129928049610,7952.0,1.53108957562940500099129928049610
142,8066.73251377651751189578065402005669,8065.2,1.53251377651751189578065402005669
143,8180.73392798922865238926664765750785,8179.2,1.53392798922865238926664765750785
144,8295.53533235332406632260337947258528,8294.0,1.53533235332406632260337947258528
145,8411.13672700546704085990092765205440,8409.6,1.53672700546704085990092765205440
146,8527.53811207950275733861330793238560,8526.0,1.53811207950275733861330793238560
147,8644.73948770653540823066292577774747,8643.2,1.53948770653540823066292577774747
148,8762.74085401500269955840505035060665,8761.2,1.54085401500269955840505035060665
149,8881.54221113074784058192648247343111,8880.0,1.54221113074784058192648247343111
150,9001.14355917708912441456640898812317,8999.6,1.54355917708912441456640898812317
151,9121.54489827488719549742982924694184,9120.0,1.54489827488719549742982924694184
152,9242.74622854261009424908208853683259,9241.2,1.54622854261009424908208853683259
153,9364.74755009639616785767030516509308,9363.2,1.54755009639616785767030516509308
154,9487.54886305011493113281785865123733,9486.0,1.54886305011493113281785865123733
155,9611.15016751542595567195064911029327,9609.6,1.55016751542595567195064911029327
156,9735.55146360183586522667734155455978,9734.0,1.55146360183586522667734155455978
157,9860.75275141675350833569029525692656,9859.2,1.55275141675350833569029525692656
158,9986.75403106554338006278841124181693,9985.2,1.55403106554338006278841124181693
159,10113.5553026515773565340002670926937,10112.0,1.5553026515773565340002670926937
160,10241.1565662762848086331791057355532,10239.6,1.5565662762848086331791057355532
161,10369.5578220392011533747106883571325,10368.0,1.5578220392011533747106883571325
162,10498.7590700380149024376932077677816,10497.2,1.5590700380149024376932077677816
163,10628.7603103686132627388933566327740,10627.2,1.5603103686132627388933566327740
164,10759.5615431251263437058617182491705,10758.0,1.5615431251263437058617182491705
165,10891.1627683999700198760260725061160,10889.6,1.5627683999700198760260725061160
166,11023.5639862838874993637814907381129,11022.0,1.5639862838874993637814907381129
167,11156.7651968659896454552112146151187,11155.2,1.5651968659896454552112146151187
168,11290.7664002337940940475589183470852,11289.2,1.5664002337940940475589183470852
169,11425.5675964732632120246889657831403,11424.0,1.5675964732632120246889657831403
170,11561.1687856688409363417741231618089,11559.6,1.5687856688409363417741231618089
171,11697.5699679034885340447923547495191,11696.0,1.5699679034885340447923547495191
172,11834.7711432587193211236706582596530,11833.2,1.5711432587193211236706582596530
173,11972.7723118146323756346609500679215,11971.2,1.5723118146323756346609500679215
174,12111.5734736499452809698545541627156,12110.0,1.5734736499452809698545541627156
175,12251.1746288420259332943237598611361,12249.6,1.5746288420259332943237598611361
176,12391.5757774669234428940215458402730,12390.0,1.5757774669234428940215458402730
177,12532.7769195993981627330094106714249,12531.2,1.5769195993981627330094106714249
178,12674.7780553129508734137662145760518,12673.2,1.5780553129508734137662145760518
179,12817.5791846798511510262292119227431,12816.0,1.5791846798511510262292119227431
180,12961.1803077711649488741042114148187,12959.6,1.5803077711649488741042114148187
181,13105.5814246567814157706281231572687,13104.0,1.5814246567814157706281231572687
182,13250.7825354054389786443036802516490,13249.2,1.5825354054389786443036802516490
183,13396.7836400847507125506080769279932,13395.2,1.5836400847507125506080769279932
184,13543.5847387612290223795857698757619,13542.0,1.5847387612290223795857698757619
185,13691.1858315003096581175580451521210,13689.6,1.5858315003096581175580451521210
186,13839.5869183663750846834515208044165,13838.0,1.5869183663750846834515208044165
187,13988.7879994227772301940115372651516,13987.2,1.5879994227772301940115372651516
188,14138.7890747318596281498890636366410,14137.2,1.5890747318596281498890636366410
189,14289.5901443549789773314288924993881,14288.0,1.5901443549789773314288924993881
190,14441.1912083525261351150223234320648,14439.6,1.5912083525261351150223234320648
191,14593.5922667839465634945896701828701,14592.0,1.5922667839465634945896701828701
192,14746.7933197077602442546655317436978,14745.2,1.5933197077602442546655317436978
193,14900.7943671815810816655868730735001,14899.2,1.5943671815810816655868730735001
194,15055.5954092621358061106895290280948,15054.0,1.5954092621358061106895290280948
195,15211.1964460052823966495568340820792,15209.6,1.5964460052823966495568340820792
196,15367.5974774660280362836222695572302,15366.0,1.5974774660280362836222695572302
197,15524.7985036985466143766097262903025,15523.2,1.5985036985466143766097262903025
198,15682.7995247561957904718987064798811,15681.2,1.5995247561957904718987064798811
199,15841.6005406915336324238198505769681,15840.0,1.6005406915336324238198505769681
200,16001.2015515563348428693735076237772,15999.6,1.6015515563348428693735076237772
201,16161.6025574016065851064496357831696,16160.0,1.6025574016065851064496357831696
202,16322.8035582776039218477653064501318,16321.2,1.6035582776039218477653064501318
203,16484.8045542338448776019454000047427,16483.2,1.6045542338448776019454000047427
204,16647.6055453191251363971033419679050,16646.0,1.6055453191251363971033419679050
205,16811.2065315815323849166724882857878,16809.6,1.6065315815323849166724882857878
206,16975.6075130684603141747224024567679,16974.0,1.6075130684603141747224024567679
207,17140.8084898266222857142167037381123,17139.2,1.6084898266222857142167037381123
208,17306.8094619020646766669305860983070,17305.2,1.6094619020646766669305860983070
209,17473.6104293401799095398636774236212,17472.0,1.6104293401799095398636774236212
210,17641.2113921857191783506327184678466,17639.6,1.6113921857191783506327184678466
211,17809.6123504828048786028229274473213,17808.0,1.6123504828048786028229274473213
212,17978.8133042749427514658010332039525,17977.2,1.6133042749427514658010332039525
213,18148.8142536050337466798495374415150,18147.2,1.6142536050337466798495374415150
214,18319.6151985153856193111290810671934,18318.0,1.6151985153856193111290810671934
215,18491.2161390477242597176898332668069,18489.6,1.6161390477242597176898332668069
216,18663.6170752432047708423553093599616,18662.0,1.6170752432047708423553093599616
217,18836.8180071424222969596315379584955,18835.2,1.6180071424222969596315379584955
218,19010.8189347854226130242429613273255,19009.2,1.6189347854226130242429613273255
219,19185.6198582117124780767618701624555,19184.0,1.6198582117124780767618701624555
220,19361.2207774602697654046988049256351,19359.6,1.6207774602697654046988049256351
221,19537.6216925695533675597032319645149,19536.0,1.6216925695533675597032319645149
222,19714.8226035775128936350863947747645,19713.2,1.6226035775128936350863947747645
223,19892.8235105215981525802449486534424,19891.2,1.6235105215981525802449486534424
224,20071.6244134387684378363632687403555,20070.0,1.6244134387684378363632687403555
225,20251.2253123655016160848471848459598,20249.6,1.6253123655016160848471848459598
226,20431.6262073378030238915723727940436,20430.0,1.6262073378030238915723727940436
227,20612.8270983912141811457833089158724,20611.2,1.6270983912141811457833089158724
228,20794.8279855608213233711283634142713,20793.2,1.6279855608213233711283634142713
229,20977.6288688812637603401900191711264,20976.0,1.6288688812637603401900191711264
230,21161.2297483867420659704644464383653,21159.6,1.6297483867420659704644464383653
231,21345.6306241110261015958899765413394,21344.0,1.6306241110261015958899765413394
232,21530.8314960874628833415493685607256,21529.2,1.6314960874628833415493685607256
233,21716.8323643489842889202083213088028,21715.2,1.6323643489842889202083213088028
234,21903.6332289281146203452693911171938,21902.0,1.6332289281146203452693911171938
235,22091.2340898569780160957707942992642,22089.6,1.6340898569780160957707942992642
236,22279.6349471673057228136960348748346,22278.0,1.6349471673057228136960348748346
237,22468.8358008904432305530026018549086,22467.2,1.6358008904432305530026018549086
238,22658.8366510573572737294419133099687,22657.2,1.6366510573572737294419133099687
