Eigenstate,Energy,Kinetic Energy,Potential Energy
1,0.500000000013943237179553026548459223,0.0,0.500000000013943237179553026548459223
2,1.84623093774212879143388055815842262,1.2,0.64623093774212879143388055815842262
3,3.93633760997232219703535306404496964,3.2,0.73633760997232219703535306404496964
4,6.79966527837109067608745373665562112,6.0,0.79966527837109067608745373665562112
5,10.4480465762502662188872390538856642,9.6,0.8480465762502662188872390538856642
6,14.8870659983628576130994734350129338,14.0,0.8870659983628576130994734350129338
7,20.1197208261462587450754085554856222,19.2,0.9197208261462587450754085554856222
8,26.1477838459770107759634385355251740,25.2,0.9477838459770107759634385355251740
9,32.9723835568611614131191180397018254,32.0,0.9723835568611614131191180397018254
10,40.5942802129471384720597653904978715,39.6,0.9942802129471384720597653904978715
11,49.0140093843758840409984127864576198,48.0,1.0140093843758840409984127864576198
12,58.2319621664519581105943438286534504,57.2,1.0319621664519581105943438286534504
13,68.2484326892411151280579026325407628,67.2,1.0484326892411151280579026325407628
14,79.0636476504264567522774977479855877,78.0,1.0636476504264567522774977479855877
15,90.6777854311226114458433650733425167,89.6,1.0777854311226114458433650733425167
16,103.090988900746176282462577589611336,102.0,1.090988900746176282462577589611336
17,116.303374250477219262656230027784578,115.2,1.103374250477219262656230027784578
18,130.315037244265477509728543116239955,129.2,1.115037244265477509728543116239955
19,145.126057741934334082084919479320202,144.0,1.126057741934334082084919479320202
20,160.736503036814753893275154306957520,159.6,1.136503036814753893275154306957520
21,177.146430361826980543215968128690803,176.0,1.146430361826980543215968128690803
22,194.355888800639276215483909530707081,193.2,1.155888800639276215483909530707081
23,212.364920765604446168824840159787051,211.2,1.164920765604446168824840159787051
24,231.173563155160260780751822092746053,230.0,1.173563155160260780751822092746053
25,250.781848270625381856487480275946950,249.6,1.181848270625381856487480275946950
26,271.189804550006950319864501258533189,270.0,1.189804550006950319864501258533189
27,292.397457160963162005401489154667027,291.2,1.197457160963162005401489154667027
28,314.404828484162307464205530198096378,313.2,1.204828484162307464205530198096378
29,337.211938510484723876604221859970893,336.0,1.211938510484723876604221859970893
30,360.818805169864619596337881685104661,359.6,1.218805169864619596337881685104661
31,385.225444605422793351933878980797475,384.0,1.225444605422793351933878980797475
32,410.431871403463370546789661718424750,409.2,1.231871403463370546789661718424750
33,436.438098787598031295827255268891324,435.2,1.238098787598031295827255268891324
34,463.244138783510658570780296436326051,462.0,1.244138783510658570780296436326051
35,490.850002359536139760751733131767212,489.6,1.250002359536139760751733131767212
36,519.255699547193576076350904499015550,518.0,1.255699547193576076350904499015550
37,548.461239545010069677378540350501521,547.2,1.261239545010069677378540350501521
38,578.466630808340839661028760715729180,577.2,1.266630808340839661028760715729180
39,609.271881127393569398172933522377092,608.0,1.271881127393569398172933522377092
40,640.876997695269066921836505619167423,639.6,1.276997695269066921836505619167423
41,673.281987167513569798332869262330574,672.0,1.281987167513569798332869262330574
42,706.486855714423033310072925249105977,705.2,1.286855714423033310072925249105977
43,740.491609067133254434201739903266070,739.2,1.291609067133254434201739903266070
44,775.296252558361590085749973293720054,774.0,1.296252558361590085749973293720054
45,810.900791158528458525024195832187464,809.6,1.300791158528458525024195832187464
46,847.305229507873676546394647556356643,846.0,1.305229507873676546394647556356643
47,884.509571945089208453330878565781387,883.2,1.309571945089208453330878565781387
48,922.513822532912316460307125210476236,921.2,1.313822532912316460307125210476236
49,961.317985081058439618319190345396431,960.0,1.317985081058439618319190345396431
50,1000.92206316681900564711508540836226,999.6,1.32206316681900564711508540836226
51,1041.32606015360391309478074307049685,1040.0,1.32606015360391309478074307049685
52,1082.52997920767007603103244268756915,1081.2,1.32997920767007603103244268756915
53,1124.53382331324497336202975941137292,1123.2,1.33382331324497336202975941137292
54,1167.33759528622658372307363315544144,1166.0,1.33759528622658372307363315544144
55,1210.94129778661761141304818282088136,1209.6,1.34129778661761141304818282088136
56,1255.34493332983183426434472674056308,1254.0,1.34493332983183426434472674056308
57,1300.54850429699320537689172638708351,1299.2,1.34850429699320537689172638708351
58,1346.55201294433354345862705136837553,1345.2,1.35201294433354345862705136837553
59,1393.35546141178189256747698552762278,1392.0,1.35546141178189256747698552762278
60,1440.95885173082760754220679447972348,1439.6,1.35885173082760754220679447972348
61,1489.36218583172965718200543041921797,1488.0,1.36218583172965718200543041921797
62,1538.56546555013633622955547168859900,1537.2,1.36546555013633622955547168859900
63,1588.56869263317233532332058458578628,1587.2,1.36869263317233532332058458578628
64,1639.37186874504380560486220328046285,1638.0,1.37186874504380560486220328046285
65,1690.97499547220651982702556396565289,1689.6,1.37499547220651982702556396565289
66,1743.37807432813738446978232825963196,1742.0,1.37807432813738446978232825963196
67,1796.58110675774529507919215397105301,1795.2,1.38110675774529507919215397105301
68,1850.58409414145357088413789117340720,1849.2,1.38409414145357088413789117340720
69,1905.38703779898289207476298101181171,1904.0,1.38703779898289207476298101181171
70,1960.98993899286073485827635208250791,1959.6,1.38993899286073485827635208250791
71,2017.39279893168070070405938022598059,2016.0,1.39279893168070070405938022598059
72,2074.59561877313283794763028828039688,2073.2,1.39561877313283794763028828039688
73,2132.59839962682400091661814769772168,2131.2,1.39839962682400091661814769772168
74,2191.40114255690547289334633177755855,2190.0,1.40114255690547289334633177755855
75,2251.00384858452344812752250094713244,2249.6,1.40384858452344812752250094713244
76,2311.40651869010651855577726647677160,2310.0,1.40651869010651855577726647677160
77,2372.60915381550300848637576551611318,2371.2,1.40915381550300848637576551611318
78,2434.61175486597983470924639603181676,2433.2,1.41175486597983470924639603181676
79,2497.41432271209352267147886461305192,2496.0,1.41432271209352267147886461305192
80,2561.01685819144307123279943714770043,2559.6,1.41685819144307123279943714770043
81,2625.41936211031350917405474129782214,2624.0,1.41936211031350917405474129782214
82,2690.62183524521822518118209396656818,2689.2,1.42183524521822518118209396656818
83,2756.62427834434746429335474804734921,2755.2,1.42427834434746429335474804734921
84,2823.42669212892975951227439551448675,2822.0,1.42669212892975951227439551448675
85,2891.02907729451250799340961639216586,2889.6,1.42907729451250799340961639216586
86,2959.43143451216738537458975926415043,2958.0,1.43143451216738537458975926415043
87,3028.63376442962583432656384339713376,3027.2,1.43376442962583432656384339713376
88,3098.63606767234944003239846057903239,3097.2,1.43606767234944003239846057903239
89,3169.43834484453962180042718681289315,3168.0,1.43834484453962180042718681289315
90,3241.04059653009072679873474400175602,3239.6,1.44059653009072679873474400175602
91,3313.44282329349029044710849841253743,3312.0,1.44282329349029044710849841253743
92,3386.64502568066993970485077448221355,3385.2,1.44502568066993970485077448221355
93,3460.64720421981015323778985147174974,3459.2,1.44720421981015323778985147174974
94,3535.44935942210184951908941801871564,3534.0,1.44935942210184951908941801871564
95,3611.05149178246755276442726022094907,3609.6,1.45149178246755276442726022094907
96,3687.45360178024468477999756357399353,3686.0,1.45360178024468477999756357399353
97,3764.65568987983334645968157677298940,3763.2,1.45568987983334645968157677298940
98,3842.65775653131077979343673823463774,3841.2,1.45775653131077979343673823463774
99,3921.45980217101454777676518431886178,3920.0,1.45980217101454777676518431886178
100,4001.06182722209632327070656222171831,3999.6,1.46182722209632327070656222171831
101,4081.46383209504804855764553868918850,4080.0,1.46383209504804855764553868918850
102,4162.66581718820210176350336602520534,4161.2,1.46581718820210176350336602520534
103,4244.66778288820699840326996965061988,4243.2,1.46778288820699840326996965061988
104,4327.46972957048004904212259758287765,4326.0,1.46972957048004904212259758287765
105,4411.07165759963830099062022118422312,4409.6,1.47165759963830099062022118422312
106,4495.47356732990900118821912186431838,4494.0,1.47356732990900118821912186431838
107,4580.67545910552073934739971350274695,4579.2,1.47545910552073934739971350274695
108,4666.67733326107635119114026107170226,4665.2,1.47733326107635119114026107170226
109,4753.47919012190859302293898004936640,4752.0,1.47919012190859302293898004936640
110,4841.08103000441953644846097868132454,4839.6,1.48103000441953644846097868132454
111,4929.48285321640456620668793623919754,4928.0,1.48285321640456620668793623919754
112,5018.68466005736181463481498105301935,5017.2,1.48466005736181463481498105301935
113,5108.68645081878781075534513830698091,5107.2,1.48645081878781075534513830698091
114,5199.48822578446007321607537168326623,5198.0,1.48822578446007321607537168326623
115,5291.08998523070733586516568101338696,5289.6,1.48998523070733586516568101338696
116,5383.49172942666804641183450359164433,5382.0,1.49172942666804641183450359164433
117,5476.69345863453774691021688845907779,5475.2,1.49345863453774691021688845907779
118,5570.69517310980590377281634560106286,5569.2,1.49517310980590377281634560106286
119,5665.49687310148272130626499808015444,5664.0,1.49687310148272130626499808015444
120,5761.09855885231644691987163851736089,5759.6,1.49855885231644691987163851736089
121,5857.50023059900163789019310847352106,5856.0,1.50023059900163789019310847352106
122,5954.70188857237884065173160570096010,5953.2,1.50188857237884065173160570096010
123,6052.70353299762610139092854224334564,6051.2,1.50353299762610139092854224334564
124,6151.50516409444270904081689141103749,6150.0,1.50516409444270904081689141103749
125,6251.10678207722554220743089096509416,6249.6,1.50678207722554220743089096509416
126,6351.50838715523837636177437259069083,6350.0,1.50838715523837636177437259069083
127,6452.70997953277448705326261335056456,6451.2,1.50997953277448705326261335056456
128,6554.71155940931286231336271092136240,6553.2,1.51155940931286231336271092136240
129,6657.51312697966832534491937371435691,6656.0,1.51312697966832534491937371435691
130,6761.11468243413585021078575021599094,6759.6,1.51468243413585021078575021599094
131,6865.51622595862933783126085733895697,6864.0,1.51622595862933783126085733895697
132,6970.71775773481510462263432171968897,6969.2,1.51775773481510462263432171968897
133,7076.71927794024032432755530224560199,7075.2,1.51927794024032432755530224560199
134,7183.52078674845665231198345164409971,7182.0,1.52078674845665231198345164409971
135,7291.12228432913924349513739682067908,7289.6,1.52228432913924349513739682067908
136,7399.52377084820137139132585832980794,7398.0,1.52377084820137139132585832980794
137,7508.72524646790484243460284242091413,7507.2,1.52524646790484243460284242091413
138,7618.72671134696638614519784902580528,7617.2,1.52671134696638614519784902580528
139,7729.52816564066019959076635501972670,7728.0,1.52816564066019959076635501972670
140,7841.12960950091680914953758135512274,7839.6,1.52960950091680914953758135512274
141,7953.53104307641840802494663026603315,7952.0,1.53104307641840802494663026603315
142,8066.73246651269081988807091289177126,8065.2,1.53246651269081988807091289177126
143,8180.73387995219223037402160585932194,8179.2,1.53387995219223037402160585932194
144,8295.53528353439882097880376485921475,8294.0,1.53528353439882097880376485921475
145,8411.13667739588743571539977533119660,8409.6,1.53667739588743571539977533119660
146,8527.53806167041540301907974738521525,8526.0,1.53806167041540301907974738521525
147,8644.73943648899762718897654672196224,8643.2,1.53943648899762718897654672196224
148,8762.74080197998106469492981908151539,8761.2,1.54080197998106469492981908151539
149,8881.54215826911668715052899436656048,8880.0,1.54215826911668715052899436656048
150,9001.14350547962903459320820329073410,8999.6,1.54350547962903459320820329073410
151,9121.54484373228345498562209928211511,9120.0,1.54484373228345498562209928211511
152,9242.74617314545112023744707517766916,9241.2,1.54617314545112023744707517766916
153,9364.74749383517190769727559049653494,9363.2,1.54749383517190769727559049653494
154,9487.54880591521523101381943140067827,9486.0,1.54880591521523101381943140067827
155,9611.15010949713889860238780112229271,9609.6,1.55010949713889860238780112229271
156,9735.55140469034607758297621600127792,9734.0,1.55140469034607758297621600127792
157,9860.75269160214043423654207808055734,9859.2,1.55269160214043423654207808055734
158,9986.75397033777952279754029955796181,9985.2,1.55397033777952279754029955796181
159,10113.5552410005264862555244047206456,10112.0,1.5552410005264862555244047206456
160,10241.1565036917001355033227886878696,10239.6,1.5565036917001355033227886878696
161,10369.5577585107234653278810529966959,10368.0,1.5577585107234653278810529966959
162,10498.7590055551706667048417287689761,10497.2,1.5590055551706667048417287689761
163,10628.7602449208126902501307359376627,10627.2,1.5602449208126902501307359376627
164,10759.5614767016614154651154282922608,10758.0,1.5614767016614154651154282922608
165,10891.1627009900124743755218229531606,10889.6,1.5627009900124743755218229531606
166,11023.5639178764867800796697046012193,11022.0,1.5639178764867800796697046012193
167,11156.7651274500708074383149749517128,11155.2,1.5651274500708074383149749517128
168,11290.7663297981556685949826054765813,11289.2,1.5663297981556685949826054765813
169,11425.5675250065750283888507931527755,11424.0,1.5675250065750283888507931527755
170,11561.1687131596418994032718112956676,11559.6,1.5687131596418994032718112956676
171,11697.5698943401843568443602850344473,11696.0,1.5698943401843568443602850344473
172,11834.7710686295802111162766358690741,11833.2,1.5710686295802111162766358690741
173,11972.7722361077906734955063324725025,11971.2,1.5722361077906734955063324725025
174,12111.5733968533930507476187221396381,12110.0,1.5733968533930507476187221396381
175,12251.1745509436125026714083024742258,12249.6,1.5745509436125026714083024742258
176,12391.5756984543528922767409957272176,12390.0,1.5756984543528922767409957272176
177,12532.7768394602267618566126933279994,12531.2,1.5768394602267618566126933279994
178,12674.7779740345844641077859966081021,12673.2,1.5779740345844641077859966081021
179,12817.5791022495424747449206581252775,12816.0,1.5791022495424747449206581252775
180,12961.1802241760109175545663402785595,12959.6,1.5802241760109175545663402785595
181,13105.5813398837203245375735018457099,13104.0,1.5813398837203245375735018457099
182,13250.7824494412476588352773749799984,13249.2,1.5824494412476588352773749799984
183,13396.7835529160416234886985468328475,13395.2,1.5835529160416234886985468328475
184,13543.5846503744472802722657102398574,13542.0,1.5846503744472802722657102398574
185,13691.1857418817300004101532693809628,13689.6,1.5857418817300004101532693809628
186,13839.5868275020987681438225942785482,13838.0,1.5868275020987681438225942785482
187,13988.7879072987288609512334327543078,13987.2,1.5879072987288609512334327543078
188,14138.7889813337839218540091159667817,14137.2,1.5889813337839218540091159667817
189,14289.5900496684374475436121457029520,14288.0,1.5900496684374475436121457029520
190,14441.1911123628937079775737451011195,14439.6,1.5911123628937079775737451011195
191,14593.5921694764081166682946663103849,14592.0,1.5921694764081166682946663103849
192,14746.7932210673070680465850152771185,14745.2,1.5932210673070680465850152771185
193,14900.7942671930072602037552334226120,14899.2,1.5942671930072602037552334226120
194,15055.5953079100345163530044111101776,15054.0,1.5953079100345163530044111101776
195,15211.1963432740421229424276799025115,15209.6,1.5963432740421229424276799025115
196,15367.5973733398286981115049766766586,15366.0,1.5973733398286981115049766766586
197,15524.7983981613556048663541287825728,15523.2,1.5983981613556048663541287825728
198,15682.7994177917639231356890333713485,15681.2,1.5994177917639231356890333713485
199,15841.6004322833909935412980374106502,15840.0,1.6004322833909935412980374106502
200,16001.2014416877865468232031794611811,15999.6,1.6014416877865468232031794611811
201,16161.6024460557284298958787224327639,16160.0,1.6024460557284298958787224327639
202,16322.8034454372379419116398577943109,16321.2,1.6034454372379419116398577943109
203,16484.8044398815947909858833125739405,16483.2,1.6044398815947909858833125739405
204,16647.6054294373516831990409287887558,16646.0,1.6054294373516831990409287887558
205,16811.2064141523485538405578912714456,16809.6,1.6064141523485538405578912714456
206,16975.6073940737264539135920914282441,16974.0,1.6073940737264539135920914282441
207,17140.8083692479410977710597200937363,17139.2,1.6083692479410977710597200937363
208,17306.8093397207760861044313438031249,17305.2,1.6093397207760861044313438031249
209,17473.6103055373558100281056190993009,17472.0,1.6103055373558100281056190993009
210,17641.2112667421580477549592529748032,17639.6,1.6112667421580477549592529748032
211,17809.6122233790262612220292479291110,17808.0,1.6122233790262612220292479291110
212,17978.8131754911816028934490763717551,17977.2,1.6131754911816028934490763717551
213,18148.8141231212346371185262583940831,18147.2,1.6141231212346371185262583940831
214,18319.6150663111967910206445028318922,18318.0,1.6150663111967910206445028318922
215,18491.2160051024915341232146222049724,18489.6,1.6160051024915341232146222049724
216,18663.6169395359653006671242658656543,18662.0,1.6169395359653006671242658656543
217,18836.8178696518981585787214709062180,18835.2,1.6178696518981585787214709062180
218,19010.8187954900142340607744487546475,19009.2,1.6187954900142340607744487546475
219,19185.6197170894918950793359907389902,19184.0,1.6197170894918950793359907389902
220,19361.2206344889737062546326596962172,19359.6,1.6206344889737062546326596962172
221,19537.6215477265761530582607920450133,19536.0,1.6215477265761530582607920450133
222,19714.8224568398991525140469281908075,19713.2,1.6224568398991525140469281908075
223,19892.8233618660353439633958603481599,19891.2,1.6233618660353439633958603481599
224,20071.6242628415791749544164088644977,20070.0,1.6242628415791749544164088644977
225,20251.2251598026357848113592074992427,20249.6,1.6251598026357848113592074992427
226,20431.6260527848296894222990821296351,20430.0,1.6260527848296894222990821296351
227,20612.8269418233132758879000911191504,20611.2,1.6269418233132758879000911191504
228,20794.8278269527751088414540803170851,20793.2,1.6278269527751088414540803170851
229,20977.6287082074480555923276116967836,20976.0,1.6287082074480555923276116967836
230,21161.2295856211172347790450874441309,21159.6,1.6295856211172347790450874441309
231,21345.6304592271277903212619980237169,21344.0,1.6304592271277903212619980237169
232,21530.8313290583925010795323436048582,21529.2,1.6313290583925010795323436048582
233,21716.8321951473992212083578523814263,21715.2,1.6321951473992212083578523814263
234,21903.6330575262181673485679140026176,21902.0,1.6330575262181673485679140026176
235,22091.2339162265090458301130975195809,22089.6,1.6339162265090458301130975195809
236,22279.6347712795280295840232405617872,22278.0,1.6347712795280295840232405617872
237,22468.8356227161345883836394189688068,22467.2,1.6356227161345883836394189688068
238,22658.8364705667981741461130093002469,22657.2,1.6364705667981741461130093002469
