Eigenstate,Energy,Kinetic Energy,Potential Energy
1,0.500000009241106732819485233260251077,0.0,0.500000009241106732819485233260251077
2,1.84623099798104286917497834184563361,1.2,0.64623099798104286917497834184563361
3,3.93633778695942197490036928183241913,3.2,0.73633778695942197490036928183241913
4,6.79966564712964652437173220520875392,6.0,0.79966564712964652437173220520875392
5,10.4480472152687490123550005066047653,9.6,0.8480472152687490123550005066047653
6,14.8870669876642836197602629897141736,14.0,0.8870669876642836197602629897141736
7,20.1197222466038101720048544274548201,19.2,0.9197222466038101720048544274548201
8,26.1477857790537419462998383751778446,25.2,0.9477857790537419462998383751778446
9,32.9723860845122563452927281819454675,32.0,0.9723860845122563452927281819454675
10,40.5942834175920017592848892071089163,39.6,0.9942834175920017592848892071089163
11,49.0140133489033784213662280555665535,48.0,1.0140133489033784213662280555665535
12,58.2319669742428187005865681004505493,57.2,1.0319669742428187005865681004505493
13,68.2484384242000122016784372541903990,67.2,1.0484384242000122016784372541903990
14,79.0636543970199196050366866855429370,78.0,1.0636543970199196050366866855429370
15,90.6777932744208064903850616583928510,89.6,1.0777932744208064903850616583928510
16,103.090997926467433962748232725217608,102.0,1.090997926467433962748232725217608
17,116.303384545034685841152276293637400,115.2,1.103384545034685841152276293637400
18,130.315048894815537407883448950281454,129.2,1.115048894815537407883448950281454
19,145.126070836426606050847549482418374,144.0,1.126070836426606050847549482418374
20,160.736517664043560151638717185756333,159.6,1.136517664043560151638717185756333
21,177.146446611484248622506089722235956,176.0,1.146446611484248622506089722235956
22,194.355906763368873072263655553835808,193.2,1.155906763368873072263655553835808
23,212.364940533057971388200773093702952,211.2,1.164940533057971388200773093702952
24,231.173584820054345184163985051173829,230.0,1.173584820054345184163985051173829
25,250.781871926800552442381555311459923,249.6,1.181871926800552442381555311459923
26,271.189830292488133987694791809155393,270.0,1.189830292488133987694791809155393
27,292.397485086021910075624861840349411,291.2,1.197485086021910075624861840349411
28,314.404858689380831345508384464530043,313.2,1.204858689380831345508384464530043
29,337.211971094821839837408157240777412,336.0,1.211971094821839837408157240777412
30,360.818840233723707806695990926643431,359.6,1.218840233723707806695990926643431
31,385.225482250721883411135458122907261,384.0,1.225482250721883411135458122907261
32,410.431911733707472773775736586049893,409.2,1.231911733707472773775736586049893
33,436.438141907953840264259371320335616,435.2,1.238141907953840264259371320335616
34,463.244184800883762820953815939620961,462.0,1.244184800883762820953815939620961
35,490.850051382650879401179378285436588,489.6,1.250051382650879401179378285436588
36,519.255751686675698171842714073260037,518.0,1.255751686675698171842714073260037
37,548.461294913472339973947845629413122,547.2,1.261294913472339973947845629413122
38,578.466689520471778383169260487168594,577.2,1.266689520471778383169260487168594
39,609.271943300049488631777534357622081,608.0,1.271943300049488631777534357622081
40,640.877063447569597527285688489210226,639.6,1.277063447569597527285688489210226
41,673.282056620940876945777605122560377,672.0,1.282056620940876945777605122560377
42,706.486928992924931658211076720457595,705.2,1.286928992924931658211076720457595
43,740.491686297230446754216110468841172,739.2,1.291686297230446754216110468841172
44,775.296333869259266837648045239111923,774.0,1.296333869259266837648045239111923
45,810.900876682232510604037244974293920,809.6,1.300876682232510604037244974293920
46,847.305319379311789218532715247453887,846.0,1.305319379311789218532715247453887
47,884.509666302237121485131254178092490,883.2,1.309666302237121485131254178092490
48,922.513921516925553720060323436607999,921.2,1.313921516925553720060323436607999
49,961.318088836409831095666302981716883,960.0,1.318088836409831095666302981716883
50,1000.92217184144234602633536442663694,999.6,1.32217184144234602633536442663694
51,1041.32617389904412385734055839719233,1040.0,1.32617389904412385734055839719233
52,1082.53009817924026270091299358234486,1081.2,1.33009817924026270091299358234486
53,1124.53394767019079610315422003208665,1123.2,1.33394767019079610315422003208665
54,1167.33772519189838822799880454933795,1166.0,1.33772519189838822799880454933795
55,1210.94143340865079807978165082720000,1209.6,1.34143340865079807978165082720000
56,1255.34507484033597725738808820217689,1254.0,1.34507484033597725738808820217689
57,1300.54865187275046954503085079042318,1299.2,1.34865187275046954503085079042318
58,1346.55216676700698649596104393873241,1345.2,1.35216676700698649596104393873241
59,1393.35562166813428254330243577389315,1392.0,1.35562166813428254330243577389315
60,1440.95901861295143230825042404887750,1439.6,1.35901861295143230825042404887750
61,1489.36235953728905254492268531481406,1488.0,1.36235953728905254492268531481406
62,1538.56564628262171454393807699676950,1537.2,1.36564628262171454393807699676950
63,1588.56888060216855575029183821212283,1587.2,1.36888060216855575029183821212283
64,1639.37206416651279217677796510511140,1638.0,1.37206416651279217677796510511140
65,1690.97519856878530419770931045523961,1689.6,1.37519856878530419770931045523961
66,1743.37828532945262741112800015411146,1742.0,1.37828532945262741112800015411146
67,1796.58132590074542507762301189110992,1795.2,1.38132590074542507762301189110992
68,1850.58432167075977034102192781976000,1849.2,1.38432167075977034102192781976000
69,1905.38727396726026245897845163696425,1904.0,1.38727396726026245897845163696425
70,1960.99018406121108263207182636999223,1959.6,1.39018406121108263207182636999223
71,2017.39305317005850699476149977830702,2016.0,1.39305317005850699476149977830702
72,2074.59588246078610794567529994037031,2073.2,1.39588246078610794567529994037031
73,2132.59867305276183517028310842175558,2131.2,1.39867305276183517028310842175558
74,2191.40142602039436353471787916132401,2190.0,1.40142602039436353471787916132401
75,2251.00414239561448028624804141206509,2249.6,1.40414239561448028624804141206509
76,2311.40682317019585269819186464469344,2310.0,1.40682317019585269819186464469344
77,2372.60946929792823530937707595580526,2371.2,1.40946929792823530937707595580526
78,2434.61208169665503295816502565555264,2433.2,1.41208169665503295816502565555264
79,2497.41466125018611460626970389367035,2496.0,1.41466125018611460626970389367035
80,2561.01720881009586358259360016022169,2559.6,1.41720881009586358259360016022169
81,2625.41972519741563287933597835072363,2624.0,1.41972519741563287933597835072363
82,2690.62221120422904911243064306246330,2689.2,1.42221120422904911243064306246330
83,2756.62466759517796112710126708925826,2755.2,1.42466759517796112710126708925826
84,2823.42709510888625138928220829715774,2822.0,1.42709510888625138928220829715774
85,2891.02949445930822161741547020098858,2889.6,1.42949445930822161741547020098858
86,2959.43186633700780788930848109724303,2958.0,1.43186633700780788930848109724303
87,3028.63421141037449076204730076309660,3027.2,1.43421141037449076204730076309660
88,3098.63653032678141972239479864750025,3097.2,1.43653032678141972239479864750025
89,3169.43882371369097579518605289843896,3168.0,1.43882371369097579518605289843896
90,3241.04109217971275351956674312179313,3239.6,1.44109217971275351956674312179313
91,3313.44333631561873727686094992188837,3312.0,1.44333631561873727686094992188837
92,3386.64555669532029092236286836723965,3385.2,1.44555669532029092236286836723965
93,3460.64775387681146958347363117003424,3459.2,1.44775387681146958347363117003424
94,3535.44992840308309501940700082959222,3534.0,1.44992840308309501940700082959222
95,3611.05208080301201759259473141134988,3609.6,1.45208080301201759259473141134988
96,3687.45421159223002107617943347824401,3686.0,1.45421159223002107617943347824401
97,3764.65632127397691516938325959749126,3763.2,1.45632127397691516938325959749126
98,3842.65841033994250568216501174307237,3841.2,1.45841033994250568216501174307237
99,3921.46047927110235024382621963995923,3920.0,1.46047927110235024382621963995923
100,4001.06252853855249601918325785452625,3999.6,1.46252853855249601918325785452625
101,4081.46455860434877758450894992694261,4080.0,1.46455860434877758450894992694261
102,4162.66656992235672963827483523473721,4161.2,1.46656992235672963827483523473721
103,4244.66856293911877304439450035665506,4243.2,1.46856293911877304439450035665506
104,4327.47053809474606957202942112029806,4326.0,1.47053809474606957202942112029806
105,4411.07249582384335223150298433671289,4409.6,1.47249582384335223150298433671289
106,4495.47443655647614724137859730888788,4494.0,1.47443655647614724137859730888788
107,4580.67636071919116410863679330647535,4579.2,1.47636071919116410863679330647535
108,4666.67826873610228243374310497168199,4665.2,1.47826873610228243374310497168199
109,4753.48016103005658780730481677084850,4752.0,1.48016103005658780730481677084850
110,4841.08203802389738615046701358678777,4839.6,1.48203802389738615046701358678777
111,4929.48390014184415577829922537875120,4928.0,1.48390014184415577829922537875120
112,5018.68574781101313881614286436191176,5017.2,1.48574781101313881614286436191176
113,5108.68758146310688519168280220986142,5107.2,1.48758146310688519168280220986142
114,5199.48940153630678792975032779283860,5198.0,1.48940153630678792975032779283860
115,5291.09120847740979092894371419346864,5289.6,1.49120847740979092894371419346864
116,5383.49300274425938844451544862459901,5382.0,1.49300274425938844451544862459901
117,5476.69478480853231440368295595335277,5475.2,1.49478480853231440368295595335277
118,5570.69655515895660551593080542000996,5569.2,1.49655515895660551593080542000996
119,5665.49831430505495845187798109656595,5664.0,1.49831430505495845187798109656595
120,5761.10006278153074069593816985879591,5759.6,1.50006278153074069593816985879591
121,5857.50180115344434292145531686088066,5856.0,1.50180115344434292145531686088066
122,5954.70353002236715690629238431824973,5953.2,1.50353002236715690629238431824973
123,6052.70525003375255619832241903258012,6051.2,1.50525003375255619832241903258012
124,6151.50696188583245608491418686782524,6150.0,1.50696188583245608491418686782524
125,6251.10866634044081740305263493487518,6249.6,1.50866634044081740305263493487518
126,6351.51036423629122305114645979370524,6350.0,1.51036423629122305114645979370524
127,6452.71205650540801948634241647776899,6451.2,1.51205650540801948634241647776899
128,6554.71374419364964630274842266127952,6553.2,1.51374419364964630274842266127952
129,6657.51542848659895268975446236573564,6656.0,1.51542848659895268975446236573564
130,6761.11711074257468589064479067247330,6759.6,1.51711074257468589064479067247330
131,6865.51879253521269498952247394232235,6864.0,1.51879253521269498952247394232235
132,6970.72047570908841030309907620504160,6969.2,1.52047570908841030309907620504160
133,7076.72216245338789375564241790479895,7075.2,1.52216245338789375564241790479895
134,7183.52385540098832496856215419704001,7182.0,1.52385540098832496856215419704001
135,7291.12555776399942128172306104016307,7289.6,1.52555776399942128172306104016307
136,7399.52727352275476348445192678262897,7398.0,1.52727352275476348445192678262897
137,7508.72900769507317125764737453604417,7507.2,1.52900769507317125764737453604417
138,7618.73076672942828530359553797076822,7617.2,1.53076672942828530359553797076822
139,7729.53255909552747653615044618048001,7728.0,1.53255909552747653615044618048001
140,7841.13439620115964844929806638830114,7839.6,1.53439620115964844929806638830114
141,7953.53629387208710611777864846400481,7952.0,1.53629387208710611777864846400481
142,8066.73827485506141577212345366138888,8065.2,1.53827485506141577212345366138888
143,8180.74037330063540215907824024731267,8179.2,1.54037330063540215907824024731267
144,8295.54264338953499709232036871834782,8294.0,1.54264338953499709232036871834782
145,8411.14517755199105986306198079157429,8409.6,1.54517755199105986306198079157429
146,8527.54815011823566936674479831983111,8526.0,1.54815011823566936674479831983111
147,8644.75194278560227776996556322754009,8643.2,1.55194278560227776996556322754009
148,8762.75762772223967511283595580979386,8761.2,1.55762772223967511283595580979386
149,8881.57030441418463380291902606278090,8880.0,1.57030441418463380291902606278090
