Eigenstate,Energy,Kinetic Energy,Potential Energy
1,0.500000000015795788294886862376650516,0.0,0.500000000015795788294886862376650516
2,1.84623093775422126051290545293853050,1.2,0.64623093775422126051290545293853050
3,3.93633761000784276179424882876887477,3.2,0.73633761000784276179424882876887477
4,6.79966527844507570715813190347259823,6.0,0.79966527844507570715813190347259823
5,10.4480465763784228822144384146409558,9.6,0.8480465763784228822144384146409558
6,14.8870659985611676194509676111838885,14.0,0.8870659985611676194509676111838885
7,20.1197208264308322656551361419685586,19.2,0.9197208264308322656551361419685586
8,26.1477838463640254410205529607811553,25.2,0.9477838463640254410205529607811553
9,32.9723835573668338744443535186916666,32.0,0.9723835573668338744443535186916666
10,40.5942802135877099035497551147960549,39.6,0.9942802135877099035497551147960549
11,49.0140093851676122005822987606492456,48.0,1.0140093851676122005822987606492456
12,58.2319621674111127456894720363392473,57.2,1.0319621674111127456894720363392473
13,68.2484326903839752012146736982762525,67.2,1.0484326903839752012146736982762525
14,79.0636476517693087143058477281304290,78.0,1.0636476517693087143058477281304290
15,90.6777854326817481408254494553279321,89.6,1.0777854326817481408254494553279321
16,103.090988902537896249646174172954405,102.0,1.090988902537896249646174172954405
17,116.303374252517826296475548520246811,115.2,1.103374252517826296475548520246811
18,130.315037246571280392893858509738389,129.2,1.115037246571280392893858509738389
19,145.126057744521646437854335285476983,144.0,1.126057744521646437854335285476983
20,160.736503039699894121764554204683619,159.6,1.136503039699894121764554204683619
21,177.146430365026271818228602817337160,176.0,1.146430365026271818228602817337160
22,194.355888804169046525754524977273532,193.2,1.155888804169046525754524977273532
23,212.364920769481028392419750685959582,211.2,1.164920769481028392419750685959582
24,231.173563159399992784606439329977988,230.0,1.173563159399992784606439329977988
25,250.781848275244606615273341094834134,249.6,1.181848275244606615273341094834134
26,271.189804555022016049913994987742259,270.0,1.189804555022016049913994987742259
27,292.397457166390422310504114194489012,291.2,1.197457166390422310504114194489012
28,314.404828490018121490868654176137370,313.2,1.204828490018121490868654176137370
29,337.211938516785456476938479381469578,336.0,1.211938516785456476938479381469578
30,360.818805176626641497145616083018448,359.6,1.218805176626641497145616083018448
31,385.225444612662481328891255991447148,384.0,1.225444612662481328891255991447148
32,410.431871411197107602848758983652847,409.2,1.231871411197107602848758983652847
33,436.438098795842206843144193556285618,435.2,1.238098795842206843144193556285618
34,463.244138792281668615613923962909568,462.0,1.244138792281668615613923962909568
35,490.850002368850387090884970311031790,489.6,1.250002368850387090884970311031790
36,519.255699557067470450671185184286766,518.0,1.255699557067470450671185184286766
37,548.461239555460028017320411832805347,547.2,1.261239555460028017320411832805347
38,578.466630819383286243634729893837208,577.2,1.266630819383286243634729893837208
39,609.271881139044936050571150374484060,608.0,1.271881139044936050571150374484060
40,640.876997707545793216968171574602037,639.6,1.276997707545793216968171574602037
41,673.281987180432103251790098790980419,672.0,1.281987180432103251790098790980419
42,706.486855727999829577930533263972265,705.2,1.286855727999829577930533263972265
43,740.491609081384777511745103314296345,739.2,1.291609081384777511745103314296345
44,775.296252573304312507016534970328608,774.0,1.296252573304312507016534970328608
45,810.900791174178861563088978201924965,809.6,1.300791174178861563088978201924965
46,847.305229524248250414340813710041530,846.0,1.305229524248250414340813710041530
47,884.509571962204452505855316221700800,883.2,1.309571962204452505855316221700800
48,922.513822550784739395918550728529931,921.2,1.313822550784739395918550728529931
49,961.317985099704559682092619473761985,960.0,1.317985099704559682092619473761985
50,1000.92206318625535083397190941638591,999.6,1.32206318625535083397190941638591
51,1041.32606017384702135326823602748234,1040.0,1.32606017384702135326823602748234
52,1082.52997922873649546758044394265524,1081.2,1.32997922873649546758044394265524
53,1124.53382333515126244566564095377429,1123.2,1.33382333515126244566564095377429
54,1167.33759530898931149057954913792134,1166.0,1.33759530898931149057954913792134
55,1210.94129781025335767454710410813958,1209.6,1.34129781025335767454710410813958
56,1255.34493335435718980930391699258431,1254.0,1.34493335435718980930391699258431
57,1300.54850432242477218053419956898513,1299.2,1.34850432242477218053419956898513
58,1346.55201297068793488874318513412277,1345.2,1.35201297068793488874318513412277
59,1393.35546143907573359162989684322419,1392.0,1.35546143907573359162989684322419
60,1440.95885175907753493532633171535983,1439.6,1.35885175907753493532633171535983
61,1489.36218586095231973436673782657076,1488.0,1.36218586095231973436673782657076
62,1538.56546558034839495513905699589784,1537.2,1.36546558034839495513905699589784
63,1588.56869266439046366855166448693562,1587.2,1.36869266439046366855166448693562
64,1639.37186877728468965772786616067792,1638.0,1.37186877728468965772786616067792
65,1690.97499550548685852656896061748731,1689.6,1.37499550548685852656896061748731
66,1743.37807436247388981597369725922392,1742.0,1.37807436247388981597369725922392
67,1796.58110679315469234317701887542708,1795.2,1.38110679315469234317701887542708
68,1850.58409417795259881886324699660085,1849.2,1.38409417795259881886324699660085
69,1905.38703783658830312598271146964241,1904.0,1.38703783658830312598271146964241
70,1960.98993903158929537593750239187714,1959.6,1.38993903158929537593750239187714
71,2017.39279897154919115407125432533455,2016.0,1.39279897154919115407125432533455
72,2074.59561881415805312401864768524189,2073.2,1.39561881415805312401864768524189
73,2132.59839966902275015406707639162722,2131.2,1.39839966902275015406707639162722
74,2191.40114260029458028013057588620887,2190.0,1.40114260029458028013057588620887
75,2251.00384862911975271883333731261987,2249.6,1.40384862911975271883333731261987
76,2311.40651873592687458744514487817147,2310.0,1.40651873592687458744514487817147
77,2372.60915386256428558899317948059450,2371.2,1.40915386256428558899317948059450
78,2434.61175491429891812269460178869601,2433.2,1.41175491429891812269460178869601
79,2497.41432276168731345986223121629381,2496.0,1.41432276168731345986223121629381
80,2561.01685824232848649979135796718588,2559.6,1.41685824232848649979135796718588
81,2625.41936216250748227865916949629387,2624.0,1.41936216250748227865916949629387
82,2690.62183529873770595391490191315131,2689.2,1.42183529873770595391490191315131
83,2756.62427839920941925284921291091413,2755.2,1.42427839920941925284921291091413
84,2823.42669218515117208231521983257437,2822.0,1.42669218515117208231521983257437
85,2891.02907735211037872040000858123357,2889.6,1.42907735211037872040000858123357
86,2959.43143457115873214545617235163816,2958.0,1.43143457115873214545617235163816
87,3028.63376449002769258710307071284279,3027.2,1.43376449002769258710307071284279
88,3098.63606773417886300607186640180643,3097.2,1.43606773417886300607186640180643
89,3169.43834490781368070760692084966261,3168.0,1.43834490781368070760692084966261
90,3241.04059659482651107640686479304717,3239.6,1.44059659482651107640686479304717
91,3313.44282335970490796903800023593728,3312.0,1.44282335970490796903800023593728
92,3386.64502574838051700221357099843192,3385.2,1.44502574838051700221357099843192
93,3460.64720428903383572027683589764176,3459.2,1.44720428903383572027683589764176
94,3535.44935949285580169648777439506927,3534.0,1.44935949285580169648777439506927
95,3611.05149185476895846868425837174795,3609.6,1.45149185476895846868425837174795
96,3687.45360185411074738777212024029898,3686.0,1.45360185411074738777212024029898
97,3764.65568995528128911538891789503859,3763.2,1.45568995528128911538891789503859
98,3842.65775660835784563279154483652864,3841.2,1.45775660835784563279154483652864
99,3921.45980224967800015082865272703402,3920.0,1.45980224967800015082865272703402
100,4001.06182730239344597044285393944269,3999.6,1.46182730239344597044285393944269
101,4081.46383217699614603899314117958534,4080.0,1.46383217699614603899314117958534
102,4162.66581727181849937296691957529696,4161.2,1.46581727181849937296691957529696
103,4244.66778297350904260403816744180173,4243.2,1.46778297350904260403816744180173
104,4327.46972965748510764071780614403877,4326.0,1.46972965748510764071780614403877
105,4411.07165768836376336408549404071588,4409.6,1.47165768836376336408549404071588
106,4495.47356742037227851184833510245578,4494.0,1.47356742037227851184833510245578
107,4580.67545919773926482301657627512405,4579.2,1.47545919773926482301657627512405
108,4666.67733335506758027593199532021559,4665.2,1.47733335506758027593199532021559
109,4753.47919021769000365885050807757224,4752.0,1.47919021769000365885050807757224
110,4841.08103010200862929215547109620717,4839.6,1.48103010200862929215547109620717
111,4929.48285331581886486007963948382970,4928.0,1.48285331581886486007963948382970
112,5018.68466015861886587618024789847992,5017.2,1.48466015861886587618024789847992
113,5108.68645092190518477101763679983957,5107.2,1.48645092190518477101763679983957
114,5199.48822588945536383273147933982329,5198.0,1.48822588945536383273147933982329
115,5291.08998533759816078270609934236094,5289.6,1.48998533759816078270609934236094
116,5383.49172953547204743686816731559309,5382.0,1.49172953547204743686816731559309
117,5476.69345874527259019015327550555486,5475.2,1.49345874527259019015327550555486
118,5570.69517322248928003057232708495640,5569.2,1.49517322248928003057232708495640
119,5665.49687321613234607559239515458237,5664.0,1.49687321613234607559239515458237
120,5761.09855896895006078131169543462023,5759.6,1.49855896895006078131169543462023
121,5857.50023071763700670766411878164220,5856.0,1.50023071763700670766411878164220
122,5954.70188869303375580975596226872459,5953.2,1.50188869303375580975596226872459
123,6052.70353312031838003250550826840108,6051.2,1.50353312031838003250550826840108
124,6151.50516421919019430594743887234777,6150.0,1.50516421919019430594743887234777
125,6251.10678220404610347230096601827106,6249.6,1.50678220404610347230096601827106
126,6351.50838728414990947860298998929954,6350.0,1.50838728414990947860298998929954
127,6452.70997966379491459082121860645986,6451.2,1.50997966379491459082121860645986
128,6554.71155954246013379817227851876413,6553.2,1.51155954246013379817227851876413
129,6657.51312711496041750313173097348840,6656.0,1.51312711496041750313173097348840
130,6761.11468257159076721075567501635064,6759.6,1.51468257159076721075567501635064
131,6865.51622609826511152681550458093948,6864.0,1.51622609826511152681550458093948
132,6970.71775787664979479704658976243005,6969.2,1.51775787664979479704658976243005
133,7076.71927808429201893822776031673875,7075.2,1.51927808429201893822776031673875
134,7183.52078689474346773584950583711896,7182.0,1.52078689474346773584950583711896
135,7291.12228447767932477478639711360369,7289.6,1.52228447767932477478639711360369
136,7399.52377099901289248185887450945572,7398.0,1.52377099901289248185887450945572
137,7508.72524662100600645122588271383912,7507.2,1.52524662100600645122588271383912
138,7618.72671150237542561155932966352027,7617.2,1.52671150237542561155932966352027
139,7729.52816579839537668804565528634232,7728.0,1.52816579839537668804565528634232
140,7841.12960966099641596629156447768007,7839.6,1.52960966099641596629156447768007
141,7953.53104323886076680772103339862400,7952.0,1.53104323886076680772103339862400
142,8066.73246667751428329278355317479221,8065.2,1.53246667751428329278355317479221
143,8180.73388011941518171812438832240925,8179.2,1.53388011941518171812438832240925
144,8295.53528370403967449423050233831369,8294.0,1.53528370403967449423050233831369
145,8411.13667756796463680230687762401715,8409.6,1.53667756796463680230687762401715
146,8527.53806184494742850038687043024510,8526.0,1.53806184494742850038687043024510
147,8644.73943666600298556571432364117459,8643.2,1.53943666600298556571432364117459
148,8762.74080215947829640240184161528661,8761.2,1.54080215947829640240184161528661
149,8881.54215845112436481529524684186363,8880.0,1.54215845112436481529524684186363
150,9001.14350566416576329089717592105112,8999.6,1.54350566416576329089717592105112
151,9121.54484391936787249957887493319933,9120.0,1.54484391936787249957887493319933
152,9242.74617333510189731822469382176986,9241.2,1.54617333510189731822469382176986
153,9364.74749402740774832297704944618284,9363.2,1.54749402740774832297704944618284
154,9487.54880611005487265129770460069743,9486.0,1.54880611005487265129770460069743
155,9611.15010969460111246931132449520480,9609.6,1.55010969460111246931132449520480
156,9735.55140489044966891076729844966184,9734.0,1.55140489044966891076729844966184
157,9860.75269180490424253419575657201724,9859.2,1.55269180490424253419575657201724
158,9986.75397054322242211633118223621156,9985.2,1.55397054322242211633118223621156
159,10113.5552412086673854546091093379016,10112.0,1.5552412086673854546091093379016
160,10241.1565039025579785162455881096100,10239.6,1.5565039025579785162455881096100
161,10369.5577587243172314299904058390176,10368.0,1.5577587243172314299904058390176
162,10498.7590057715193707816254448286651,10497.2,1.5590057715193707816254448286651
163,10628.7602451399353830664774908519358,10627.2,1.5602451399353830664774908519358
164,10759.5614769235771839355104471554293,10758.0,1.5614769235771839355104471554293
165,10891.1627012147404418351845792651322,10889.6,1.5627012147404418351845792651322
166,11023.5639181040461065566415182566586,11022.0,1.5639181040461065566415182566586
167,11156.7651276804806899265044288714954,11155.2,1.5651276804806899265044288714954
168,11290.7663300314353413281767828508722,11289.2,1.5663300314353413281767828508722
169,11425.5675252427437631157003151870927,11424.0,1.5675252427437631157003151870927
170,11561.1687133987190056632577661431608,11559.6,1.5687133987190056632577661431608
171,11697.5698945821891822447511505503936,11696.0,1.5698945821891822447511505503936
172,11834.7710688745321416100833519482858,11833.2,1.5710688745321416100833519482858
173,11972.7722363557091336604437027683870,11971.2,1.5722363557091336604437027683870
174,12111.5733971042975040660814267215661,12110.0,1.5733971042975040660814267215661
175,12251.1745511975224518114697747522648,12249.6,1.5745511975224518114697747522648
176,12391.5756987112878793741835389676495,12390.0,1.5756987112878793741835389676495
177,12532.7768397202063687979971948659624,12531.2,1.5768397202063687979971948659624
178,12674.7779742976283128145696912961379,12673.2,1.5779742976283128145696912961379
179,12817.5791025156702274586314255454303,12816.0,1.5791025156702274586314255454303
180,12961.1802244452422771230420644324541,12959.6,1.5802244452422771230420644324541
181,13105.5813401560750347022750673231341,13104.0,1.5813401560750347022750673231341
182,13250.7824497167455045196839374901307,13249.2,1.5824497167455045196839374901307
183,13396.7835531947024310877937737198024,13395.2,1.5835531947024310877937737198024
184,13543.5846506562909179431236978783695,13542.0,1.5846506562909179431236978783695
185,13691.1857421667763783636329412372600,13689.6,1.5857421667763783636329412372600
186,13839.5868277903678389373794021516875,13838.0,1.5868277903678389373794021516875
187,13988.7879075902406197828572630282091,13987.2,1.5879075902406197828572630282091
188,14138.7889816285584068572973147727528,14137.2,1.5889816285584068572973147727528
189,14289.5900499664947400839866792868454,14288.0,1.5900499664947400839866792868454
190,14441.1911126642539329496515426597250,14439.6,1.5911126642539329496515426597250
191,14593.5921697810914427944202216207311,14592.0,1.5921697810914427944202216207311
192,14746.7932213753337081765344183061703,14745.2,1.5932213753337081765344183061703
193,14900.7942675043974716156208377348854,14899.2,1.5942675043974716156208377348854
194,15055.5953082248086010552694177208805,15054.0,1.5953082248086010552694177208805
195,15211.1963435922204279772399126871426,15209.6,1.5963435922204279772399126871426
196,15367.5973736614316158591592825866605,15366.0,1.5973736614316158591592825866605
197,15524.7983984864035733509927951802061,15523.2,1.5983984864035733509927951802061
198,15682.7994181202774263322297199011811,15681.2,1.5994181202774263322297199011811
199,15841.6004326153905616835987985313129,15840.0,1.6004326153905616835987985313129
200,16001.2014420232927567134741557126815,15999.6,1.6014420232927567134741557126815
201,16161.6024463947619052153501590775932,16160.0,1.6024463947619052153501590775932
202,16322.8034457798193535324962195951827,16321.2,1.6034457798193535324962195951827
203,16484.8044402277448572844732368880415,16483.2,1.6044402277448572844732368880415
204,16647.6054297870911703703728866302296,16646.0,1.6054297870911703703728866302296
205,16811.2064145056982762140914561096890,16809.6,1.6064145056982762140914561096890
206,16975.6073944307072742703347741841221,16974.0,1.6073944307072742703347741841221
207,17140.8083696085739276619794255644843,17139.2,1.6083696085739276619794255644843
208,17306.8093400850818861701945267131802,17305.2,1.6093400850818861701945267131802
209,17473.6103059053555903201512816837892,17472.0,1.6103059053555903201512816837892
210,17641.2112671138728680579190460180478,17639.6,1.6112671138728680579190460180478
211,17809.6122237544772313775039269201006,17808.0,1.6122237544772313775039269201006
212,17978.8131758703898831251516628567316,17977.2,1.6131758703898831251516628567316
213,18148.8141235042214383588023399030753,18147.2,1.6141235042214383588023399030753
214,18319.6150666979833752383801496674603,18318.0,1.6150666979833752383801496674603
215,18491.2160054930992146531424541760748,18489.6,1.6160054930992146531424541760748
216,18663.6169399304154425405383114073083,18662.0,1.6169399304154425405383114073083
217,18836.8178700502121788556114650755165,18835.2,1.6178700502121788556114650755165
218,19010.8187958922136021633903626226201,19009.2,1.6187958922136021633903626226201
219,19185.6197174955981331271935910322538,19184.0,1.6197174955981331271935910322538
220,19361.2206348990083894009709998358557,19359.6,1.6206348990083894009709998358557
221,19537.6215481405609098279625814612646,19536.0,1.6215481405609098279625814612646
222,19714.8224572578556651430328320101701,19713.2,1.6224572578556651430328320101701
223,19892.8233622879853487395038262992964,19891.2,1.6233622879853487395038262992964
224,20071.6242632675444625597771907123582,20070.0,1.6242632675444625597771907123582
225,20251.2251602326382006662793468123430,20249.6,1.6251602326382006662793468123430
226,20431.6260532188911340306626643367060,20430.0,1.6260532188911340306626643367060
227,20612.8269422614557051841006763898618,20611.2,1.6269422614557051841006763898618
228,20794.8278273950205345388682871998621,20793.2,1.6278273950205345388682871998621
229,20977.6287086538185455333418823686045,20976.0,1.6287086538185455333418823686045
230,21161.2295860716349132866472903432498,21159.6,1.6295860716349132866472903432498
231,21345.6304596818148385522095423914663,21344.0,1.6304596818148385522095423914663
232,21530.8313295172711573791085909388415,21529.2,1.6313295172711573791085909388415
233,21716.8321956104917814667286947699520,21715.2,1.6321956104917814667286947699520
234,21903.6330579935469853587504433921784,21902.0,1.6330579935469853587504433921784
235,22091.2339166980965336475683915077606,22089.6,1.6339166980965336475683915077606
236,22279.6347717553966578878853386311736,22278.0,1.6347717553966578878853386311736
237,22468.8356231963068868395927047088471,22467.2,1.6356231963068868395927047088471
238,22658.8364710512967317709302209044003,22657.2,1.6364710512967317709302209044003
