Eigenstate,Energy,Kinetic Energy,Potential Energy
1,0.500000000685251612042594633661150333,0.0,0.500000000685251612042594633661150333
2,1.84623094212417696693563667695005828,1.2,0.64623094212417696693563667695005828
3,3.93633762284467731947853086823891939,3.2,0.73633762284467731947853086823891939
4,6.79966530518399852332886203057703120,6.0,0.79966530518399852332886203057703120
5,10.4480466226984952009094715586233530,9.6,0.8480466226984952009094715586233530
6,14.8870660702426081452913566547019860,14.0,0.8870660702426081452913566547019860
7,20.1197209293027260432497592103530378,19.2,0.9197209293027260432497592103530378
8,26.1477839862827800554120066876905766,25.2,0.9477839862827800554120066876905766
9,32.9723837402064042291508251889530795,32.0,0.9723837402064042291508251889530795
10,40.5942804452348608411922307269838231,39.6,0.9942804452348608411922307269838231
11,49.0140096715195533331188249666938420,48.0,1.0140096715195533331188249666938420
12,58.2319625143743427642263992864433829,57.2,1.0319625143743427642263992864433829
13,68.2484331038737852832236042069676621,67.2,1.0484331038737852832236042069676621
14,79.0636481377096659085282265769130457,78.0,1.0636481377096659085282265769130457
15,90.6777859970054086643984302686499369,89.6,1.0777859970054086643984302686499369
16,103.090989551186663895227221897256919,102.0,1.090989551186663895227221897256919
17,116.303374991442905932459453550915935,115.2,1.103374991442905932459453550915935
18,130.315038081733695945635953129961438,129.2,1.115038081733695945635953129961438
19,145.126058681892704011223213595117214,144.0,1.126058681892704011223213595117214
20,160.736504085261677684028043133667954,159.6,1.136504085261677684028043133667954
21,177.146431524772163088823934338188748,176.0,1.146431524772163088823934338188748
22,194.355890084104263374899108456430895,193.2,1.155890084104263374899108456430895
23,212.364922175623177819261450507531635,211.2,1.164922175623177819261450507531635
24,231.173564697779635711842437782175653,230.0,1.173564697779635711842437782175653
25,250.781849951905832538344135061859187,249.6,1.181849951905832538344135061859187
26,271.189806376023026135378689178460127,270.0,1.189806376023026135378689178460127
27,292.397459137804119931926339219195339,291.2,1.197459137804119931926339219195339
28,314.404830617932709473549423321110785,313.2,1.204830617932709473549423321110785
29,337.211940807305040529279117438898690,336.0,1.211940807305040529279117438898690
30,360.818807635871839459117362465511469,359.6,1.218807635871839459117362465511469
31,385.225447246771037982511229293768208,384.0,1.225447246771037982511229293768208
32,410.431874226324514876381372774632831,409.2,1.231874226324514876381372774632831
33,436.438101798162329307420569247209762,435.2,1.238101798162329307420569247209762
34,463.244141987987374222667229978603574,462.0,1.244141987987374222667229978603574
35,490.850005764154183145822395849954593,489.6,1.250005764154183145822395849954593
36,519.255703158202144840084245806029031,518.0,1.255703158202144840084245806029031
37,548.461243368679295743588646319980725,547.2,1.261243368679295743588646319980725
38,578.466634850962441335687052810650314,577.2,1.266634850962441335687052810650314
39,609.271885395281508939149411648017236,608.0,1.271885395281508939149411648017236
40,640.877002194760213677026045471006189,639.6,1.277002194760213677026045471006189
41,673.281991904968369026993612294786155,672.0,1.281991904968369026993612294786155
42,706.486860696226180812795250757671839,705.2,1.286860696226180812795250757671839
43,740.491614299694377126125474546993298,739.2,1.291614299694377126125474546993298
44,775.296258048115932655748103548452074,774.0,1.296258048115932655748103548452074
45,810.900796911937576330806211688806737,809.6,1.300796911937576330806211688806737
46,847.305235531426134902033822852320363,846.0,1.305235531426134902033822852320363
47,884.509578245301288471729617611804697,883.2,1.309578245301288471729617611804697
48,922.513829116328727618702868397327439,921.2,1.313829116328727618702868397327439
49,961.317991954253039220190199056306778,960.0,1.317991954253039220190199056306778
50,1000.92207033639552535884750443331419,999.6,1.32207033639552535884750443331419
51,1041.32606762619669274026853891072625,1040.0,1.32606762619669274026853891072625
52,1082.52998698994480483204896044910297,1081.2,1.32998698994480483204896044910297
53,1124.53383141189943881677553948878683,1123.2,1.33383141189943881677553948878683
54,1167.33760370799142831980776298732369,1166.0,1.33760370799142831980776298732369
55,1210.94130653825709738017519920419890,1209.6,1.34130653825709738017519920419890
56,1255.34494241814461656278250356636335,1254.0,1.34494241814461656278250356636335
57,1300.54851372881311314500874744453161,1299.2,1.34851372881311314500874744453161
58,1346.55202272653037012453135940726875,1345.2,1.35202272653037012453135940726875
59,1393.35547155126219484797106986772133,1392.0,1.35547155126219484797106986772133
60,1440.95886223453551355231673050914904,1439.6,1.35886223453551355231673050914904
61,1489.36219670664768388365479191093869,1488.0,1.36219670664768388365479191093869
62,1538.56547680328621645269829822419426,1537.2,1.36547680328621645269829822419426
63,1588.56870427161585459768003927167235,1587.2,1.36870427161585459768003927167235
64,1639.37188077588364904535490883496963,1638.0,1.37188077588364904535490883496963
65,1690.97500790258712932099519629893503,1689.6,1.37500790258712932099519629893503
66,1743.37808716524582641932096150070514,1742.0,1.37808716524582641932096150070514
67,1796.58112000881213895711000407438446,1795.2,1.38112000881213895711000407438446
68,1850.58410781375377886755160906044423,1849.2,1.38410781375377886755160906044423
69,1905.38705189983672002582437909538194,1904.0,1.38705189983672002582437909538194
70,1960.98995352963464492724963106039654,1959.6,1.38995352963464492724963106039654
71,2017.39281391178828583580320650566435,2016.0,1.39281391178828583580320650566435
72,2074.59563420403575857853406493372497,2073.2,1.39563420403575857853406493372497
73,2132.59841551603293415520737486467311,2131.2,1.39841551603293415520737486467311
74,2191.40115891198107448410000362558013,2190.0,1.40115891198107448410000362558013
75,2251.00386541307732750395304496116742,2249.6,1.40386541307732750395304496116742
76,2311.40653599980222729550906561703289,2310.0,1.40653599980222729550906561703289
77,2372.60917161405704248783603478015545,2371.2,1.40917161405704248783603478015545
78,2434.61177316116265041665239531959755,2433.2,1.41177316116265041665239531959755
79,2497.41434151173056768207820003689536,2496.0,1.41434151173056768207820003689536
80,2561.01687750341582962779768858717875,2559.6,1.41687750341582962779768858717875
81,2625.41938194256056192236421730730594,2624.0,1.41938194256056192236421730730594
82,2690.62185560573632597304017470336111,2689.2,1.42185560573632597304017470336111
83,2756.62429924119263116900872165056722,2755.2,1.42429924119263116900872165056722
84,2823.42671357021838265931397218671657,2822.0,1.42671357021838265931397218671657
85,2891.02909928842247409495845722018671,2889.6,1.42909928842247409495845722018671
86,2959.43145706693921889944679337731946,2958.0,1.43145706693921889944679337731946
87,3028.63378755356385616153266359361969,3027.2,1.43378755356385616153266359361969
88,3098.63609137382294386645208498191902,3097.2,1.43609137382294386645208498191902
89,3169.43836913198406868004788757891995,3168.0,1.43836913198406868004788757891995
90,3241.04062141200895828374746088905025,3239.6,1.44062141200895828374746088905025
91,3313.44284877845376080660132767828594,3312.0,1.44284877845376080660132767828594
92,3386.64505177731996760335730560368136,3385.2,1.44505177731996760335730560368136
93,3460.64723093685919337280662534591567,3459.2,1.44723093685919337280662534591567
94,3535.44938676833478468222682620072909,3534.0,1.44938676833478468222682620072909
95,3611.05151976674300681005530576522441,3609.6,1.45151976674300681005530576522441
96,3687.45363041149635699715741594196605,3686.0,1.45363041149635699715741594196605
97,3764.65571916707136785531006974496332,3763.2,1.45571916707136785531006974496332
98,3842.65778648362309180758962223953132,3841.2,1.45778648362309180758962223953132
99,3921.45983279756830396355771546883590,3920.0,1.45983279756830396355771546883590
100,4001.06185853213931449211629768828511,3999.6,1.46185853213931449211629768828511
101,4081.46386409791015225115739273937055,4080.0,1.46386409791015225115739273937055
102,4162.66584989329675585884344291992774,4161.2,1.46584989329675585884344291992774
103,4244.66781630503270047817096743023790,4243.2,1.46781630503270047817096743023790
104,4327.46976370862188132222669101062257,4326.0,1.46976370862188132222669101062257
105,4411.07169246876948181424404502909127,4409.6,1.47169246876948181424404502909127
106,4495.47360293979246357282098901530937,4494.0,1.47360293979246357282098901530937
107,4580.67549546601073731120363483187020,4579.2,1.47549546601073731120363483187020
108,4666.67737038212009450050087991544158,4665.2,1.47737038212009450050087991544158
109,4753.47922801354791105371041851167914,4752.0,1.47922801354791105371041851167914
110,4841.08106867679257186785366750261140,4839.6,1.48106867679257186785366750261140
111,4929.48289267974749920090843819149023,4928.0,1.48289267974749920090843819149023
112,5018.68470032201061842718239119710743,5017.2,1.48470032201061842718239119710743
113,5108.68649189518003917959397548498393,5107.2,1.48649189518003917959397548498393
114,5199.48826768313668113021871694558791,5198.0,1.48826768313668113021871694558791
115,5291.09002796231453321260755865121026,5289.6,1.49002796231453321260755865121026
116,5383.49177300195918675842803990663226,5382.0,1.49177300195918675842803990663226
117,5476.69350306437525130868259946540761,5475.2,1.49350306437525130868259946540761
118,5570.69521840516322082938587521015694,5569.2,1.49521840516322082938587521015694
119,5665.49691927344632434862978485684510,5664.0,1.49691927344632434862978485684510
120,5761.09860591208786919052580353262553,5759.6,1.49860591208786919052580353262553
121,5857.50027855789954671507923302974365,5856.0,1.50027855789954671507923302974365
122,5954.70193744184115156077764348634361,5953.2,1.50193744184115156077764348634361
123,6052.70358278921213319461535905239872,6051.2,1.50358278921213319461535905239872
124,6151.50521481983538089538679925102811,6150.0,1.50521481983538089538679925102811
125,6251.10683374823361373076102292404474,6249.6,1.50683374823361373076102292404474
126,6351.50843978379873189233869382564993,6350.0,1.50843978379873189233869382564993
127,6452.71003313095446517602346341368794,6451.2,1.51003313095446517602346341368794
128,6554.71161398931263180890822246492318,6553.2,1.51161398931263180890822246492318
129,6657.51318255382330875173703090820288,6656.0,1.51318255382330875173703090820288
130,6761.11473901491919622527400984422932,6759.6,1.51473901491919622527400984422932
131,6865.51628355865444380597900792633685,6864.0,1.51628355865444380597900792633685
132,6970.71781636683819046041645035708764,6969.2,1.51781636683819046041645035708764
133,7076.71933761716305910751030939085179,7075.2,1.51933761716305910751030939085179
134,7183.52084748332883502313399120458733,7182.0,1.52084748332883502313399120458733
135,7291.12234613516153929455480127049574,7289.6,1.52234613516153929455480127049574
136,7399.52383373872810484614119336189061,7398.0,1.52383373872810484614119336189061
137,7508.72531045644684925130823323334501,7507.2,1.52531045644684925130823323334501
138,7618.72677644719392493520824264822141,7617.2,1.52677644719392493520824264822141
139,7729.52823186640592526838622048045091,7728.0,1.52823186640592526838622048045091
140,7841.12967686617880960732324370848832,7839.6,1.52967686617880960732324370848832
141,7953.53111159536330578202499966264780,7952.0,1.53111159536330578202499966264780
142,8066.73253619965694045937121515078089,8065.2,1.53253619965694045937121515078089
143,8180.73395082169283916263995292304690,8179.2,1.53395082169283916263995292304690
144,8295.53535560112543054994062812662018,8294.0,1.53535560112543054994062812662018
145,8411.13675067471318536856676965539611,8409.6,1.53675067471318536856676965539611
146,8527.53813617639851263565562539229774,8526.0,1.53813617639851263565562539229774
147,8644.73951223738492739476946305953186,8643.2,1.53951223738492739476946305953186
148,8762.74087898621160544228093774522006,8761.2,1.54087898621160544228093774522006
149,8881.54223654882542689177297905995213,8880.0,1.54223654882542689177297905995213
150,9001.14358504865061228705909174370638,8999.6,1.54358504865061228705909174370638
151,9121.54492460665604725042816181850959,9120.0,1.54492460665604725042816181850959
152,9242.74625534142038604030978227688045,9241.2,1.54625534142038604030978227688045
153,9364.74757736919502304593046139380392,9363.2,1.54757736919502304593046139380392
154,9487.54889080396501619899381570897179,9486.0,1.54889080396501619899381570897179
155,9611.15019575750804062224737324955685,9609.6,1.55019575750804062224737324955685
156,9735.55149233945145046837259964185581,9734.0,1.55149233945145046837259964185581
157,9860.75278065732752008618508216375938,9859.2,1.55278065732752008618508216375938
158,9986.75406081662693642614352586383909,9985.2,1.55406081662693642614352586383909
159,10113.5553329208506064555001135067606,10112.0,1.5553329208506064555001135067606
160,10241.1565970715598460219417989470724,10239.6,1.5565970715598460219417989470724
161,10369.5578533684250087670973765699264,10368.0,1.5578533684250087670973765699264
162,10498.7591019092726146604118735562935,10497.2,1.5591019092726146604118735562935
163,10628.7603427901310331203861692223460,10627.2,1.5603427901310331203861692223460
164,10759.5615761052747754780077450618556,10758.0,1.5615761052747754780077450618556
165,10891.1628019472674455055215541455062,10889.6,1.5628019472674455055215541455062
166,11023.5640204070033986539822060247653,11022.0,1.5640204070033986539822060247653
167,11156.7652315737481573649197141092419,11155.2,1.5652315737481573649197141092419
168,11290.7664355351776252834277478958887,11289.2,1.5664355351776252834277478958887
169,11425.5676323774161455787837112483942,11424.0,1.5676323774161455787837112483942
170,11561.1688221850734432656376430332360,11559.6,1.5688221850734432656376430332360
171,11697.5700050412804918763033094067257,11696.0,1.5700050412804918763033094067257
172,11834.7711810277243425133552662301318,11833.2,1.5711810277243425133552662301318
173,11972.7723502246819508541299981751187,11971.2,1.5723502246819508541299981751187
174,12111.5735127110530381270238112523745,12110.0,1.5735127110530381270238112523745
175,12251.1746685643920202282762399420051,12249.6,1.5746685643920202282762399420051
176,12391.5758178609390348771288878356762,12390.0,1.5758178609390348771288878356762
177,12532.7769606756501002695476724404885,12531.2,1.5769606756501002695476724404885
178,12674.7780970822264345930984443236629,12673.2,1.5780970822264345930984443236629
179,12817.5792271531429630650480910639273,12816.0,1.5792271531429630650480910639273
180,12961.1803509596760436665778474934366,12959.6,1.5803509596760436665778474934366
181,13105.5814685719304344580303687889539,13104.0,1.5814685719304344580303687889539
182,13250.7825800588655304172149280835996,13249.2,1.5825800588655304172149280835996
183,13396.7836854883208931075235498901395,13395.2,1.5836854883208931075235498901395
184,13543.5847849270410976862323219412477,13542.0,1.5847849270410976862323219412477
185,13691.1858784406999193418826935006301,13689.6,1.5858784406999193418826935006301
186,13839.5869660939238804226823027680234,13838.0,1.5869660939238804226823027680234
187,13988.7880479503151823629128559202537,13987.2,1.5880479503151823629128559202537
188,14138.7891240724740381639849666753215,14137.2,1.5891240724740381639849666753215
189,14289.5901945220204294961394151935608,14288.0,1.5901945220204294961394151935608
190,14441.1912593596153044220437062102359,14439.6,1.5912593596153044220437062102359
191,14593.5923186449812353311574140757901,14592.0,1.5923186449812353311574140757901
192,14746.7933724369225538502898359932064,14745.2,1.5933724369225538502898359932064
193,14900.7944207933449814352880846195429,14899.2,1.5944207933449814352880846195429
194,15055.5954637712747694044823770097584,15054.0,1.5954637712747694044823770097584
195,15211.1965014268773667858624711264668,15209.6,1.5965014268773667858624711264668
196,15367.5975338154756301303531970679181,15366.0,1.5975338154756301303531970679181
197,15524.7985609915675901489140273426368,15523.2,1.5985609915675901489140273426368
198,15682.7995830088437898409928156917130,15681.2,1.5995830088437898409928156917130
199,15841.6005999202042074781620872480693,15840.0,1.6005999202042074781620872480693
200,16001.2016117777747789388115029571361,15999.6,1.6016117777747789388115029571361
201,16161.6026186329235309532147292793096,16160.0,1.6026186329235309532147292793096
202,16322.8036205362763392466524194713506,16321.2,1.6036205362763392466524194713506
203,16484.8046175377323228771271577101208,16483.2,1.6046175377323228771271577101208
204,16647.6056096864788870564014388472991,16646.0,1.6056096864788870564014388472991
205,16811.2065970310064251272869160482249,16809.6,1.6065970310064251272869160482249
206,16975.6075796191226934592708031276888,16974.0,1.6075796191226934592708031276888
207,17140.8085574979668659142233826314716,17139.2,1.6085574979668659142233826314716
208,17306.8095307140232829246942102502676,17305.2,1.6095307140232829246942102502676
209,17473.6104993131349017909966070456931,17472.0,1.6104993131349017909966070456931
210,17641.2114633405164606008047251368352,17639.6,1.6114633405164606008047251368352
211,17809.6124228407673640857555777622607,17808.0,1.6124228407673640857555777622607
212,17978.8133778578843026478869496339489,17977.2,1.6133778578843026478869496339489
213,18148.8143284352736099927723956925108,18147.2,1.6143284352736099927723956925108
214,18319.6152746157633754603653223652216,18318.0,1.6152746157633754603653223652216
215,18491.2162164416153114349807288574159,18489.6,1.6162164416153114349807288574159
216,18663.6171539545363910275284184574556,18662.0,1.6171539545363910275284184574556
217,18836.8180871956902612950846293239359,18835.2,1.6180871956902612950846293239359
218,19010.8190162057084423478690380440798,19009.2,1.6190162057084423478690380440798
219,19185.6199410247013170701779266166474,19184.0,1.6199410247013170701779266166474
220,19361.2208616922689254978311867511171,19359.6,1.6208616922689254978311867511171
221,19537.6217782475115633747483398065836,19536.0,1.6217782475115633747483398065836
222,19714.8226907290402037977166771263295,19713.2,1.6226907290402037977166771263295
223,19892.8235991749867373191484612465907,19891.2,1.6235991749867373191484612465907
224,20071.6245036230140474796074046871777,20070.0,1.6245036230140474796074046871777
225,20251.2254041103259263494418159351804,20249.6,1.6254041103259263494418159351804
226,20431.6263006736768357577535884604544,20430.0,1.6263006736768357577535884604544
227,20612.8271933493815251171651171251159,20611.2,1.6271933493815251171651171251159
228,20794.8280821733245100538557523560080,20793.2,1.6280821733245100538557523560080
229,20977.6289671809694215369258825586538,20976.0,1.6289671809694215369258825586538
230,21161.2298484073682328875289485948923,21159.6,1.6298484073682328875289485948923
231,21345.6307258871703693139295587118926,21344.0,1.6307258871703693139295587118926
232,21530.8315996546317134122279120060452,21529.2,1.6315996546317134122279120060452
233,21716.8324697436235048349653920065631,21715.2,1.6324697436235048349653920065631
234,21903.6333361876411536893712565672654,21902.0,1.6333361876411536893712565672654
235,22091.2341990198129644650129903800233,22089.6,1.6341990198129644650129903800233
236,22279.6350582729087840463705333734833,22278.0,1.6350582729087840463705333734833
237,22468.8359139793485815316957467312715,22467.2,1.6359139793485815316957467312715
238,22658.8367661712109659524617405507476,22657.2,1.6367661712109659524617405507476
