Eigenstate,Energy,Kinetic Energy,Potential Energy
1,0.500000000024102290095630095756162770,0.0,0.500000000024102290095630095756162770
2,1.84623093780844172971514014920584030,1.2,0.64623093780844172971514014920584030
3,3.93633761016711080649553233604620569,3.2,0.73633761016711080649553233604620569
4,6.79966527877681226340880527992072710,6.0,0.79966527877681226340880527992072710
5,10.4480465769530571699425651917574792,9.6,0.8480465769530571699425651917574792
6,14.8870659994503606201733815278096292,14.0,0.8870659994503606201733815278096292
7,20.1197208277068218995897241933585318,19.2,0.9197208277068218995897241933585318
8,26.1477838480993532410133114331878494,25.2,0.9477838480993532410133114331878494
9,32.9723835596342176705823507774241488,32.0,0.9723835596342176705823507774241488
10,40.5942802164599790036674937522943008,39.6,0.9942802164599790036674937522943008
11,49.0140093887176719908510804168370653,48.0,1.0140093887176719908510804168370653
12,58.2319621717119242831107013625886068,57.2,1.0319621717119242831107013625886068
13,68.2484326955085429676407243966254425,67.2,1.0484326955085429676407243966254425
14,79.0636476577906730673134843968621110,78.0,1.0636476577906730673134843968621110
15,90.6777854396729805979940328162256883,89.6,1.0777854396729805979940328162256883
16,103.090988910572096552526410715257788,102.0,1.090988910572096552526410715257788
17,116.303374261668120632112536999608262,115.2,1.103374261668120632112536999608262
18,130.315037256910820391526132046554223,129.2,1.115037256910820391526132046554223
19,145.126057756123608705180077628232604,144.0,1.126057756123608705180077628232604
20,160.736503052637480148205555688856937,159.6,1.136503052637480148205555688856937
21,177.146430379372708159748877899416949,176.0,1.146430379372708159748877899416949
22,194.355888819997585184031289528852750,193.2,1.155888819997585184031289528852750
23,212.364920786864947343895401711030501,211.2,1.164920786864947343895401711030501
24,231.173563178412596622478354426269241,230.0,1.173563178412596622478354426269241
25,250.781848295959227278390020919119914,249.6,1.181848295959227278390020919119914
26,271.189804577512013619434001667702081,270.0,1.189804577512013619434001667702081
27,292.397457190729185860042088831271160,291.2,1.197457190729185860042088831271160
28,314.404828516279069979346296131911152,313.2,1.204828516279069979346296131911152
29,337.211938545042039675901457425997782,336.0,1.211938545042039675901457425997782
30,360.818805206952340946182890295028698,359.6,1.218805206952340946182890295028698
31,385.225444645130811314193269163881845,384.0,1.225444645130811314193269163881845
32,410.431871445881616154997729615745501,409.2,1.231871445881616154997729615745501
33,436.438098832816476751035794671516689,435.2,1.238098832816476751035794671516689
34,463.244138831619318454030433423112466,462.0,1.244138831619318454030433423112466
35,490.850002410625072259722454564627737,489.6,1.250002410625072259722454564627737
36,519.255699601352884224201423895777012,518.0,1.255699601352884224201423895777012
37,548.461239602329902602167043285995830,547.2,1.261239602329902602167043285995830
38,578.466630868911393844380889478655877,577.2,1.266630868911393844380889478655877
39,609.271881191305089942106478403293644,608.0,1.271881191305089942106478403293644
40,640.876997762611848822836883921658596,639.6,1.276997762611848822836883921658596
41,673.281987238377959227926679271813572,672.0,1.281987238377959227926679271813572
42,706.486855788899428901271610955153265,705.2,1.286855788899428901271610955153265
43,740.491609145312108573289863504853119,739.2,1.291609145312108573289863504853119
44,775.296252640333410208977178660726008,774.0,1.296252640333410208977178660726008
45,810.900791244383808419830165907764692,809.6,1.300791244383808419830165907764692
46,847.305229597703177656854914870514792,846.0,1.305229597703177656854914870514792
47,884.509572038983541189560385002285288,883.2,1.309572038983541189560385002285288
48,922.513822630962221511599720768134170,921.2,1.313822630962221511599720768134170
49,961.317985183354719269836115944599231,960.0,1.317985183354719269836115944599231
50,1000.92206327345252509996507767155084,999.6,1.32206327345252509996507767155084
51,1041.32606026466560178935960354093926,1040.0,1.32606026466560178935960354093926
52,1082.52997932325092897351144372737563,1081.2,1.32997932325092897351144372737563
53,1124.53382343343605245390072870074916,1123.2,1.33382343343605245390072870074916
54,1167.33759541111901909367447825133760,1166.0,1.33759541111901909367447825133760
55,1210.94129791630260275500633884735802,1209.6,1.34129791630260275500633884735802
56,1255.34493346440065217188791935399188,1254.0,1.34493346440065217188791935399188
57,1300.54850443653719268698576346788001,1299.2,1.34850443653719268698576346788001
58,1346.55201308894411659490941446322837,1345.2,1.35201308894411659490941446322837
59,1393.35546156155054288696282683105921,1392.0,1.35546156155054288696282683105921
60,1440.95885188584590268475088809523403,1439.6,1.35885188584590268475088809523403
61,1489.36218599208924242250968410949580,1488.0,1.36218599208924242250968410949580
62,1538.56546571592893583291698789724513,1537.2,1.36546571592893583291698789724513
63,1588.56869280448975390211997314123716,1587.2,1.36869280448975390211997314123716
64,1639.37186892197792947979604339634104,1638.0,1.37186892197792947979604339634104
65,1690.97499565484931839009068051635205,1689.6,1.37499565484931839009068051635205
66,1743.37807451658091155022283236909164,1742.0,1.37807451658091155022283236909164
67,1796.58110695208169031222319104054110,1795.2,1.38110695208169031222319104054110
68,1850.58409434177506108246268582652209,1849.2,1.38409434177506108246268582652209
69,1905.38703800538179260290219318517948,1904.0,1.38703800538179260290219318517948
70,1960.98993920542945100973084575541782,1959.6,1.38993920542945100973084575541782
71,2017.39279915051172908132953148841190,2016.0,1.39279915051172908132953148841190
72,2074.59561899831876784511663070055636,2073.2,1.39561899831876784511663070055636
73,2132.59839985845751570642981700140838,2131.2,1.39839985845751570642981700140838
74,2191.40114279507935141404517796003573,2190.0,1.40114279507935141404517796003573
75,2251.00384882933056607583209524339750,2249.6,1.40384882933056607583209524339750
76,2311.40651894163984988128720278350149,2310.0,1.40651894163984988128720278350149
77,2372.60915407385562678927279578946184,2371.2,1.40915407385562678927279578946184
78,2434.61175513124491464110493695593954,2433.2,1.41175513124491464110493695593954
79,2497.41432298436434133914439006322075,2496.0,1.41432298436434133914439006322075
80,2561.01685847081300960539908705236953,2559.6,1.41685847081300960539908705236953
81,2625.41936239687605349317033402795871,2624.0,1.41936239687605349317033402795871
82,2690.62183553906696837422146020315591,2689.2,1.42183553906696837422146020315591
83,2756.62427864557610739015799995114239,2755.2,1.42427864557610739015799995114239
84,2823.42669243763211306499239691976239,2822.0,1.42669243763211306499239691976239
85,2891.02907761078249349969256369182639,2889.6,1.42907761078249349969256369182639
86,2959.43143483609903670412430931335096,2958.0,1.43143483609903670412430931335096
87,3028.63376476131329915099782334071533,3027.2,1.43376476131329915099782334071533
88,3098.63606801188698125869268425037502,3097.2,1.43606801188698125869268425037502
89,3169.43834519202161900767438669165420,3168.0,1.43834519202161900767438669165420
90,3241.04059688561167767848610566053370,3239.6,1.44059688561167767848610566053370
91,3313.44282365714481224724873088046486,3312.0,1.44282365714481224724873088046486
92,3386.64502605255277067706307059047544,3385.2,1.44502605255277067706307059047544
93,3460.64720460001615408865250348292662,3459.2,1.44720460001615408865250348292662
94,3535.44935981072600486484624343254229,3534.0,1.44935981072600486484624343254229
95,3611.05149217960497258947438922793572,3609.6,1.45149217960497258947438922793572
96,3687.45360218599060589912947429303194,3686.0,1.45360218599060589912947429303194
97,3764.65569029428313398413967344572092,3763.2,1.45569029428313398413967344572092
98,3842.65775695455992860080404430541149,3841.2,1.45775695455992860080404430541149
99,3921.45980260315868398475113585281844,3920.0,1.45980260315868398475113585281844
100,4001.06182766323120571486616018677739,3999.6,1.46182766323120571486616018677739
101,4081.46383254526957027307747001875794,4080.0,1.46383254526957027307747001875794
102,4162.66581764760629147057202187441317,4161.2,1.46581764760629147057202187441317
103,4244.66778335689002199739656281289919,4243.2,1.46778335689002199739656281289919
104,4327.46973004853821108769096271564213,4326.0,1.46973004853821108769096271564213
105,4411.07165808716804621904310522851170,4409.6,1.47165808716804621904310522851170
106,4495.47356782700691600021112129831534,4494.0,1.47356782700691600021112129831534
107,4580.67545961228355331950329775240980,4579.2,1.47545961228355331950329775240980
108,4666.67733377760093858655159070163476,4665.2,1.47733377760093858655159070163476
109,4753.47919064829197430668057684609708,4752.0,1.47919064829197430668057684609708
110,4841.08103054075887980694852529401466,4839.6,1.48103054075887980694852529401466
111,4929.48285376279718907173882475326330,4928.0,1.48285376279718907173882475326330
112,5018.68466061390518521214649320635934,5017.2,1.48466061390518521214649320635934
113,5108.68645138557954955761041640638643,5107.2,1.48645138557954955761041640638643
114,5199.48822636159795460048564864941901,5198.0,1.48822636159795460048564864941901
115,5291.08998581828928957574750951283653,5289.6,1.48998581828928957574750951283653
116,5383.49173002479215912637100691371327,5382.0,1.49173002479215912637100691371327
117,5476.69345924330226379192233737238142,5475.2,1.49345924330226379192233737238142
118,5570.69517372930923002679368058252138,5569.2,1.49517372930923002679368058252138
119,5665.49687373182342374079614502560570,5664.0,1.49687373182342374079614502560570
120,5761.09855949359325551259081053147330,5759.6,1.49855949359325551259081053147330
121,5857.50023125131344735919355011021143,5856.0,1.50023125131344735919355011021143
122,5954.70188923582471203165651210807181,5953.2,1.50188923582471203165651210807181
123,6052.70353367230526361409719545898572,6051.2,1.50353367230526361409719545898572
124,6151.50516478045456052343733092681044,6150.0,1.50516478045456052343733092681044
125,6251.10678277466965244095074746221969,6249.6,1.50678277466965244095074746221969
126,6351.50838786421448750942177117093393,6350.0,1.50838786421448750942177117093393
127,6452.70998025338251555182935265767085,6451.2,1.50998025338251555182935265767085
128,6554.71156014165290048028223117639654,6553.2,1.51156014165290048028223117639654
129,6657.51312772384064299069231169593381,6656.0,1.51312772384064299069231169593381
130,6761.11468319024089625680618479574544,6759.6,1.51468319024089625680618479574544
131,6865.51622672676774193309666181134097,6864.0,1.51622672676774193309666181134097
132,6970.71775851508767879881536228124059,6969.2,1.51775851508767879881536228124059
133,7076.71927873274806459392345085312214,7075.2,1.51927873274806459392345085312214
134,7183.52078755330074032165879763028855,7182.0,1.52078755330074032165879763028855
135,7291.12228514642104818415531217158252,7289.6,1.52228514642104818415531217158252
136,7399.52377167802245062999981954325754,7398.0,1.52377167802245062999981954325754
137,7508.72524731036694468466836364329289,7507.2,1.52524731036694468466836364329289
138,7618.72671220217145212279308004232108,7617.2,1.52671220217145212279308004232108
139,7729.52816650871036393530530897931542,7728.0,1.52816650871036393530530897931542
140,7841.12961038191440209853222282356192,7839.6,1.52961038191440209853222282356192
141,7953.53104397046595709483437462018888,7952.0,1.53104397046595709483437462018888
142,8066.73246741989105156110453730666212,8065.2,1.53246741989105156110453730666212
143,8180.73388087264807179127870891236042,8179.2,1.53388087264807179127870891236042
144,8295.53528446821340163937348029749821,8294.0,1.53528446821340163937348029749821
145,8411.13667834316408918180457913965021,8409.6,1.53667834316408918180457913965021
146,8527.53806263125766862899066793810080,8526.0,1.53806263125766862899066793810080
147,8644.73943746350925177328041328622404,8643.2,1.53943746350925177328041328622404
148,8762.74080296826600430220748166018301,8761.2,1.54080296826600430220748166018301
149,8881.54215927127910877800386351781768,8880.0,1.54215927127910877800386351781768
150,9001.14350649577331792422477739368776,8999.6,1.54350649577331792422477739368776
151,9121.54484476251419413371454161171816,9120.0,1.54484476251419413371454161171816
152,9242.74617418987312549705823654632732,9241.2,1.54617418987312549705823654632732
153,9364.74749489389020730118726851343954,9363.2,1.54749489389020730118726851343954
154,9487.54880698833507289735496751249797,9486.0,1.54880698833507289735496751249797
155,9611.15011058476575217444857041403928,9609.6,1.55011058476575217444857041403928
156,9735.55140579258563550397392104577359,9734.0,1.55140579258563550397392104577359
157,9860.75269271909861420328908737732288,9859.2,1.55269271909861420328908737732288
158,9986.75397146956246933516074269373411,9985.2,1.55397146956246933516074269373411
159,10113.5552421472405725164490223763642,10112.0,1.5552421472405725164490223763642
160,10241.1565048534519650734310307417954,10239.6,1.5565048534519650734310307417954
161,10369.5577596876198740398542350633481,10368.0,1.5577596876198740398542350633481
162,10498.7590067473187244587915574728594,10497.2,1.5590067473187244587915574728594
163,10628.7602461283197028415677524852589,10627.2,1.5602461283197028415677524852589
164,10759.5614779246349264203225063772515,10758.0,1.5614779246349264203225063772515
165,10891.1627022285602667943981827705305,10889.6,1.5627022285602667943981827705305
166,11023.5639191307168784861112918732742,11022.0,1.5639191307168784861112918732742
167,11156.7651287200914796381975333925293,11155.2,1.5651287200914796381975333925293
168,11290.7663310840754275418142189793381,11289.2,1.5663310840754275418142189793381
169,11425.5675263085026340571609665807199,11424.0,1.5675263085026340571609665807199
170,11561.1687144776863606698047703183120,11559.6,1.5687144776863606698047703183120
171,11697.5698956744549333771404826843758,11696.0,1.5698956744549333771404826843758
172,11834.7710699801864152716149829959803,11833.2,1.5710699801864152716149829959803
173,11972.7722374748422722230159855337839,11971.2,1.5722374748422722230159855337839
174,12111.5733982370000675033099097900992,12110.0,1.5733982370000675033099097900992
175,12251.1745523438852193389319204524309,12249.6,1.5745523438852193389319204524309
176,12391.5756998714018510968513198619435,12390.0,1.5756998714018510968513198619435
177,12532.7768408941627673649199347509686,12531.2,1.5768408941627673649199347509686
178,12674.7779754855185850808699047136115,12673.2,1.5779754855185850808699047136115
179,12817.5791037175860461548768638180820,12816.0,1.5791037175860461548768638180820
180,12961.1802256612755425320576565074650,12959.6,1.5802256612755425320576565074650
181,13105.5813413863178763434587472070352,13104.0,1.5813413863178763434587472070352
182,13250.7824509612902828408909178027246,13249.2,1.5824509612902828408909178027246
183,13396.7835544536417391648541854237474,13395.2,1.5835544536417391648541854237474
184,13543.5846519297175831870590027549262,13542.0,1.5846519297175831870590027549262
185,13691.1857434547834642356369753966977,13689.6,1.5857434547834642356369753966977
186,13839.5868290930486466716303014642253,13838.0,1.5868290930486466716303014642253
187,13988.7879089076886901172270729380946,13987.2,1.5879089076886901172270729380946
188,14138.7889829608675217720264935677433,14137.2,1.5889829608675217720264935677433
189,14289.5900513137589245483911737062217,14288.0,1.5900513137589245483911737062217
190,14441.1911140265674566769306192807689,14439.6,1.5911140265674566769306192807689
191,14593.5921711585488220046336821923678,14592.0,1.5921711585488220046336821923678
192,14746.7932227680297073678183471326925,14745.2,1.5932227680297073678183471326925
193,14900.7942689124271053437114456098785,14899.2,1.5942689124271053437114456098785
194,15055.5953096482671357214051419996286,15054.0,1.5953096482671357214051419996286
195,15211.1963450312033836245123619742932,15209.6,1.5963450312033836245123619742932
196,15367.5973751160347679773840819556298,15366.0,1.5973751160347679773840819556298
197,15524.7983999567229546901720244559625,15523.2,1.5983999567229546901720244559625
198,15682.7994196064093287246780060767760,15681.2,1.5994196064093287246780060767760
199,15841.6004341174315378748057251944542,15840.0,1.6004341174315378748057251944542
200,16001.2014435413396222017761651973490,15999.6,1.6014435413396222017761651973490
201,16161.6024479289117401004856100293818,16160.0,1.6024479289117401004856100293818
202,16322.8034473301695043731178553339970,16321.2,1.6034473301695043731178553339970
203,16484.8044417943929389646928015558492,16483.2,1.6044417943929389646928015558492
204,16647.6054313701350679754132470512741,16646.0,1.6054313701350679754132470512741
205,16811.2064161052361469151219716943373,16809.6,1.6064161052361469151219716943373
206,16975.6073960468375492185664507938084,16974.0,1.6073960468375492185664507938084
207,17140.8083712413953138920967555938560,17139.2,1.6083712413953138920967555938560
208,17306.8093417346933685132015513759588,17305.2,1.6093417346933685132015513759588
209,17473.6103075718564333257100012779282,17472.0,1.6103075718564333257100012779282
210,17641.2112687973626179262588444821879,17639.6,1.6112687973626179262588444821879
211,17809.6122254550557179009812908724085,17808.0,1.6122254550557179009812908724085
212,17978.8131775881572216395400154829303,17977.2,1.6131775881572216395400154829303
213,18148.8141252392780317043924738619905,18147.2,1.6141252392780317043924738619905
214,18319.6150684504299157309722809510424,18318.0,1.6150684504299157309722809510424
215,18491.2160072630366860650115546810379,18489.6,1.6160072630366860650115546810379
216,18663.6169417179451220914550030035609,18662.0,1.6169417179451220914550030035609
217,18836.8178718554356392140013296594808,18835.2,1.6178718554356392140013296594808
218,19010.8187977152327134577151544740975,19009.2,1.6187977152327134577151544740975
219,19185.6197193365150649676385509902612,19184.0,1.6197193365150649676385509902612
220,19361.2206367579256129115229920681297,19359.6,1.6206367579256129115229920681297
221,19537.6215500175811996889644859384945,19536.0,1.6215500175811996889644859384945
222,19714.8224591530821016443002486672444,19713.2,1.6224591530821016443002486672444
223,19892.8233642015213198440908247571454,19891.2,1.6233642015213198440908247571454
224,20071.6242651994936659784784602780140,20070.0,1.6242651994936659784784602780140
225,20251.2251621831046459429568311475831,20249.6,1.6251621831046459429568311475831
226,20431.6260551879791446384853858204639,20430.0,1.6260551879791446384853858204639
227,20612.8269442492699206327871518437287,20611.2,1.6269442492699206327871518437287
228,20794.8278294016659124930216334041472,20793.2,1.6278294016659124930216334041472
229,20977.6287106794003639419684335261201,20976.0,1.6287106794003639419684335261201
230,21161.2295881162587725239501732413818,21159.6,1.6295881162587725239501732413818
231,21345.6304617455866635697494521231384,21344.0,1.6304617455866635697494521231384
232,21530.8313316002971998694246538846351,21529.2,1.6313316002971998694246538846351
233,21716.8321977128786220385130962433776,21715.2,1.6321977128786220385130962433776
234,21903.6330601154015357236711828748480,21902.0,1.6330601154015357236711828748480
235,22091.2339188395260388188352717956131,22089.6,1.6339188395260388188352717956131
236,22279.6347739165086983906550296566642,22278.0,1.6347739165086983906550296566642
237,22468.8356253772093809333095485601447,22467.2,1.6356253772093809333095485601447
238,22658.8364732520979376837001093845366,22657.2,1.6364732520979376837001093845366
