Eigenstate,Energy,Kinetic Energy,Potential Energy
1,0.500000001080156713913724952548316377,0.0,0.500000001080156713913724952548316377
2,1.84623094470203396990101927829441207,1.2,0.64623094470203396990101927829441207
3,3.93633763041748210656697010250123126,3.2,0.73633763041748210656697010250123126
4,6.79966532095887830670051676062492174,6.0,0.79966532095887830670051676062492174
5,10.4480466500273298884518332704624767,9.6,0.8480466500273298884518332704624767
6,14.8870661125381693729975460095253783,14.0,0.8870661125381693729975460095253783
7,20.1197209900081450202888455394446286,19.2,0.9197209900081450202888455394446286
8,26.1477840688591539484756958448682146,25.2,0.9477840688591539484756958448682146
9,32.9723838481273458532717016686903766,32.0,0.9723838481273458532717016686903766
10,40.5942805819840213994831656801622910,39.6,0.9942805819840213994831656801622910
11,49.0140098405895459186750286592159991,48.0,1.0140098405895459186750286592159991
12,58.2319627192663808929611418292574319,57.2,1.0319627192663808929611418292574319
13,68.2484333480977119507863219162834276,67.2,1.0484333480977119507863219162834276
14,79.0636484247842086844721399056677597,78.0,1.0636484247842086844721399056677597
15,90.6777863304585724685423013311112469,89.6,1.0777863304585724685423013311112469
16,103.090989934556211602588151191705535,102.0,1.090989934556211602588151191705535
17,116.303375428276897475538756212493389,115.2,1.103375428276897475538756212493389
18,130.315038575591068032808697554087158,129.2,1.115038575591068032808697554087158
19,145.126059236343879228484662650530195,144.0,1.126059236343879228484662650530195
20,160.736504703889195746195486124820034,159.6,1.136504703889195746195486124820034
21,177.146432211171329487883491017411137,176.0,1.146432211171329487883491017411137
22,194.355890841883812256939628525043885,193.2,1.155890841883812256939628525043885
23,212.364923008405946958054635793624452,211.2,1.164923008405946958054635793624452
24,231.173565609203252141410028581358038,230.0,1.173565609203252141410028581358038
25,250.781850945623407881780960893140985,249.6,1.181850945623407881780960893140985
26,271.189807455703860998514451117598553,270.0,1.189807455703860998514451117598553
27,292.397460307134416965839525731382084,291.2,1.197460307134416965839525731382084
28,314.404831880616294880213362555063846,313.2,1.204831880616294880213362555063846
29,337.211942167064093909876427632813428,336.0,1.211942167064093909876427632813428
30,360.818809096447631998265578667067821,359.6,1.218809096447631998265578667067821
31,385.225448811924679032938213143592360,384.0,1.225448811924679032938213143592360
32,410.431875899837707063772151432757303,409.2,1.231875899837707063772151432757303
33,436.438103583838132318631519804826345,435.2,1.238103583838132318631519804826345
34,463.244143889650977475389440006179657,462.0,1.244143889650977475389440006179657
35,490.850007785653687566310355119997949,489.6,1.250007785653687566310355119997949
36,519.255705303409353999372794611435911,518.0,1.255705303409353999372794611435911
37,548.461245641490516622892851875844237,547.2,1.261245641490516622892851875844237
38,578.466637255299295009298648381291017,577.2,1.266637255299295009298648381291017
39,609.271887935091751478772767120522163,608.0,1.271887935091751478772767120522163
40,640.877004874018567595636681609438995,639.6,1.277004874018567595636681609438995
41,673.281994727677365593335740486805962,672.0,1.281994727677365593335740486805962
42,706.486863666417013579856726145743446,705.2,1.286863666417013579856726145743446
43,740.491617421427767028569140303375401,739.2,1.291617421427767028569140303375401
44,775.296261325483005042518182909614739,774.0,1.296261325483005042518182909614739
45,810.900800349060750310109881722016314,809.6,1.300800349060750310109881722016314
46,847.305239132460025386738916721547286,846.0,1.305239132460025386738916721547286
47,884.509582014433621324010708246096220,883.2,1.309582014433621324010708246096220
48,922.513833057781268303588255325796327,921.2,1.313833057781268303588255325796327
49,961.317996072282535388574563095592537,960.0,1.317996072282535388574563095592537
50,1000.92207463529466379159326733442826,999.6,1.32207463529466379159326733442826
51,1041.32607211029507109627201027835758,1040.0,1.32607211029507109627201027835758
52,1082.52999166360991865462901989811324,1081.2,1.32999166360991865462901989811324
53,1124.53383627953768426449648809263647,1123.2,1.33383627953768426449648809263647
54,1167.33760877404912109989892343178660,1166.0,1.33760877404912109989892343178660
55,1210.94131180722150837509075976213466,1209.6,1.34131180722150837509075976213466
56,1255.34494789454502465318093143814239,1254.0,1.34494789454502465318093143814239
57,1300.54851941722187574554784527051449,1299.2,1.34851941722187574554784527051449
58,1346.55202863156401196239739627470853,1345.2,1.35202863156401196239739627470853
59,1393.35547767758251552800758867164207,1392.0,1.35547767758251552800758867164207
60,1440.95886858685071446701959689755519,1439.6,1.35886858685071446701959689755519
61,1489.36220328971351504117107390258964,1488.0,1.36220328971351504117107390258964
62,1538.56548362190714381133414253722591,1537.2,1.36548362190714381133414253722591
63,1588.56871133064624851130540079503077,1587.2,1.36871133064624851130540079503077
64,1639.37188808022899444051611625765259,1638.0,1.37188808022899444051611625765259
65,1690.97501545720525824353216803999903,1689.6,1.37501545720525824353216803999903
66,1743.37809497514817360585527798746238,1742.0,1.37809497514817360585527798746238
67,1796.58112807906502110495016300345834,1795.2,1.38112807906502110495016300345834
68,1850.58411614947969829537541525762939,1849.2,1.38411614947969829537541525762939
69,1905.38706050621569343696938602157432,1904.0,1.38706050621569343696938602157432
70,1960.98996241190555800759908088117038,1959.6,1.38996241190555800759908088117038
71,2017.39282307525027443912461748114860,2016.0,1.39282307525027443912461748114860
72,2074.59564365404961727373211788964132,2073.2,1.39564365404961727373211788964132
73,2132.59842525802255293233189354107262,2131.2,1.39842525802255293233189354107262
74,2191.40116895143490443912034672445371,2190.0,1.40116895143490443912034672445371
75,2251.00387575554987634631694882236607,2249.6,1.40387575554987634631694882236607
76,2311.40654665091558554736555853353586,2310.0,1.40654665091558554736555853353586
77,2372.60918257950244126956438165720985,2371.2,1.40918257950244126956438165720985
78,2434.61178444670205174003187465774593,2433.2,1.41178444670205174003187465774593
79,2497.41435312319828820008766169710248,2496.0,1.41435312319828820008766169710248
80,2561.01688944672019881870300506508896,2559.6,1.41688944672019881870300506508896
81,2625.41939422368561571545586340596454,2624.0,1.41939422368561571545586340596454
82,2690.62186823074353685418301740420828,2689.2,1.42186823074353685418301740420828
83,2756.62431221622267583609250517254024,2755.2,1.42431221622267583609250517254024
84,2823.42672690149294833079141647916887,2822.0,1.42672690149294833079141647916887
85,2891.02911298224610460898791449874015,2889.6,1.42911298224610460898791449874015
86,2959.43147112970120177674770574890348,2958.0,1.43147112970120177674770574890348
87,3028.63380199174015184198732788217838,3027.2,1.43380199174015184198732788217838
88,3098.63610619397815836778668045799247,3097.2,1.43610619397815836778668045799247
89,3169.43838434077347096665500921200850,3168.0,1.43838434077347096665500921200850
90,3241.04063701618054367494301739035040,3239.6,1.44063701618054367494301739035040
91,3313.44286478485036179638749072325834,3312.0,1.44286478485036179638749072325834
92,3386.64506819288141350816808756647391,3385.2,1.44506819288141350816808756647391
93,3460.64724776862452026979892183742127,3459.2,1.44724776862452026979892183742127
94,3535.44940402344449714852652308961699,3534.0,1.44940402344449714852652308961699
95,3611.05153745244139302304942723891686,3609.6,1.45153745244139302304942723891686
96,3687.45364853513385880750794065069371,3686.0,1.45364853513385880750794065069371
97,3764.65573773610700749794915834170212,3763.2,1.45573773610700749794915834170212
98,3842.65780550562695697160483189403647,3841.2,1.45780550562695697160483189403647
99,3921.45985228022409299970329233413817,3920.0,1.45985228022409299970329233413817
100,4001.06187848324694359675684845317301,3999.6,1.46187848324694359675684845317301
101,4081.46388452538842652789340311914310,4080.0,1.46388452538842652789340311914310
102,4162.66587080518610622395120655544833,4161.2,1.46587080518610622395120655544833
103,4244.66783770949798844345887769379736,4243.2,1.46783770949798844345887769379736
104,4327.46978561395527375904383752298882,4326.0,1.46978561395527375904383752298882
105,4411.07171488339339787531322993416240,4409.6,1.47171488339339787531322993416240
106,4495.47362587226259602443181362446175,4494.0,1.47362587226259602443181362446175
107,4580.67551892501915060720268356984660,4579.2,1.47551892501915060720268356984660
108,4666.67739437649840201162835568500140,4665.2,1.47739437649840201162835568500140
109,4753.47925255227053395125507831808267,4752.0,1.47925255227053395125507831808267
110,4841.08109376898008224952216981142311,4839.6,1.48109376898008224952216981142311
111,4929.48291833467005013935853465609039,4928.0,1.48291833467005013935853465609039
112,5018.68472654909146371804334168561586,5017.2,1.48472654909146371804334168561586
113,5108.68651870399914566614870433451472,5107.2,1.48651870399914566614870433451472
114,5199.48829508343443658643822054194783,5198.0,1.48829508343443658643822054194783
115,5291.09005596399555287511996771600213,5289.6,1.49005596399555287511996771600213
116,5383.49180161509622171144866224341983,5382.0,1.49180161509622171144866224341983
117,5476.69353229921320204415481421813833,5475.2,1.49353229921320204415481421813833
118,5570.69524827212325942782512859590262,5569.2,1.49524827212325942782512859590262
119,5665.49694978313012885463454979133785,5664.0,1.49694978313012885463454979133785
120,5761.09863707528197389088217064689107,5759.6,1.49863707528197389088217064689107
121,5857.50031038557981216711685956988780,5856.0,1.50031038557981216711685956988780
122,5954.70196994517735836438705730785864,5953.2,1.50196994517735836438705730785864
123,6052.70361597957270365341012583382058,6051.2,1.50361597957270365341012583382058
124,6151.50524870879223287121307076037541,6150.0,1.50524870879223287121307076037541
125,6251.10686834756715116141874419697124,6249.6,1.50686834756715116141874419697124
126,6351.50847510550297661534365730555871,6350.0,1.50847510550297661534365730555871
127,6452.71006918724233488186478899462880,6451.2,1.51006918724233488186478899462880
128,6554.71165079262136913591697598594469,6553.2,1.51165079262136913591697598594469
129,6657.51322011682006673178614382020996,6656.0,1.51322011682006673178614382020996
130,6761.11477735050678549549736001349573,6759.6,1.51477735050678549549736001349573
131,6865.51632267997724721697843348117302,6864.0,1.51632267997724721697843348117302
132,6970.71785628728825093649686464549872,6969.2,1.51785628728825093649686464549872
133,7076.71937835038634684982381745587583,7075.2,1.51937835038634684982381745587583
134,7183.52088904323170039279432129811926,7182.0,1.52088904323170039279432129811926
135,7291.12238853591735797030563226490418,7289.6,1.52238853591735797030563226490418
136,7399.52387699478412212066870681442734,7398.0,1.52387699478412212066870681442734
137,7508.72535458253123061237661382649682,7507.2,1.52535458253123061237661382649682
138,7618.72682145832302037311737590719282,7617.2,1.52682145832302037311737590719282
139,7729.52827777789175506054488350950994,7728.0,1.52827777789175506054488350950994
140,7841.12972369363677965468653841729598,7839.6,1.52972369363677965468653841729598
141,7953.53115935472016091159577333105032,7952.0,1.53115935472016091159577333105032
142,8066.73258490715896446269765192432780,8065.2,1.53258490715896446269765192432780
143,8180.73400049391431071317882139452504,8179.2,1.53400049391431071317882139452504
144,8295.53540625497734453319797444400689,8294.0,1.53540625497734453319797444400689
145,8411.13680232745224956908761833603376,8409.6,1.53680232745224956908761833603376
146,8527.53818884563643015524783558719116,8526.0,1.53818884563643015524783558719116
147,8644.73956594109797562794337060962824,8643.2,1.53956594109797562794337060962824
148,8762.74093374275052290893820759647243,8761.2,1.54093374275052290893820759647243
149,8881.54229237692561972496214573884017,8880.0,1.54229237692561972496214573884017
150,9001.14364196744269269642012100222542,8999.6,1.54364196744269269642012100222542
151,9121.54498263567671683127866269213596,9120.0,1.54498263567671683127866269213596
152,9242.74631450062367737559488220108156,9241.2,1.54631450062367737559488220108156
153,9364.74763767896391365515563741854014,9363.2,1.54763767896391365515563741854014
154,9487.54895228512342952642485034437175,9486.0,1.54895228512342952642485034437175
155,9611.15025843133324942798397105062517,9609.6,1.55025843133324942798397105062517
156,9735.55155622768689869225574164078620,9734.0,1.55155622768689869225574164078620
157,9860.75284578219607999797139997382584,9859.2,1.55284578219607999797139997382584
158,9986.75412720084461865821217375566742,9985.2,1.55412720084461865821217375566742
159,10113.5554005876407413387836361203983,10112.0,1.5554005876407413387836361203983
160,10241.1566660446677555144543432497374,10239.6,1.5566660446677555144543432497374
161,10369.5579236721331891798736661610132,10368.0,1.5579236721331891798736661610132
162,10498.7591735684164513508280707702136,10497.2,1.5591735684164513508280707702136
163,10628.7604158301150693407130521006063,10627.2,1.5604158301150693407130521006063
164,10759.5616505520895586408949274646895,10758.0,1.5616505520895586408949274646895
165,10891.1628778275069752614046276997861,10889.6,1.5628778275069752614046276997861
166,11023.5640977478832023718531918319016,11022.0,1.5640977478832023718531918319016
167,11156.7653104031240198714912261763929,11155.2,1.5653104031240198714912261763929
168,11290.7665158815650010506914004800845,11289.2,1.5665158815650010506914004800845
169,11425.5677142700102829608478999057669,11424.0,1.5677142700102829608478999057669
170,11561.1689056537702518774661213165954,11559.6,1.5689056537702518774661213165954
171,11697.5700901166981857847135847944638,11696.0,1.5700901166981857847135847944638
172,11834.7712677412258935800313629870090,11833.2,1.5712677412258935800313629870090
173,11972.7724386083983883374482153016542,11971.2,1.5724386083983883374482153016542
174,12111.5736027979076325206476511769261,12110.0,1.5736027979076325206476511769261
175,12251.1747603881253912966645898346366,12249.6,1.5747603881253912966645898346366
176,12391.5759114561352259487609064654405,12390.0,1.5759114561352259487609064654405
177,12532.7770560777636630758233622952357,12531.2,1.5770560777636630758233622952357
178,12674.7781943276105713031131149685640,12673.2,1.5781943276105713031131149685640
179,12817.5793262790787746730231886328654,12816.0,1.5793262790787746730231886328654
180,12961.1804520044029365496498681444626,12959.6,1.5804520044029365496498681444626
181,13105.5815715746777397480728891474208,13104.0,1.5815715746777397480728891474208
182,13250.7826850598853938329882713775902,13249.2,1.5826850598853938329882713775902
183,13396.7837925289224960852134963032726,13395.2,1.5837925289224960852134963032726
184,13543.5848940496262740407819070414385,13542.0,1.5848940496262740407819070414385
185,13691.1859896888002353030561056751178,13689.6,1.5859896888002353030561056751178
186,13839.5870795122392497341810001702888,13838.0,1.5870795122392497341810001702888
187,13988.7881635847540922271332766503267,13987.2,1.5881635847540922271332766503267
188,14138.7892419701954661775101904283970,14137.2,1.5892419701954661775101904283970
189,14289.5903147314775363717300670985781,14288.0,1.5903147314775363717300670985781
190,14441.1913819306009922532073005183528,14439.6,1.5913819306009922532073005183528
191,14593.5924436286756664487843398493279,14592.0,1.5924436286756664487843398493279
192,14746.7934998859427309725919959167171,14745.2,1.5934998859427309725919959167171
193,14900.7945507617964958498523379373109,14899.2,1.5945507617964958498523379373109
194,15055.5955963148058303745562793394073,15054.0,1.5955963148058303745562793394073
195,15211.1966366027352322743453783706011,15209.6,1.5966366027352322743453783706011
196,15367.5976716825655663197735755480110,15366.0,1.5976716825655663197735755480110
197,15524.7987016105144951421464480927733,15523.2,1.5987016105144951421464480927733
198,15682.7997264420566253975461506668456,15681.2,1.5997264420566253975461506668456
199,15841.6007462319433917199727875493250,15840.0,1.6007462319433917199727875493250
200,16001.2017610342227026973550917421939,15999.6,1.6017610342227026973550917421939
201,16161.6027709022583708805539225654200,16160.0,1.6027709022583708805539225654200
202,16322.8037758887493520360254741353919,16321.2,1.6037758887493520360254741353919
203,16484.8047760457488169985587894602370,16483.2,1.6047760457488169985587894602370
204,16647.6057714246830813804118524679001,16646.0,1.6057714246830813804118524679001
205,16811.2067620763704177626373234918440,16809.6,1.6067620763704177626373234918440
206,16975.6077480510397791538125590491896,16974.0,1.6077480510397791538125590491896
207,17140.8087293983494565544649198360376,17139.2,1.6087293983494565544649198360376
208,17306.8097061674057031221085015261005,17305.2,1.6097061674057031221085015261005
209,17473.6106784067813503736729106783804,17472.0,1.6106784067813503736729106783804
210,17641.2116461645344491615647766639051,17639.6,1.6116461645344491615647766639051
211,17809.6126094882269657083697005036570,17808.0,1.6126094882269657083697005036570
212,17978.8135684249435676915437171434320,17977.2,1.6135684249435676915437171434320
213,18148.8145230213105315269344449931161,18147.2,1.6145230213105315269344449931161
214,18319.6154733235148147901427649125102,18318.0,1.6154733235148147901427649125102
215,18491.2164193773233243430826812665316,18489.6,1.6164193773233243430826812665316
216,18663.6173612281024281059234044207782,18662.0,1.6173612281024281059234044207782
217,18836.8182989208377512950188731936884,18835.2,1.6182989208377512950188731936884
218,19010.8192325001543061149429372778659,19009.2,1.6192325001543061149429372778659
219,19185.6201620103370016560388732881532,19184.0,1.6201620103370016560388732881532
220,19361.2210874953515937896275740054872,19359.6,1.6210874953515937896275740054872
221,19537.6220089988661244339342935117975,19536.0,1.6220089988661244339342935117975
222,19714.8229265642729234697895846098946,19713.2,1.6229265642729234697895846098946
223,19892.8238402347112280322487223311366,19891.2,1.6238402347112280322487223311366
224,20071.6247500530905010140131361081050,20070.0,1.6247500530905010140131361081050
225,20251.2256560621145243143506266638323,20249.6,1.6256560621145243143506266638323
226,20431.6265583043063502085308878945814,20430.0,1.6265583043063502085308878945814
227,20612.8274568220342069161905600632423,20611.2,1.6274568220342069161905600632423
228,20794.8283516575384560414400650745934,20793.2,1.6283516575384560414400650745934
229,20977.6292428529597142570069178647075,20976.0,1.6292428529597142570069178647075
230,21161.2301304503682595432961304264980,21159.6,1.6301304503682595432961304264980
231,21345.6310144917948509800907346549597,21344.0,1.6310144917948509800907346549597
232,21530.8318950192631126225018114932636,21529.2,1.6318950192631126225018114932636
233,21716.8327720748236309873056961306796,21715.2,1.6327720748236309873056961306796
234,21903.6336457005899529557415704844609,21902.0,1.6336457005899529557415704844609
235,22091.2345159387766659724454834804240,22089.6,1.6345159387766659724454834804240
236,22279.6353828317397791864900338828705,22278.0,1.6353828317397791864900338828705
237,22468.8362464220196408324134703750495,22467.2,1.6362464220196408324134703750495
238,22658.8371067523866508289738568288823,22657.2,1.6371067523866508289738568288823
