Eigenstate,Energy,Kinetic Energy,Potential Energy
1,0.500000000040202432459132287911925437,0.0,0.500000000040202432459132287911925437
2,1.84623093791353514490186995414266051,1.2,0.64623093791353514490186995414266051
3,3.93633761047581458126679989432724850,3.2,0.73633761047581458126679989432724850
4,6.79966527941980796934318023749265680,6.0,0.79966527941980796934318023749265680
5,10.4480465780668595031394502224904767,9.6,0.8480465780668595031394502224904767
6,14.8870660011738748329966014580735718,14.0,0.8870660011738748329966014580735718
7,20.1197208301800753757851883046733270,19.2,0.9197208301800753757851883046733270
8,26.1477838514629665107325832607271855,25.2,0.9477838514629665107325832607271855
9,32.9723835640291584324405549958770352,32.0,0.9723835640291584324405549958770352
10,40.5942802220274372806016760679770918,39.6,0.9942802220274372806016760679770918
11,49.0140093955989923103190527018800888,48.0,1.0140093955989923103190527018800888
12,58.2319621800485669161075613818548027,57.2,1.0319621800485669161075613818548027
13,68.2484327054420609875251205812434840,67.2,1.0484327054420609875251205812434840
14,79.0636476694626985130425864831056042,78.0,1.0636476694626985130425864831056042
15,90.6777854532252161299641185049449194,89.6,1.0777854532252161299641185049449194
16,103.090988926146310558692971828086120,102.0,1.090988926146310558692971828086120
17,116.303374279406144578576479202524454,115.2,1.103374279406144578576479202524454
18,130.315037276954547678425940119716619,129.2,1.115037276954547678425940119716619
19,145.126057778614994559640808196797454,144.0,1.126057778614994559640808196797454
20,160.736503077718542248986791829791289,159.6,1.136503077718542248986791829791289
21,177.146430407185527789269068597549658,176.0,1.146430407185527789269068597549658
22,194.355888850684308767875855564015195,193.2,1.155888850684308767875855564015195
23,212.364920820567788280036773310656556,211.2,1.164920820567788280036773310656556
24,231.173563215273837330595953902984523,230.0,1.173563215273837330595953902984523
25,250.781848336121221418890067792753147,249.6,1.181848336121221418890067792753147
26,271.189804621117188445119959907786846,270.0,1.189804621117188445119959907786846
27,292.397457237920044672822006062574194,291.2,1.197457237920044672822006062574194
28,314.404828567198194671135064564860596,313.2,1.204828567198194671135064564860596
29,337.211938599832093337805447388244300,336.0,1.211938599832093337805447388244300
30,360.818805265756070533689867868801287,359.6,1.218805265756070533689867868801287
31,385.225444708091050358804263454870480,384.0,1.225444708091050358804263454870480
32,410.431871513141287514786028108693995,409.2,1.231871513141287514786028108693995
33,436.438098904518595394180809363609069,435.2,1.238098904518595394180809363609069
34,463.244138907906994270577648737951614,462.0,1.244138907906994270577648737951614
35,490.850002491641512897756042382635888,489.6,1.250002491641512897756042382635888
36,519.255699687241397947349269347442449,518.0,1.255699687241397947349269347442449
37,548.461239693233901165937218172043543,547.2,1.261239693233901165937218172043543
38,578.466630964974395389289719672761577,577.2,1.266630964974395389289719672761577
39,609.271881292670721901928011425828080,608.0,1.271881292670721901928011425828080
40,640.876997869423850846601901157231895,639.6,1.276997869423850846601901157231895
41,673.281987350780186114541634240882023,672.0,1.281987350780186114541634240882023
42,706.486855907035853545825810055911701,705.2,1.286855907035853545825810055911701
43,740.491609269326824924281810093242357,739.2,1.291609269326824924281810093242357
44,775.296252770370636235825305814950867,774.0,1.296252770370636235825305814950867
45,810.900791380587889090144696491450021,809.6,1.300791380587889090144696491450021
46,847.305229740218587923040637575484972,846.0,1.305229740218587923040637575484972
47,884.509572187954888984398103281235612,883.2,1.309572187954888984398103281235612
48,922.513822786534250752519819632872565,921.2,1.313822786534250752519819632872565
49,961.317985345672312871653211058653772,960.0,1.317985345672312871653211058653772
50,1000.92206344266070799588984942110915,999.6,1.32206344266070799588984942110915
51,1041.32606044090954396014416014122507,1040.0,1.32606044090954396014416014122507
52,1082.52997950667594848461893787155489,1081.2,1.32997950667594848461893787155489
53,1124.53382362418761850061952012491330,1123.2,1.33382362418761850061952012491330
54,1167.33759560934275505412263312765261,1166.0,1.33759560934275505412263312765261
55,1210.94129812214428925099431802574077,1209.6,1.34129812214428925099431802574077
56,1255.34493367800623013762647197202390,1254.0,1.34493367800623013762647197202390
57,1300.54850465805276644564270398276236,1299.2,1.34850465805276644564270398276236
58,1346.55201331851595694303363727195177,1345.2,1.35201331851595694303363727195177
59,1393.35546179932509018680663850583288,1392.0,1.35546179932509018680663850583288
60,1440.95885213196976996453306911877341,1439.6,1.35885213196976996453306911877341
61,1489.36218624670921848467162272784310,1488.0,1.36218624670921848467162272784310
62,1538.56546597919198837043309800855839,1537.2,1.36546597919198837043309800855839
63,1588.56869307654303262293142840363235,1587.2,1.36869307654303262293142840363235
64,1639.37186920296876923944385194083886,1638.0,1.37186920296876923944385194083886
65,1690.97499594492524233263043394541342,1689.6,1.37499594492524233263043394541342
66,1743.37807481588963425750908234531822,1742.0,1.37807481588963425750908234531822
67,1796.58110726077112096165646184469113,1795.2,1.38110726077112096165646184469113
68,1850.58409465999330661329675346248112,1849.2,1.38409465999330661329675346248112
69,1905.38703833327716089121345382552580,1904.0,1.38703833327716089121345382552580
70,1960.98993954315045405215530951245283,1959.6,1.38993954315045405215530951245283
71,2017.39279949820708618767657339205863,2016.0,1.39279949820708618767657339205863
72,2074.59561935613740883997170782175681,2073.2,1.39561935613740883997170782175681
73,2132.59840022654858413986138229243841,2131.2,1.39840022654858413986138229243841
74,2191.40114317359220778153369264514100,2190.0,1.40114317359220778153369264514100
75,2251.00384921841479104754159841467049,2249.6,1.40384921841479104754159841467049
76,2311.40651934144524754080220053098645,2310.0,1.40651934144524754080220053098645
77,2372.60915448453222788192547561702872,2371.2,1.40915448453222788192547561702872
78,2434.61175555294297983201976221486086,2433.2,1.41175555294297983201976221486086
79,2497.41432341723436448112908861162262,2496.0,1.41432341723436448112908861162262
80,2561.01685891500572101681284453058531,2559.6,1.41685891500572101681284453058531
81,2625.41936285254242324590181327979998,2624.0,1.41936285254242324590181327979998
82,2690.62183600635820959191090128810485,2689.2,1.42183600635820959191090128810485
83,2756.62427912464367955679924627939704,2755.2,1.42427912464367955679924627939704
84,2823.42669292862772534405223461490357,2822.0,1.42669292862772534405223461490357
85,2891.02907811385810806388624884331247,2889.6,1.42907811385810806388624884331247
86,2959.43143535140687207598753703798975,2958.0,1.43143535140687207598753703798975
87,3028.63376528900583355439682724122883,3027.2,1.43376528900583355439682724122883
88,3098.63606855211695598141547404575466,3097.2,1.43606855211695598141547404575466
89,3169.43834574494204177524742936038737,3168.0,1.43834574494204177524742936038737
90,3241.04059745137582603936203843102487,3239.6,1.44059745137582603936203843102487
91,3313.44282423590623696951198478350613,3312.0,1.44282423590623696951198478350613
92,3386.64502664446529915680145824321707,3385.2,1.44502664446529915680145824321707
93,3460.64720520523389377014407826720524,3459.2,1.44720520523389377014407826720524
94,3535.44936042940334667271193040236863,3534.0,1.44936042940334667271193040236863
95,3611.05149281189659437294805944563528,3609.6,1.45149281189659437294805944563528
96,3687.45360283205147588859830860332584,3686.0,1.45360283205147588859830860332584
97,3764.65569095426851426010885887428419,3763.2,1.45569095426851426010885887428419
98,3842.65775762862537857544093901062812,3841.2,1.45775762862537857544093901062812
99,3921.45980329146006389616527230686265,3920.0,1.45980329146006389616527230686265
100,4001.06182836592468013428252998193994,3999.6,1.46182836592468013428252998193994
101,4081.46383326251161162506174253835796,4080.0,1.46383326251161162506174253835796
102,4162.66581837955368356646745727032829,4161.2,1.46581837955368356646745727032829
103,4244.66778410369986358213350174280760,4243.2,1.46778410369986358213350174280760
104,4327.46973081036791940013103512475772,4326.0,1.46973081036791940013103512475772
105,4411.07165886417536056602131205095981,4409.6,1.47165886417536056602131205095981
106,4495.47356861934990134444019052533067,4494.0,1.47356861934990134444019052533067
107,4580.67546042012060388150584729729243,4579.2,1.47546042012060388150584729729243
108,4666.67733460109078146078676802161642,4665.2,1.47733460109078146078676802161642
109,4753.47919148759367309203308889067603,4752.0,1.47919148759367309203308889067603
110,4841.08103139603183825174906303423224,4839.6,1.48103139603183825174906303423224
111,4929.48285463420115473348614330894000,4928.0,1.48285463420115473348614330894000
112,5018.68466150160025313210255884883695,5017.2,1.48466150160025313210255884883695
113,5108.68645228972616595044124178413478,5107.2,1.48645228972616595044124178413478
114,5199.48822728235692055912166932921452,5198.0,1.48822728235692055912166932921452
115,5291.08998675582176479163855120047542,5289.6,1.48998675582176479163855120047542
116,5383.49173097925966562531213809586708,5382.0,1.49173097925966562531213809586708
117,5476.69346021486668968562817267744928,5475.2,1.49346021486668968562817267744928
118,5570.69517471813283328039983975446116,5569.2,1.49517471813283328039983975446116
119,5665.49687473806883595646797908280712,5664.0,1.49687473806883595646797908280712
120,5761.09856051742348572942075113865326,5759.6,1.49856051742348572942075113865326
121,5857.50023229289188586956964062376239,5856.0,1.50023229289188586956964062376239
122,5954.70189029531513421428607967497396,5953.2,1.50189029531513421428607967497396
123,6052.70353474987183378387088475940677,6051.2,1.50353474987183378387088475940677
124,6151.50516587626183579832007340423002,6150.0,1.50516587626183579832007340423002
125,6251.10678388888258662608755277104269,6249.6,1.50678388888258662608755277104269
126,6351.50838899699843499864763107718105,6350.0,1.50838899699843499864763107718105
127,6452.70998140490323524677387377088207,6451.2,1.50998140490323524677387377088207
128,6554.71156131207655972726103962399537,6553.2,1.51156131207655972726103962399537
129,6657.51312891333382153557863850567970,6656.0,1.51312891333382153557863850567970
130,6761.11468439897059021807747945291108,6759.6,1.51468439897059021807747945291108
131,6865.51622795490136779325242187360784,6864.0,1.51622795490136779325242187360784
132,6970.71775976279307741436408503810894,6969.2,1.51775976279307741436408503810894
133,7076.71928000019350522413766975092642,7075.2,1.51928000019350522413766975092642
134,7183.52078884065492467629897983444871,7182.0,1.52078884065492467629897983444871
135,7291.12228645385311449036480676075073,7289.6,1.52228645385311449036480676075073
136,7399.52377300570197771857441585013790,7398.0,1.52377300570197771857441585013790
137,7508.72524865846395609590573459140196,7507.2,1.52524865846395609590573459140196
138,7618.72671357085642023212882173246819,7617.2,1.52671357085642023212882173246819
139,7729.52816789815421409894391381985018,7728.0,1.52816789815421409894391381985018
140,7841.12961179228851681928287841966423,7839.6,1.52961179228851681928287841966423
141,7953.53104540194218020836307187625310,7952.0,1.53104540194218020836307187625310
142,8066.73246887264169244281559128393952,8065.2,1.53246887264169244281559128393952
143,8180.73388234684590958404046884395910,8179.2,1.53388234684590958404046884395910
144,8295.53528596403168950230465592212531,8294.0,1.53528596403168950230465592212531
145,8411.13667986077655856033922542126694,8409.6,1.53667986077655856033922542126694
146,8527.53806417083853354644162882362990,8526.0,1.53806417083853354644162882362990
147,8644.73943902523321314412273478346170,8643.2,1.53943902523321314412273478346170
148,8762.74080455230825426730501099562817,8761.2,1.54080455230825426730501099562817
149,8881.54216087781533506200406051584575,8880.0,1.54216087781533506200406051584575
150,9001.14350812497970821534839567810352,8999.6,1.54350812497970821534839567810352
151,9121.54484641456744048616888730839181,9120.0,1.54484641456744048616888730839181
152,9242.74617586495042875630425888360438,9241.2,1.54617586495042875630425888360438
153,9364.74749659216928155229278488541223,9363.2,1.54749659216928155229278488541223
154,9487.54880870999414993666799507545511,9486.0,1.54880870999414993666799507545511
155,9611.15011232998358600482677874670757,9609.6,1.55011232998358600482677874670757
156,9735.55140756154150685380811850596824,9734.0,1.55140756154150685380811850596824
157,9860.75269451197233506956041621046789,9859.2,1.55269451197233506956041621046789
158,9986.75397328653438755077335171709589,9985.2,1.55397328653438755077335171709589
159,10113.5552439884915763420819423281694,10112.0,1.5552439884915763420819423281694
160,10241.1565067191634878141548961812610,10239.6,1.5565067191634878141548961812610
161,10369.5577615779738986867606185887521,10368.0,1.5577615779738986867606185887521
162,10498.7590086624977883558846286336037,10497.2,1.5590086624977883558846286336037
163,10628.7602480685069023781700305074983,10627.2,1.5602480685069023781700305074983
164,10759.5614798900139217492486622372174,10758.0,1.5614798900139217492486622372174
165,10891.1627042193152865761529233533161,10889.6,1.5627042193152865761529233533161
166,11023.5639211470327246593694117759087,11022.0,1.5639211470327246593694117759087
167,11156.7651307621535322168264406053498,11155.2,1.5651307621535322168264406053498
168,11290.7663331520696494387014819491824,11289.2,1.5663331520696494387014819491824
169,11425.5675284026155759351115131264785,11424.0,1.5675284026155759351115131264785
170,11561.1687165981051658197747652452609,11559.6,1.5687165981051658197747652452609
171,11697.5698978213673426240770238337356,11696.0,1.5698978213673426240770238337356
172,11834.7710721537807719081731367600654,11833.2,1.5710721537807719081731367600654
173,11972.7722396753075269714270017623153,11971.2,1.5722396753075269714270017623153
174,12111.5734004645257835056766746950238,12110.0,1.5734004645257835056766746950238
175,12251.1745545986615771762303088559603,12249.6,1.5745545986615771762303088559603
176,12391.5757021536196538369182846447263,12390.0,1.5757021536196538369182846447263
177,12532.7768432040134456397117186645046,12531.2,1.5768432040134456397117186645046
178,12674.7779778231942021932761524199726,12673.2,1.5779778231942021932761524199726
179,12817.5791060832793032153789746604065,12816.0,1.5791060832793032153789746604065
180,12961.1802280551797836255221340038186,12959.6,1.5802280551797836255221340038186
181,13105.5813438086270937263589222528808,13104.0,1.5813438086270937263589222528808
182,13250.7824534121991221692529594758184,13249.2,1.5824534121991221692529594758184
183,13396.7835569333455047532258969598321,13395.2,1.5835569333455047532258969598321
184,13543.5846544384122432988025302998613,13542.0,1.5846544384122432988025302998613
185,13691.1857459926656564048494104069281,13689.6,1.5857459926656564048494104069281
186,13839.5868316603156830569984178557912,13838.0,1.5868316603156830569984178557912
187,13988.7879115045385628881256702758373,13987.2,1.5879115045385628881256702758373
188,14138.7889855874989085271721595435789,14137.2,1.5889855874989085271721595435789
189,14289.5900539703711937673663626322985,14288.0,1.5900539703711937673663626322985
190,14441.1911167133606732048956411931937,14439.6,1.5911167133606732048956411931937
191,14593.5921738757237525705469335455432,14592.0,1.5921738757237525705469335455432
192,14746.7932255157878261364882968066621,14745.2,1.5932255157878261364882968066621
193,14900.7942716909705995020065307790077,14899.2,1.5942716909705995020065307790077
194,15055.5953124577989110989508771732772,15054.0,1.5953124577989110989508771732772
195,15211.1963478719270703492077603203426,15209.6,1.5963478719270703492077603203426
196,15367.5973779881547261660727405039359,15366.0,1.5973779881547261660727405039359
197,15524.7984028604442801748061382655156,15523.2,1.5984028604442801748061382655156
198,15682.7994225419378588143166316365610,15681.2,1.5994225419378588143166316365610
199,15841.6004370849738571537920090227854,15840.0,1.6004370849738571537920090227854
200,16001.2014465411030683644410597554088,15999.6,1.6014465411030683644410597554088
201,16161.6024509611044098227290180432492,16160.0,1.6024509611044098227290180432492
202,16322.8034503950002592212214576769187,16321.2,1.6034503950002592212214576769187
203,16484.8044448920714113417219302608384,16483.2,1.6044448920714113417219302608384
204,16647.6054345008716671055685619492126,16646.0,1.6054345008716671055685619492126
205,16811.2064192692420648664050752179578,16809.6,1.6064192692420648664050752179578
206,16975.6073992443247669641269819377561,16974.0,1.6073992443247669641269819377561
207,17140.8083744725766074106318556298166,17139.2,1.6083744725766074106318556298166
208,17306.8093449997823149287822364215090,17305.2,1.6093449997823149287822364215090
209,17473.6103108710674170874123549775843,17472.0,1.6103108710674170874123549775843
210,17641.2112721309108370279815902991038,17639.6,1.6112721309108370279815902991038
211,17809.6122288231571901418348548482620,17808.0,1.6122288231571901418348548482620
212,17978.8131809910287909251957969435848,17977.2,1.6131809910287909251957969435848
213,18148.8141286771373743897849874838508,18147.2,1.6141286771373743897849874838508
214,18319.6150719234955470047501436606156,18318.0,1.6150719234955470047501436606156
215,18491.2160107715279663761374792167907,18489.6,1.6160107715279663761374792167907
216,18663.6169452620822636183585394058522,18662.0,1.6169452620822636183585394058522
217,18836.8178754354397123766920568609821,18835.2,1.6178754354397123766920568609821
218,19010.8188013313256534732678943229111,19009.2,1.6188013313256534732678943229111
219,19185.6197229889196784494661612287961,19184.0,1.6197229889196784494661612287961
220,19361.2206404468655845128563734931425,19359.6,1.6206404468655845128563734931425
221,19537.6215537432810987909633031899006,19536.0,1.6215537432810987909633031899006
222,19714.8224629157673890892222055013521,19713.2,1.6224629157673890892222055013521
223,19892.8233680014183547139512826500842,19891.2,1.6233680014183547139512826500842
224,20071.6242690368297124196365342475867,20070.0,1.6242690368297124196365342475867
225,20251.2251660581078800370683202252892,20249.6,1.6251660581078800370683202252892
226,20431.6260591008786613202671309744912,20430.0,1.6260591008786613202671309744912
227,20612.8269482002957406550417089714734,20611.2,1.6269482002957406550417089714734
228,20794.8278333910489894393759166627370,20793.2,1.6278333910489894393759166627370
229,20977.6287147073725912877840112746337,20976.0,1.6287147073725912877840112746337
230,21161.2295921830529907458675243268488,21159.6,1.6295921830529907458675243268488
231,21345.6304658514366673043333212736467,21344.0,1.6304658514366673043333212736467
232,21530.8313357454377451213818586466190,21529.2,1.6313357454377451213818586466190
233,21716.8322018975454334389591818509597,21715.2,1.6322018975454334389591818509597
234,21903.6330643398313138389267444347924,21902.0,1.6330643398313138389267444347924
235,22091.2339231039564675102378137746346,22089.6,1.6339231039564675102378137746346
236,22279.6347782211784522258769464620036,22278.0,1.6347782211784522258769464620036
237,22468.8356297223581326496776686089012,22467.2,1.6356297223581326496776686089012
238,22658.8364776379663657040173839657852,22657.2,1.6364776379663657040173839657852
