Eigenstate,Energy,Kinetic Energy,Potential Energy
1,0.500000000015024652594626690150667853,0.0,0.500000000015024652594626690150667853
2,1.84623093774918769608673845342481652,1.2,0.64623093774918769608673845342481652
3,3.93633760999305710691767530311053156,3.2,0.73633760999305710691767530311053156
4,6.79966527841427897468309094933951508,6.0,0.79966527841427897468309094933951508
5,10.4480465763250768564872755373290841,9.6,0.8480465763250768564872755373290841
6,14.8870659984786197959762956214211400,14.0,0.8870659984786197959762956214211400
7,20.1197208263123766575920158183526473,19.2,0.9197208263123766575920158183526473
8,26.1477838462029279693611279322331125,25.2,0.9477838462029279693611279322331125
9,32.9723835571563442032743321157951180,32.0,0.9723835571563442032743321157951180
10,40.5942802133210674735017712097068709,39.6,0.9942802133210674735017712097068709
11,49.0140093848380495310809448401990811,48.0,1.0140093848380495310809448401990811
12,58.2319621670118573454307249028080735,57.2,1.0319621670118573454307249028080735
13,68.2484326899082507209792363164213705,67.2,1.0484326899082507209792363164213705
14,79.0636476512103356637505893173749440,78.0,1.0636476512103356637505893173749440
15,90.6777854320327443422470200316574955,89.6,1.0777854320327443422470200316574955
16,103.090988901792077126539193009056861,102.0,1.090988901792077126539193009056861
17,116.303374251668405054642204155346763,115.2,1.103374251668405054642204155346763
18,130.315037245611468129510993499271170,129.2,1.115037245611468129510993499271170
19,145.126057743444652200928595777925887,144.0,1.126057743444652200928595777925887
20,160.736503038498924934604396347672942,159.6,1.136503038498924934604396347672942
21,177.146430363694532678722806773027379,176.0,1.146430363694532678722806773027379
22,194.355888802699740387160967810199026,193.2,1.155888802699740387160967810199026
23,212.364920767867356130350804152913958,211.2,1.164920767867356130350804152913958
24,231.173563157635153153548642449124233,230.0,1.173563157635153153548642449124233
25,250.781848273321796197058849544174715,249.6,1.181848273321796197058849544174715
26,271.189804552934429195921873419615961,270.0,1.189804552934429195921873419615961
27,292.397457164131251078917636969830055,291.2,1.197457164131251078917636969830055
28,314.404828487580555579990456313409855,313.2,1.204828487580555579990456313409855
29,337.211938514162683155329314639792883,336.0,1.211938514162683155329314639792883
30,360.818805173811845531178370778963087,359.6,1.218805173811845531178370778963087
31,385.225444609648844908181902538963554,384.0,1.225444609648844908181902538963554
32,410.431871407977810263927831037540845,409.2,1.231871407977810263927831037540845
33,436.438098792410425391657537408574430,435.2,1.238098792410425391657537408574430
34,463.244138788630577047283851794957794,462.0,1.244138788630577047283851794957794
35,490.850002364973156511418153057686894,489.6,1.250002364973156511418153057686894
36,519.255699552957268994764520019675324,518.0,1.255699552957268994764520019675324
37,548.461239551110020766888365642334803,547.2,1.261239551110020766888365642334803
38,578.466630814786635145359587701636927,577.2,1.266630814786635145359587701636927
39,609.271881134194799832859904874335672,608.0,1.271881134194799832859904874335672
40,640.876997702435327306385513679136172,639.6,1.276997702435327306385513679136172
41,673.281987175054459689025380121816290,672.0,1.281987175054459689025380121816290
42,706.486855722348156933347102644526687,705.2,1.286855722348156933347102644526687
43,740.491609075452220800552647390444440,739.2,1.291609075452220800552647390444440
44,775.296252567084013104100632081583119,774.0,1.296252567084013104100632081583119
45,810.900791167663957117526747602126115,809.6,1.300791167663957117526747602126115
46,847.305229517431874763627099892898397,846.0,1.305229517431874763627099892898397
47,884.509571955079735589860127931734223,883.2,1.309571955079735589860127931734223
48,922.513822543344807170593343169201089,921.2,1.313822543344807170593343169201089
49,961.317985091942534032940363291397600,960.0,1.317985091942534032940363291397600
50,1000.92206317816434948929364790483903,999.6,1.32206317816434948929364790483903
51,1041.32606016542015779719691969296382,1040.0,1.32606016542015779719691969296382
52,1082.52997921996687885291120195316737,1081.2,1.32997921996687885291120195316737
53,1124.53382332603199750649024740448742,1123.2,1.33382332603199750649024740448742
54,1167.33759529951349845473163844637016,1166.0,1.33759529951349845473163844637016
55,1210.94129780041409217586364907717517,1209.6,1.34129780041409217586364907717517
56,1255.34493334414756279970758410736913,1254.0,1.34493334414756279970758410736913
57,1300.54850431183786984194041172212915,1299.2,1.34850431183786984194041172212915
58,1346.55201295971683854479504300389774,1345.2,1.35201295971683854479504300389774
59,1393.35546142771351961926351307294684,1392.0,1.35546142771351961926351307294684
60,1440.95885174731727467616861079370763,1439.6,1.35885174731727467616861079370763
61,1489.36218584878707940596717731388961,1488.0,1.36218584878707940596717731388961
62,1538.56546556777123556203673922344097,1537.2,1.36546556777123556203673922344097
63,1588.56869265139444091317825581101905,1587.2,1.36869265139444091317825581101905
64,1639.37186876386285385114712143250594,1638.0,1.37186876386285385114712143250594
65,1690.97499549163225449905295356910291,1689.6,1.37499549163225449905295356910291
66,1743.37807434817955682741574402207751,1742.0,1.37807434817955682741574402207751
67,1796.58110677841366399334104781348640,1795.2,1.38110677841366399334104781348640
68,1850.58409416275790295746915923748916,1849.2,1.38409416275790295746915923748916
69,1905.38703782093296176262710681325305,1904.0,1.38703782093296176262710681325305
70,1960.98993901546632458984898058554034,1959.6,1.38993901546632458984898058554034
71,2017.39279895495160100369936146398987,2016.0,1.39279895495160100369936146398987
72,2074.59561879707884755645540437653176,2073.2,1.39561879707884755645540437653176
73,2132.59839965145492691429991091200486,2131.2,1.39839965145492691429991091200486
74,2191.40114258223113082012537571868513,2190.0,1.40114258223113082012537571868513
75,2251.00384861055366210644623527070364,2249.6,1.40384861055366210644623527070364
76,2311.40651871685112141516157505506297,2310.0,1.40651871685112141516157505506297
77,2372.60915384297184188249264824195348,2371.2,1.40915384297184188249264824195348
78,2434.61175489418274924923955346877786,2433.2,1.41175489418274924923955346877786
79,2497.41432274104037803650931639836363,2496.0,1.41432274104037803650931639836363
80,2561.01685822114373630142334919140113,2559.6,1.41685822114373630142334919140113
81,2625.41936214077786214583572379703732,2624.0,1.41936214077786214583572379703732
82,2690.62183527645615370054029603728236,2689.2,1.42183527645615370054029603728236
83,2756.62427837636886557365514835045226,2755.2,1.42427837636886557365514835045226
84,2823.42669216174454046015673848160316,2822.0,1.42669216174454046015673848160316
85,2891.02907732813058533336251954489948,2889.6,1.42907732813058533336251954489948
86,2959.43143454659868577377155506266347,2958.0,1.43143454659868577377155506266347
87,3028.63376446488029451987277973770644,3027.2,1.43376446488029451987277973770644
88,3098.63606770843700694779492690577048,3097.2,1.43606770843700694779492690577048
89,3169.43834488147025268451067243530437,3168.0,1.43834488147025268451067243530437
90,3241.04059656787438934257828561135703,3239.6,1.44059656787438934257828561135703
91,3313.44282333213696291235340903219914,3312.0,1.44282333213696291235340903219914
92,3386.64502572018961105006447697163253,3385.2,1.44502572018961105006447697163253
93,3460.64720426021282324508968603314911,3459.2,1.44720426021282324508968603314911
94,3535.44935946339752892103531663782894,3534.0,1.44935946339752892103531663782894
95,3611.05149182466626337118621612805771,3609.6,1.45149182466626337118621612805771
96,3687.45360182335645960678286082905077,3686.0,1.45360182335645960678286082905077
97,3764.65568992386822985446976059834071,3763.2,1.45568992386822985446976059834071
98,3842.65775657627882756496534188943533,3841.2,1.45775657627882756496534188943533
99,3921.45980221692582732281425895553879,3920.0,1.45980221692582732281425895553879
100,4001.06182726896091370666707333001590,3999.6,1.46182726896091370666707333001590
101,4081.46383214287604084537772579441248,4080.0,1.46383214287604084537772579441248
102,4162.66581723700359884048817842110500,4161.2,1.46581723700359884048817842110500
103,4244.66778293799211531205672089379540,4243.2,1.46778293799211531205672089379540
104,4327.46972962125891306007600181106562,4326.0,1.46972962125891306007600181106562
105,4411.07165765142105175996999380676623,4409.6,1.47165765142105175996999380676623
106,4495.47356738270579084641535670986299,4494.0,1.47356738270579084641535670986299
107,4580.67545915934173265777725882900915,4579.2,1.47545915934173265777725882900915
108,4666.67733331593172567389534462651168,4665.2,1.47733331593172567389534462651168
109,4753.47919017780853908642135531438061,4752.0,1.47919017780853908642135531438061
110,4841.08103006137425752078487441518595,4839.6,1.48103006137425752078487441518595
111,4929.48285327442427886766512874145446,4928.0,1.48285327442427886766512874145446
112,5018.68466011645674874821331071078466,5017.2,1.48466011645674874821331071078466
113,5108.68645087896820960147581723871707,5107.2,1.48645087896820960147581723871707
114,5199.48822584573619362471245264315599,5198.0,1.48822584573619362471245264315599
115,5291.08998529308944834880107245995187,5289.6,1.48998529308944834880107245995187
116,5383.49172949016643529927193540625180,5382.0,1.49172949016643529927193540625180
117,5476.69345869916271048050824971160207,5475.2,1.49345869916271048050824971160207
118,5570.69517317556775438954383959864285,5569.2,1.49517317556775438954383959864285
119,5665.49687316839178555217256996375789,5664.0,1.49687316839178555217256996375789
120,5761.09855892038306573184915570989181,5759.6,1.49855892038306573184915570989181
121,5857.50023066823616669461679369577640,5856.0,1.50023066823616669461679369577640
122,5954.70188864279164950016423736958113,5953.2,1.50188864279164950016423736958113
123,6052.70353306922757509618294461770404,6051.2,1.50353306922757509618294461770404
124,6151.50516416724324731338628273128192,6150.0,1.50516416724324731338628273128192
125,6251.10678215123555979228964810622375,6249.6,1.50678215123555979228964810622375
126,6351.50838723046830317555280110906061,6350.0,1.50838723046830317555280110906061
127,6452.70997960923476832179933605875346,6451.2,1.50997960923476832179933605875346
128,6554.71155948701395870963829015545292,6553.2,1.51155948701395870963829015545292
129,6657.51312705862071312737481426061672,6656.0,1.51312705862071312737481426061672
130,6761.11468251435002136202954978137868,6759.6,1.51468251435002136202954978137868
131,6865.51622604011580019716827330647382,6864.0,1.51622604011580019716827330647382
132,6970.71775781758438205184256505765940,6969.2,1.51775781758438205184256505765940
133,7076.71927802430295681135836258102116,7075.2,1.51927802430295681135836258102116
134,7183.52078683382319612463029946152947,7182.0,1.52078683382319612463029946152947
135,7291.12228441582027133453731519346231,7289.6,1.52228441582027133453731519346231
136,7399.52377093620747252016467202582464,7398.0,1.52377093620747252016467202582464
137,7508.72524655724662282187384375305111,7507.2,1.52524655724662282187384375305111
138,7618.72671143765446860815122839659048,7617.2,1.52671143765446860815122839659048
139,7729.52816573270522393728096730915921,7728.0,1.52816573270522393728096730915921
140,7841.12960959432943232091890257333269,7839.6,1.52960959432943232091890257333269
141,7953.53104317120930423915476722503129,7952.0,1.53104317120930423915476722503129
142,8066.73246660887068078338255998543718,8065.2,1.53246660887068078338255998543718
143,8180.73388004977176515312985575727284,8179.2,1.53388004977176515312985575727284
144,8295.53528363338875655335970511970600,8294.0,1.53528363338875655335970511970600
145,8411.13667749629851685099981664250044,8409.6,1.53667749629851685099981664250044
146,8527.53806177225839248070265681634773,8526.0,1.53806177225839248070265681634773
147,8644.73943659228330588687417006230227,8643.2,1.53943659228330588687417006230227
148,8762.74080208472023183097550183701216,8761.2,1.54080208472023183097550183701216
149,8881.54215837532016036502774679028812,8880.0,1.54215837532016036502774679028812
150,9001.14350558730765011217263481263858,8999.6,1.54350558730765011217263481263858
151,9121.54484384144806776851822058760439,9120.0,1.54484384144806776851822058760439
152,9242.74617325611260412541404729535224,9241.2,1.54617325611260412541404729535224
153,9364.74749394734115556182354126650489,9363.2,1.54749394734115556182354126650489
154,9487.54880602890315490600946806932082,9486.0,1.54880602890315490600946806932082
155,9611.15010961235642990249838820168043,9609.6,1.55010961235642990249838820168043
156,9735.55140480710416715066009256277920,9734.0,1.55140480710416715066009256277920
157,9860.75269172045005256147791456265935,9859.2,1.55269172045005256147791456265935
158,9986.75397045765166015058332332775010,9985.2,1.55397045765166015058332332775010
159,10113.5552411219721528403602359292600,10112.0,1.5552411219721528403602359292600
160,10241.1565038147303616086287632636226,10239.6,1.5565038147303616086287632636226
161,10369.5577586353493014799993061002876,10368.0,1.5577586353493014799993061002876
162,10498.7590056814031838209683807600485,10497.2,1.5590056814031838209683807600485
163,10628.7602450486629797920255049918272,10627.2,1.5602450486629797920255049918272
164,10759.5614768311405895933360225042738,10758.0,1.5614768311405895933360225042738
165,10891.1627011211316661041875106611419,10889.6,1.5627011211316661041875106611419
166,11023.5639180092571434317584761797797,11022.0,1.5639180092571434317584761797797
167,11156.7651275845035176014987015989678,11155.2,1.5651275845035176014987015989678
168,11290.7663299342619220780046823777899,11289.2,1.5663299342619220780046823777899
169,11425.5675251443660431784507373026921,11424.0,1.5675251443660431784507373026921
170,11561.1687132991289151216613125670942,11559.6,1.5687132991289151216613125670942
171,11697.5698944813786349072552498941732,11696.0,1.5698944813786349072552498941732
172,11834.7710687724930348914897847224642,11833.2,1.5710687724930348914897847224642
173,11972.7722362524333484621049127611270,11971.2,1.5722362524333484621049127611270
174,12111.5733969997769046556519717822626,12110.0,1.5733969997769046556519717822626
175,12251.1745510917488857022092663201262,12249.6,1.5745510917488857022092663201262
176,12391.5756986042531772038073749417648,12390.0,1.5756986042531772038073749417648
177,12532.7768396119023442070714115429846,12531.2,1.5768396119023442070714115429846
178,12674.7779741880467623244461711545150,12673.2,1.5779741880467623244461711545150
179,12817.5791024048029303489197413145758,12816.0,1.5791024048029303489197413145758
180,12961.1802243330809953086141883984239,12959.6,1.5802243330809953086141883984239
181,13105.5813400426115126097991514576627,13104.0,1.5813400426115126097991514576627
182,13250.7824496019714689636833538899521,13249.2,1.5824496019714689636833538899521
183,13396.7835530786095911462275774158052,13395.2,1.5835530786095911462275774158052
184,13543.5846505388709648324846557862363,13542.0,1.5846505388709648324846557862363
185,13691.1857420480209853135592501772661,13689.6,1.5857420480209853135592501772661
186,13839.5868276702686610647761859061435,13838.0,1.5868276702686610647761859061435
187,13988.7879074687892939655239184931970,13987.2,1.5879074687892939655239184931970
188,14138.7889815057465516070567742087332,14137.2,1.5889815057465516070567742087332
189,14289.5900498423139554193125977483091,14288.0,1.5900498423139554193125977483091
190,14441.1911125386958002677894027579579,14439.6,1.5911125386958002677894027579579
191,14593.5921696541475247429983576557147,14592.0,1.5921696541475247429983576557147
192,14746.7932212469955485246608964500906,14745.2,1.5932212469955485246608964500906
193,14900.7942673746565951244621268821274,14899.2,1.5942673746565951244621268821274
194,15055.5953080936565133481067359601452,15054.0,1.5953080936565133481067359601452
195,15211.1963434596486154089991647433060,15209.6,1.5963434596486154089991647433060
196,15367.5973735274315453854103899696726,15366.0,1.5973735274315453854103899696726
197,15524.7983983509666923964142928450419,15523.2,1.5983983509666923964142928450419
198,15682.7994179833951626585343938205555,15681.2,1.5994179833951626585343938205555
199,15841.6004324770543232569161387657916,15840.0,1.6004324770543232569161387657916
200,16001.2014418834939315711853912038735,15999.6,1.6014418834939315711853912038735
201,16161.6024462534918613323715801018211,16160.0,1.6024462534918613323715801018211
202,16322.8034456370694386870064804258212,16321.2,1.6034456370694386870064804258212
203,16484.8044400835063989230803206255223,16483.2,1.6044400835063989230803206255223
204,16647.6054296413554754727163685310391,16646.0,1.6054296413554754727163685310391
205,16811.2064143584566311568756725257727,16809.6,1.6064143584566311568756725257727
206,16975.6073942819509446907884827292482,16974.0,1.6073942819509446907884827292482
207,17140.8083694582941583207375271857530,17139.2,1.6083694582941583207375271857530
208,17306.8093399332699008135973617431817,17305.2,1.6093399332699008135973617431817
209,17473.6103057520025915419570104366932,17472.0,1.6103057520025915419570104366932
210,17641.2112669589700371604245844087496,17639.6,1.6112669589700371604245844087496
211,17809.6122235980157282320698791963075,17808.0,1.6122235980157282320698791963075
212,17978.8131757123608460321266678956070,17977.2,1.6131757123608460321266678956070
213,18148.8141233446159839068422083823962,18147.2,1.6141233446159839068422083823962
214,18319.6150665367925981631571464334072,18318.0,1.6150665367925981631571464334072
215,18491.2160053303141876954400688553729,18489.6,1.6160053303141876954400688553729
216,18663.6169397660272163037267671960344,18662.0,1.6169397660272163037267671960344
217,18836.8178698842117816624992930485833,18835.2,1.6178698842117816624992930485833
218,19010.8187957245920399124472131790235,19009.2,1.6187957245920399124472131790235
219,19185.6197173263463891481395110499470,19184.0,1.6197173263463891481395110499470
220,19361.2206347281174243097273439198521,19359.6,1.6206347281174243097273439198521
221,19537.6215479680216613809596935757278,19536.0,1.6215479680216613809596935757278
222,19714.8224570836590480908695999429945,19713.2,1.6224570836590480908695999429945
223,19892.8233621121222546799541888406950,19891.2,1.6233621121222546799541888406950
224,20071.6242630900057597901386258887449,20070.0,1.6242630900057597901386258887449
225,20251.2251600534147340350583602064469,20249.6,1.6251600534147340350583602064469
226,20431.6260530379737247885922525477950,20430.0,1.6260530379737247885922525477950
227,20612.8269420788351508344846912663246,20611.2,1.6269420788351508344846912663246
228,20794.8278272106876086872476218998998,20793.2,1.6278272106876086872476218998998
229,20977.6287084677639977364773623717995,20976.0,1.6287084677639977364773623717995
230,21161.2295858838494689008140704099394,21159.6,1.6295858838494689008140704099394
231,21345.6304594922891985807978475209483,21344.0,1.6304594922891985807978475209483
232,21530.8313293259959983195255658208440,21529.2,1.6313293259959983195255658208440
233,21716.8321954174577551565960780931583,21715.2,1.6321954174577551565960780931583
234,21903.6330577987447188213927753589793,21902.0,1.6330577987447188213927753589793
235,22091.2339165015166289367864186883391,22089.6,1.6339165015166289367864186883391
236,22279.6347715570296919320092353821194,22278.0,1.6347715570296919320092353821194
237,22468.8356229961434112848096999413284,22467.2,1.6356229961434112848096999413284
238,22658.8364708493272728238811868289839,22657.2,1.6364708493272728238811868289839
