Eigenstate,Energy,Kinetic Energy,Potential Energy
1,0.500000000027135075904755610721676797,0.0,0.500000000027135075904755610721676797
2,1.84623093782823817351240931474234732,1.2,0.64623093782823817351240931474234732
3,3.93633761022526125608790952351649241,3.2,0.73633761022526125608790952351649241
4,6.79966527889793299099398581709037551,6.0,0.79966527889793299099398581709037551
5,10.4480465771628630138230878764470372,9.6,0.8480465771628630138230878764470372
6,14.8870659997750164319047998196671496,14.0,0.8870659997750164319047998196671496
7,20.1197208281727035347158992499318333,19.2,0.9197208281727035347158992499318333
8,26.1477838487329478381175627898770531,25.2,0.9477838487329478381175627898770531
9,32.9723835604620772403405494936650024,32.0,0.9723835604620772403405494936650024
10,40.5942802175086968358244616147289162,39.6,0.9942802175086968358244616147289162
11,49.0140093900138698028138670893456279,48.0,1.0140093900138698028138670893456279
12,58.2319621732822448422883774405769537,57.2,1.0319621732822448422883774405769537
13,68.2484326973796456936944006346109412,67.2,1.0484326973796456936944006346109412
14,79.0636476599892313493319656311914301,78.0,1.0636476599892313493319656311914301
15,90.6777854422256801462350017088926224,89.6,1.0777854422256801462350017088926224
16,103.090988913505634400005168490090453,102.0,1.090988913505634400005168490090453
17,116.303374265009204558894011080707349,115.2,1.103374265009204558894011080707349
18,130.315037260686168632479176129833065,129.2,1.115037260686168632479176129833065
19,145.126057760359949852984462418466945,144.0,1.126057760359949852984462418466945
20,160.736503057361553194085773619694593,159.6,1.136503057361553194085773619694593
21,177.146430384611262633440819953034512,176.0,1.146430384611262633440819953034512
22,194.355888825777381366624457770757884,193.2,1.155888825777381366624457770757884
23,212.364920793212756535127556500215437,211.2,1.164920793212756535127556500215437
24,231.173563185355201449363920247609697,230.0,1.173563185355201449363920247609697
25,250.781848303523422035682473459110025,249.6,1.181848303523422035682473459110025
26,271.189804585724604634937339824861206,270.0,1.189804585724604634937339824861206
27,292.397457199616991879563816682553345,291.2,1.197457199616991879563816682553345
28,314.404828525868922567359910305224153,313.2,1.204828525868922567359910305224153
29,337.211938555360783628914964087305571,336.0,1.211938555360783628914964087305571
30,360.818805218026834716494661712454635,359.6,1.218805218026834716494661712454635
31,385.225444656987927442227715917138256,384.0,1.225444656987927442227715917138256
32,410.431871458548241708799118654575137,409.2,1.231871458548241708799118654575137
33,436.438098846319513771792859521533307,435.2,1.238098846319513771792859521533307
34,463.244138845985684406731099740647203,462.0,1.244138845985684406731099740647203
35,490.850002425881700488214174033017974,489.6,1.250002425881700488214174033017974
36,519.255699617526724410070696273956065,518.0,1.255699617526724410070696273956065
37,548.461239619447921226960800439211315,547.2,1.261239619447921226960800439211315
38,578.466630887000574654779253229827145,577.2,1.266630887000574654779253229827145
39,609.271881210392434417726013523174232,608.0,1.271881210392434417726013523174232
40,640.876997782724376646399640703514323,639.6,1.276997782724376646399640703514323
41,673.281987259542708757575926046943207,672.0,1.281987259542708757575926046943207
42,706.486855811143457644852418786547885,705.2,1.286855811143457644852418786547885
43,740.491609168662493664443307217767887,739.2,1.291609168662493664443307217767887
44,775.296252664817248884922194384651915,774.0,1.296252664817248884922194384651915
45,810.900791270028218500728081809217858,809.6,1.300791270028218500728081809217858
46,847.305229624535298026669176299681408,846.0,1.305229624535298026669176299681408
47,884.509572067030532278338651111806925,883.2,1.309572067030532278338651111806925
48,922.513822660251265779117858520661968,921.2,1.313822660251265779117858520661968
49,961.317985213913021690554045175277554,960.0,1.317985213913021690554045175277554
50,1000.92206330530731364925327277149620,999.6,1.32206330530731364925327277149620
51,1041.32606029784412793096260596994807,1040.0,1.32606029784412793096260596994807
52,1082.52997935778046814822118552627611,1081.2,1.32997935778046814822118552627611
53,1124.53382346934390456941800977172181,1123.2,1.33382346934390456941800977172181
54,1167.33759544843250901564170484973440,1166.0,1.33759544843250901564170484973440
55,1210.94129795504908079919876055627060,1209.6,1.34129795504908079919876055627060
56,1255.34493350460749459755417380733647,1254.0,1.34493350460749459755417380733647
57,1300.54850447823180219133164716303457,1299.2,1.34850447823180219133164716303457
58,1346.55201313215392280872152422275803,1345.2,1.35201313215392280872152422275803
59,1393.35546160630300287137108232177454,1392.0,1.35546160630300287137108232177454
60,1440.95885193216850142913104183755619,1439.6,1.35885193216850142913104183755619
61,1489.36218604000949334352876115189255,1488.0,1.36218604000949334352876115189255
62,1538.56546576547438127472623065558806,1537.2,1.36546576547438127472623065558806
63,1588.56869285568796563770129828746597,1587.2,1.36869285568796563770129828746597
64,1639.37186897485650921346930303911409,1638.0,1.37186897485650921346930303911409
65,1690.97499570943589826119016785822428,1689.6,1.37499570943589826119016785822428
66,1743.37807457290315463795247999434925,1742.0,1.37807457290315463795247999434925
67,1796.58110701016729114170083815601512,1795.2,1.38110701016729114170083815601512
68,1850.58409440165174613196460803509583,1849.2,1.38409440165174613196460803509583
69,1905.38703806707732081231984154335258,1904.0,1.38703806707732081231984154335258
70,1960.98993926897161429025238579160112,1959.6,1.38993926897161429025238579160112
71,2017.39279921592835282635942976915566,2016.0,1.39279921592835282635942976915566
72,2074.59561906563771144244704592629716,2073.2,1.39561906563771144244704592629716
73,2132.59839992770667305167809814768438,2131.2,1.39839992770667305167809814768438
74,2191.40114286628665142537221187369628,2190.0,1.40114286628665142537221187369628
75,2251.00384890252397320995668933919110,2249.6,1.40384890252397320995668933919110
76,2311.40651901684736465081207740455706,2310.0,1.40651901684736465081207740455706
77,2372.60915415110528628133812206308670,2371.2,1.40915415110528628133812206308670
78,2434.61175521056479303738570843458007,2433.2,1.41175521056479303738570843458007
79,2497.41432306578255043720822565564224,2496.0,1.41432306578255043720822565564224
80,2561.01685855435769934144134511249020,2559.6,1.41685855435769934144134511249020
81,2625.41936248257541246614372082309308,2624.0,1.41936248257541246614372082309308
82,2690.62183562694922437137755839756217,2689.2,1.42183562694922437137755839756217
83,2756.62427873566952791401839551485888,2755.2,1.42427873566952791401839551485888
84,2823.42669252996500586176731780660676,2822.0,1.42669252996500586176731780660676
85,2891.02907770538320708916516177269672,2889.6,1.42907770538320708916516177269672
86,2959.43143493299596091101892941258377,2958.0,1.43143493299596091101892941258377
87,3028.63376486053486563785081354735799,3027.2,1.43376486053486563785081354735799
88,3098.63606811346166406024448511768053,3097.2,1.43606811346166406024448511768053
89,3169.43834529597793506680183801584813,3168.0,1.43834529597793506680183801584813
90,3241.04059699197818738369406818666008,3239.6,1.44059699197818738369406818666008
91,3313.44282376595011997174032853705901,3312.0,1.44282376595011997174032853705901
92,3386.64502616382552531940799374179577,3385.2,1.44502616382552531940799374179577
93,3460.64720471378504961507300613708313,3459.2,1.44720471378504961507300613708313
94,3535.44935992701978085314061543255113,3534.0,1.44935992701978085314061543255113
95,3611.05149229845241477459785298674374,3609.6,1.45149229845241477459785298674374
96,3687.45360230742054672045259477755689,3686.0,1.45360230742054672045259477755689
97,3764.65569041832445313440454321928155,3763.2,1.45569041832445313440454321928155
98,3842.65775708124155357679863734228769,3841.2,1.45775708124155357679863734228769
99,3921.45980273250959063972238714668087,3920.0,1.45980273250959063972238714668087
100,4001.06182779528041881269246670067758,3999.6,1.46182779528041881269246670067758
101,4081.46383268004616404422145656741300,4080.0,1.46383268004616404422145656741300
102,4162.66581778513939016983455160086012,4161.2,1.46581778513939016983455160086012
103,4244.66778349720880046349312655805522,4243.2,1.46778349720880046349312655805522
104,4327.46973019167189530467172948656889,4326.0,1.46973019167189530467172948656889
105,4411.07165823314591387957803309524893,4409.6,1.47165823314591387957803309524893
106,4495.47356797585829707076169651789362,4494.0,1.47356797585829707076169651789362
107,4580.67545976403783060740259279287994,4579.2,1.47545976403783060740259279287994
108,4666.67733393228754830901448192012287,4665.2,1.47733393228754830901448192012287
109,4753.47919080594040666176610383409467,4752.0,1.47919080594040666176610383409467
110,4841.08103070139867954649650682316449,4839.6,1.48103070139867954649650682316449
111,4929.48285392645795607630300422497098,4928.0,1.48285392645795607630300422497098
112,5018.68466078061657506794661264589511,5017.2,1.48466078061657506794661264589511
113,5108.68645155537127413552576630800152,5107.2,1.48645155537127413552576630800152
114,5199.48822653449978263711278714486933,5198.0,1.48822653449978263711278714486933
115,5291.08998599433104725654498496235624,5289.6,1.48998599433104725654498496235624
116,5383.49173020400373067091406449272624,5382.0,1.49173020400373067091406449272624
117,5476.69345942571359204129073053254793,5475.2,1.49345942571359204129073053254793
118,5570.69517391495031703311586550863958,5569.2,1.49517391495031703311586550863958
119,5665.49687392072433135897326563871898,5664.0,1.49687392072433135897326563871898
120,5761.09855968578410599422405419077064,5759.6,1.49855968578410599422405419077064
121,5857.50023144682442394873857446598280,5856.0,1.50023144682442394873857446598280
122,5954.70188943468605956482882464251560,5953.2,1.50188943468605956482882464251560
123,6052.70353387454728911855249293312188,6051.2,1.50353387454728911855249293312188
124,6151.50516498610763382175096916869684,6150.0,1.50516498610763382175096916869684
125,6251.10678298376420675592067966048513,6249.6,1.50678298376420675592067966048513
126,6351.50838807678102007171941320415612,6350.0,1.50838807678102007171941320415612
127,6452.70998046945158821002302864727617,6451.2,1.50998046945158821002302864727617
128,6554.71156036125514031325798786395971,6553.2,1.51156036125514031325798786395971
129,6657.51312794700674292249705726145694,6656.0,1.51312794700674292249705726145694
130,6761.11468341700161567393827031229716,6759.6,1.51468341700161567393827031229716
131,6865.51622695715390730426916983284769,6864.0,1.51622695715390730426916983284769
132,6970.71775874913018429721757838776221,6969.2,1.51775874913018429721757838776221
133,7076.71927897047787272200607238630377,7075.2,1.51927897047787272200607238630377
134,7183.52078779474888253846870058487919,7182.0,1.52078779474888253846870058487919
135,7291.12228539161862553524582535809466,7289.6,1.52228539161862553524582535809466
136,7399.52377192700063437994256958813219,7398.0,1.52377192700063437994256958813219
137,7508.72524756315697695219301918947775,7507.2,1.52524756315697695219301918947775
138,7618.72671245880464651858145272378483,7617.2,1.52671245880464651858145272378483
139,7729.52816676921810620246641815781729,7728.0,1.52816676921810620246641815781729
140,7841.12961064632815075578518981144678,7839.6,1.52961064632815075578518981144678
141,7953.53104423881724408242609752596821,7952.0,1.53104423881724408242609752596821
142,8066.73246769221148288948933406540911,8065.2,1.53246769221148288948933406540911
143,8180.73388114896932819258728950675234,8179.2,1.53388114896932819258728950675234
144,8295.53528474856723922169879538848303,8294.0,1.53528474856723922169879538848303
145,8411.13667862758234008633225836789062,8409.6,1.53667862758234008633225836789062
146,8527.53806291977224169000199105152538,8526.0,1.53806291977224169000199105152538
147,8644.73943775615213318105591156369475,8643.2,1.53943775615213318105591156369475
148,8762.74080326506925826885945464899950,8761.2,1.54080326506925826885945464899950
149,8881.54215957227487820626634123658654,8880.0,1.54215957227487820626634123658654
150,9001.14350680099382507922961170497435,8999.6,1.54350680099382507922961170497435
151,9121.54484507199174131778250734992429,9120.0,1.54484507199174131778250734992429
152,9242.74617450364009572753424353402295,9241.2,1.54617450364009572753424353402295
153,9364.74749521197906499134900850941824,9363.2,1.54749521197906499134900850941824
154,9487.54880731077836454042444629820227,9486.0,1.54880731077836454042444629820227
155,9611.15011091159610703073628042214587,9609.6,1.55011091159610703073628042214587
156,9735.55140612383576629118558320017010,9734.0,1.55140612383576629118558320017010
157,9860.75269305480131779002505160484275,9859.2,1.55269305480131779002505160484275
158,9986.75397180975062743763840613225075,9985.2,1.55397180975062743763840613225075
159,10113.5552424919471523984788839690529,10112.0,1.5552424919471523984788839690529
160,10241.1565052027100202496770705080818,10239.6,1.5565052027100202496770705080818
161,10369.5577600414625449824097248976508,10368.0,1.5577600414625449824097248976508
162,10498.7590071057792393071014598172342,10497.2,1.5590071057792393071014598172342
163,10628.7602464914313781157291774243619,10627.2,1.5602464914313781157291774243619
164,10759.5614782924311677377949086365825,10758.0,1.5614782924311677377949086365825
165,10891.1627026010745695901552431509576,10889.6,1.5627026010745695901552431509576
166,11023.5639195079828287362665999821679,11022.0,1.5639195079828287362665999821679
167,11156.7651291021427545871364362735939,11155.2,1.5651291021427545871364362735939
168,11290.7663314709457964328645031107642,11289.2,1.5663314709457964328645031107642
169,11425.5675267002259588668351804272383,11424.0,1.5675267002259588668351804272383
170,11561.1687148742965968456473759616709,11559.6,1.5687148742965968456473759616709
171,11697.5698960759861305792130895870746,11696.0,1.5698960759861305792130895870746
172,11834.7710703866727181176533225407295,11833.2,1.5710703866727181176533225407295
173,11972.7722378863179210372924783751962,11971.2,1.5722378863179210372924783751962
174,12111.5733986534993990692358941631147,12110.0,1.5733986534993990692358941631147
175,12251.1745527654426676554339567481936,12249.6,1.5745527654426676554339567481936
176,12391.5757002980519481385561398014863,12390.0,1.5757002980519481385561398014863
177,12532.7768413259401438461829474697088,12531.2,1.5768413259401438461829474697088
178,12674.7779759224579712236824089195079,12673.2,1.5779759224579712236824089195079
179,12817.5791041597222724606873888836671,12816.0,1.5791041597222724606873888836671
180,12961.1802261086435405575430781985186,12959.6,1.5802261086435405575430781985186
181,13105.5813418389526794802812127208045,13104.0,1.5813418389526794802812127208045
182,13250.7824514192270270994767550049805,13249.2,1.5824514192270270994767550049805
183,13396.7835549169156639622313227779646,13395.2,1.5835549169156639622313227779646
184,13543.5846523983640321387897126156143,13542.0,1.5846523983640321387897126156143
185,13691.1857439288378859518830731358629,13689.6,1.5857439288378859518830731358629
186,13839.5868295725465955573880528405199,13838.0,1.5868295725465955573880528405199
187,13988.7879093926658271767696127109121,13987.2,1.5879093926658271767696127109121
188,14138.7889834513596154175916229153205,14137.2,1.5889834513596154175916229153205
189,14289.5900518098018514131528343652586,14288.0,1.5900518098018514131528343652586
190,14441.1911145281972024322925867722830,14439.6,1.5911145281972024322925867722830
191,14593.5921716658014821818843525431960,14592.0,1.5921716658014821818843525431960
192,14746.7932232809414881841857795909710,14745.2,1.5932232809414881841857795909710
193,14900.7942694310343245328581743972489,14899.2,1.5942694310343245328581743972489
194,15055.5953101726062233684025133102109,15054.0,1.5953101726062233684025133102109
195,15211.1963455613108830053345122991169,15209.6,1.5963455613108830053345122991169
196,15367.5973756519473364029620448529277,15366.0,1.5973756519473364029620448529277
197,15524.7984004984773643550486413442292,15523.2,1.5984004984773643550486413442292
198,15682.7994201540424675603047944319126,15681.2,1.5994201540424675603047944319126
199,15841.6004346709804104075231165850511,15840.0,1.6004346709804104075231165850511
200,16001.2014441008413504155188454338467,15999.6,1.6014441008413504155188454338467
201,16161.6024484944035643042550266407011,16160.0,1.6024484944035643042550266407011
202,16322.8034479016887840732644035913453,16321.2,1.6034479016887840732644035913453
203,16484.8044423719771537420504134389473,16483.2,1.6044423719771537420504134389473
204,16647.6054319538218183673294954552881,16646.0,1.6054319538218183673294954552881
205,16811.2064166950631553024272319278041,16809.6,1.6064166950631553024272319278041
206,16975.6073966428426607175259174822733,16974.0,1.6073966428426607175259174822733
207,17140.8083718436164972513895046913757,17139.2,1.6083718436164972513895046913757
208,17306.8093423431687170159712344924918,17305.2,1.6093423431687170159712344924918
209,17473.6103081866241656967321237821768,17472.0,1.6103081866241656967321237821768
210,17641.2112694184610792442698895454498,17639.6,1.6112694184610792442698895454498
211,17809.6122260825233805162153817941671,17808.0,1.6122260825233805162153817941671
212,17978.8131782220326860965192005292600,17977.2,1.6131782220326860965192005292600
213,18148.8141258796000276700170623498271,18147.2,1.6141258796000276700170623498271
214,18319.6150690972373029279580726491472,18318.0,1.6150690972373029279580726491472
215,18491.2160079163684552107211624624885,18489.6,1.6160079163684552107211624624885
216,18663.6169423778403958421709326532602,18662.0,1.6169423778403958421709326532602
217,18836.8178725219336731146888398518009,18835.2,1.6178725219336731146888398518009
218,19010.8187983883728968973232859512863,19009.2,1.6187983883728968973232859512863
219,19185.6197200163369221399882389927482,19184.0,1.6197200163369221399882389927482
220,19361.2206374444688037818314298415040,19359.6,1.6206374444688037818314298415040
221,19537.6215507108855209660554829716640,19536.0,1.6215507108855209660554829716640
222,19714.8224598531874877585506681028225,19713.2,1.6224598531874877585506681028225
223,19892.8233649084678439311635753617779,19891.2,1.6233649084678439311635753617779
224,20071.6242659133215408688930474264831,20070.0,1.6242659133215408688930474264831
225,20251.2251629038542251575488938924664,20249.6,1.6251629038542251575488938924664
226,20431.6260559156909233898069786583016,20430.0,1.6260559156909233898069786583016
227,20612.8269449839845368325001009993427,20611.2,1.6269449839845368325001009993427
228,20794.8278301434241477653367076536611,20793.2,1.6278301434241477653367076536611
229,20977.6287114282431446431834690037531,20976.0,1.6287114282431446431834690037531
230,21161.2295888722271707681408764433927,21159.6,1.6295888722271707681408764433927
231,21345.6304625087218982606669292886553,21344.0,1.6304625087218982606669292886553
232,21530.8313323706406377386543199927605,21529.2,1.6313323706406377386543199927605
233,21716.8321984904717786899499581262611,21715.2,1.6321984904717786899499581262611
234,21903.6330609002860766843671386950067,21902.0,1.6330609002860766843671386950067
235,22091.2339196317437805962743475129893,22089.6,1.6339196317437805962743475129893
236,22279.6347747161016095365131437076229,22278.0,1.6347747161016095365131437076229
237,22468.8356261842195831137558176774103,22467.2,1.6356261842195831137558176774103
238,22658.8364740665677067562972002229452,22657.2,1.6364740665677067562972002229452
