Eigenstate,Energy,Kinetic Energy,Potential Energy
1,0.500000000020186900577545322299872541,0.0,0.500000000020186900577545322299872541
2,1.84623093778288412106229650016621501,1.2,0.64623093778288412106229650016621501
3,3.93633761009203745564268680931914452,3.2,0.73633761009203745564268680931914452
4,6.79966527862044322357168499525732463,6.0,0.79966527862044322357168499525732463
5,10.4480465766821943865213258899297036,9.6,0.8480465766821943865213258899297036
6,14.8870659990312252823787262482810665,14.0,0.8870659990312252823787262482810665
7,20.1197208271053630628342622628134402,19.2,0.9197208271053630628342622628134402
8,26.1477838472813766252412142206178588,25.2,0.9477838472813766252412142206178588
9,32.9723835585654456343251077736139262,32.0,0.9723835585654456343251077736139262
10,40.5942802151060810597305973750939672,39.6,0.9942802151060810597305973750939672
11,49.0140093870442814543932369974419078,48.0,1.0140093870442814543932369974419078
12,58.2319621696846478530460600441709861,57.2,1.0319621696846478530460600441709861
13,68.2484326930929664609599782778851253,67.2,1.0484326930929664609599782778851253
14,79.0636476549523649394473106160452720,78.0,1.0636476549523649394473106160452720
15,90.6777854363774941275804503586195959,89.6,1.0777854363774941275804503586195959
16,103.090988906784971187263826864803380,102.0,1.090988906784971187263826864803380
17,116.303374257354882788949583769618255,115.2,1.103374257354882788949583769618255
18,130.315037252036983890954550867843007,129.2,1.115037252036983890954550867843007
19,145.126057750654674953514468705568711,144.0,1.126057750654674953514468705568711
20,160.736503046538938142120571574998147,159.6,1.136503046538938142120571574998147
21,177.146430372610034362773884574161188,176.0,1.146430372610034362773884574161188
22,194.355888812536243309033963921374823,193.2,1.155888812536243309033963921374823
23,212.364920778670388065342512147447563,211.2,1.164920778670388065342512147447563
24,231.173563169450257235413883631305356,230.0,1.173563169450257235413883631305356
25,250.781848286194531316398747482124795,249.6,1.181848286194531316398747482124795
26,271.189804566910370440611914334004547,270.0,1.189804566910370440611914334004547
27,292.397457179255990207700472971486190,291.2,1.197457179255990207700472971486190
28,314.404828503899701522529562251032185,313.2,1.204828503899701522529562251032185
29,337.211938531721862533600048345002705,336.0,1.211938531721862533600048345002705
30,360.818805192656703198238547923185426,359.6,1.218805192656703198238547923185426
31,385.225444629825044501234030742557370,384.0,1.225444629825044501234030742557370
32,410.431871429531034769241890372069102,409.2,1.231871429531034769241890372069102
33,436.438098815386377719424121244368120,435.2,1.238098815386377719424121244368120
34,463.244138813074980614853281703426363,462.0,1.244138813074980614853281703426363
35,490.850002390931755833681013791198190,489.6,1.250002390931755833681013791198190
36,519.255699580475830280664062158918326,518.0,1.255699580475830280664062158918326
37,548.461239580234332521240885129537034,547.2,1.261239580234332521240885129537034
38,578.466630845562508775306667214082831,577.2,1.266630845562508775306667214082831
39,609.271881166668070258394844896805837,608.0,1.271881166668070258394844896805837
40,640.876997736651853574491866737173409,639.6,1.276997736651853574491866737173409
41,673.281987211060125591043086939009939,672.0,1.281987211060125591043086939009939
42,706.486855760188871625245116700903194,705.2,1.286855760188871625245116700903194
43,740.491609115173919425838990941818320,739.2,1.291609115173919425838990941818320
44,775.296252608732657419143802887298532,774.0,1.296252608732657419143802887298532
45,810.900791211285536119098070498291447,809.6,1.300791211285536119098070498291447
46,847.305229563072405318503363405010662,846.0,1.305229563072405318503363405010662
47,884.509572002785263066350761379016355,883.2,1.309572002785263066350761379016355
48,922.513822593161406071877361811160179,921.2,1.313822593161406071877361811160179
49,961.317985143916308632116013427890523,960.0,1.317985143916308632116013427890523
50,1000.92206323234143446605871809134715,999.6,1.32206323234143446605871809134715
51,1041.32606022184671887609047958712271,1040.0,1.32606022184671887609047958712271
52,1082.52997927868911344305846452831993,1081.2,1.32997927868911344305846452831993
53,1124.53382338709613534280163042227616,1123.2,1.33382338709613534280163042227616
54,1167.33759536296580224051517777235133,1166.0,1.33759536296580224051517777235133
55,1210.94129786630085822681688488488286,1209.6,1.34129786630085822681688488488286
56,1255.34493341251512168926108164786755,1254.0,1.34493341251512168926108164786755
57,1300.54850438273258704793031912992700,1299.2,1.34850438273258704793031912992700
58,1346.55201303318511509744667506650063,1345.2,1.35201303318511509744667506650063
59,1393.35546150380179275047193217290969,1392.0,1.35546150380179275047193217290969
60,1440.95885182607201847006568469750053,1439.6,1.35885182607201847006568469750053
61,1489.36218593025480545076767342174264,1488.0,1.36218593025480545076767342174264
62,1538.56546565199849360315873186984179,1537.2,1.36546565199849360315873186984179
63,1588.56869273842781950763551347035005,1587.2,1.36869273842781950763551347035005
64,1639.37186885374898102321326455947625,1638.0,1.37186885374898102321326455947625
65,1690.97499558441779839719907274669237,1689.6,1.37499558441779839719907274669237
66,1743.37807444391122638252483600588621,1742.0,1.37807444391122638252483600588621
67,1796.58110687713820957820412571866721,1795.2,1.38110687713820957820412571866721
68,1850.58409426452211704756924328974404,1849.2,1.38409426452211704756924328974404
69,1905.38703792578367959821850934633217,1904.0,1.38703792578367959821850934633217
70,1960.98993912345042483934036079346363,1959.6,1.38993912345042483934036079346363
71,2017.39279906611600642835003104201959,2016.0,1.39279906611600642835003104201959
72,2074.59561891147052567639521913936437,2073.2,1.39561891147052567639521913936437
73,2132.59839976912089067588390414188297,2131.2,1.39839976912089067588390414188297
74,2191.40114270321843926463499970623386,2190.0,1.40114270321843926463499970623386
75,2251.00384873490942104014975298810585,2249.6,1.40384873490942104014975298810585
76,2311.40651884462248408074673581158239,2310.0,1.40651884462248408074673581158239
77,2372.60915397420600963188533651933618,2371.2,1.40915397420600963188533651933618
78,2434.61175502892697221782260135179898,2433.2,1.41175502892697221782260135179898
79,2497.41432287934195581875615885930165,2496.0,1.41432287934195581875615885930165
80,2561.01685836305001862796159903868869,2559.6,1.41685836305001862796159903868869
81,2625.41936228633624956195615843194663,2624.0,1.41936228633624956195615843194663
82,2690.62183542571409824616712457241458,2689.2,1.42183542571409824616712457241458
83,2756.62427852937387146479374918756021,2755.2,1.42427852937387146479374918756021
84,2823.42669231854416477183539214208671,2822.0,1.42669231854416477183539214208671
85,2891.02907748877243868408496341094226,2889.6,1.42907748877243868408496341094226
86,2959.43143471113043301149744527403991,2958.0,1.43143471113043301149744527403991
87,3028.63376463334965540954343654142338,3027.2,1.43376463334965540954343654142338
88,3098.63606788089175686042197178029900,3097.2,1.43606788089175686042197178029900
89,3169.43834505795822328784540545036875,3168.0,1.43834505795822328784540545036875
90,3241.04059674844346929337986278176361,3239.6,1.44059674844346929337986278176361
91,3313.44282351683509855027411406460550,3312.0,1.44282351683509855027411406460550
92,3386.64502590906480709317056408645653,3385.2,1.44502590906480709317056408645653
93,3460.64720445331314348703646763291388,3459.2,1.44720445331314348703646763291388
94,3535.44935966077109692991535734248128,3534.0,1.44935966077109692991535734248128
95,3611.05149202636126319006967938217448,3609.6,1.45149202636126319006967938217448
96,3687.45360202942113645596920396006979,3686.0,1.45360202942113645596920396006979
97,3764.65569013435089083547016935878526,3763.2,1.45569013435089083547016935878526
98,3842.65775679122784236623542527356826,3841.2,1.45775679122784236623542527356826
99,3921.45980243638962892725670694220553,3920.0,1.45980243638962892725670694220553
100,4001.06182749298799910092411266358849,3999.6,1.46182749298799910092411266358849
101,4081.46383237151497173093336977676460,4080.0,1.46383237151497173093336977676460
102,4162.66581747030300234660040249162266,4161.2,1.46581747030300234660040249162266
103,4244.66778317600068471053982876761777,4243.2,1.46778317600068471053982876761777
104,4327.46972986402540848195361833761934,4326.0,1.46972986402540848195361833761934
105,4411.07165789899430091401921759231894,4409.6,1.47165789899430091401921759231894
106,4495.47356763513468973962275819722589,4494.0,1.47356763513468973962275819722589
107,4580.67545941667524631772755105998340,4579.2,1.47545941667524631772755105998340
108,4666.67733357821888887311365640078551,4665.2,1.47733357821888887311365640078551
109,4753.47919044509845706869020524482587,4752.0,1.47919044509845706869020524482587
110,4841.08103033371610672945702925917479,4839.6,1.48103033371610672945702925917479
111,4929.48285355186730767599368838772654,4928.0,1.48285355186730767599368838772654
112,5018.68466039905027819172047803228744,5017.2,1.48466039905027819172047803228744
113,5108.68645116676163411238193188541094,5107.2,1.48645116676163411238193188541094
114,5199.48822613877898176844700040605791,5198.0,1.48822613877898176844700040605791
115,5291.08998559143114356261750307237522,5289.6,1.48998559143114356261750307237522
116,5383.49172979385665663298824287837274,5382.0,1.49172979385665663298824287837274
117,5476.69345900825115333939539848013832,5475.2,1.49345900825115333939539848013832
118,5570.69517349010419127938424967537627,5569.2,1.49517349010419127938424967537627
119,5665.49687348842606682651096948594735,5664.0,1.49687348842606682651096948594735
120,5761.09855924596512034145828073001562,5759.6,1.49855924596512034145828073001562
121,5857.50023099941600293920049384525883,5856.0,1.50023099941600293920049384525883
122,5954.70188897961935578232069882167297,5953.2,1.50188897961935578232069882167297
123,6052.70353341175332067765085903618145,6051.2,1.50353341175332067765085903618145
124,6151.50516451551728307359690720972710,6150.0,1.50516451551728307359690720972710
125,6251.10678250530821898924784043520073,6249.6,1.50678250530821898924784043520073
126,6351.50838759039000220907023818554902,6350.0,1.50838759039000220907023818554902
127,6452.70997997505600749910323686553540,6451.2,1.50997997505600749910323686553540
128,6554.71155985878532301337911853594627,6553.2,1.51155985878532301337911853594627
129,6657.51312743639287298605654004552873,6656.0,1.51312743639287298605654004552873
130,6761.11468289817373342288618004447543,6759.6,1.51468289817373342288618004447543
131,6865.51622643004190810151050562972761,6864.0,1.51622643004190810151050562972761
132,6970.71775821366381721289855602471920,6969.2,1.51775821366381721289855602471920
133,7076.71927842658673919463268741603193,7075.2,1.51927842658673919463268741603193
134,7183.52078724236243503080536870685229,7182.0,1.52078724236243503080536870685229
135,7291.12228483066616618494162747529057,7289.6,1.52228483066616618494162747529057
136,7399.52377135741131364483238354823990,7398.0,1.52377135741131364483238354823990
137,7508.72524698485979225022032323833920,7507.2,1.52524698485979225022032323833920
138,7618.72671187172844086228937208491635,7617.2,1.52671187172844086228937208491635
139,7729.52816617329156682800318573045622,7728.0,1.52816617329156682800318573045622
140,7841.12961004147980774636984750905487,7839.6,1.52961004147980774636984750905487
141,7953.53104362497546898621998235932135,7952.0,1.53104362497546898621998235932135
142,8066.73246706930448733181838953963584,8065.2,1.53246706930448733181838953963584
143,8180.73388051692516248246011028474465,8179.2,1.53388051692516248246011028474465
144,8295.53528410731379095256468325994351,8294.0,1.53528410731379095256468325994351
145,8411.13667797704733273102346076247280,8409.6,1.53667797704733273102346076247280
146,8527.53806225988323318980373743459114,8526.0,1.53806225988323318980373743459114
147,8644.73943708683651452884760847158493,8643.2,1.53943708683651452884760847158493
148,8762.74080258625425208626996899591440,8761.2,1.54080258625425208626996899591440
149,8881.54215888388753731478593468084127,8880.0,1.54215888388753731478593468084127
150,9001.14350610296103106522070419323473,8999.6,1.54350610296103106522070419323473
151,9121.54484436424020309133106279838151,9120.0,1.54484436424020309133106279838151
152,9242.74617378609634807508319343593626,9241.2,1.54617378609634807508319343593626
153,9364.74749448456946712205470366659214,9363.2,1.54749448456946712205470366659214
154,9487.54880657342909862617678381276678,9486.0,1.54880657342909862617678381276678
155,9611.15011016423317673978268497740791,9609.6,1.55011016423317673978268497740791
156,9735.55140536638499531529862019114150,9734.0,1.55140536638499531529862019114150
157,9860.75269228718834836515311432743023,9859.2,1.55269228718834836515311432743023
158,9986.75397103190091885797844439297243,9985.2,1.55397103190091885797844439297243
159,10113.5552417037859795239096817048553,10112.0,1.5552417037859795239096817048553
160,10241.1565044041624720064912725406514,10239.6,1.5565044041624720064912725406514
161,10369.5577592324535228572822358626493,10368.0,1.5577592324535228572822358626493
162,10498.7590062862334558342315317555647,10497.2,1.5590062862334558342315317555647
163,10628.7602456612733553570930434047606,10627.2,1.5602456612733553570930434047606
164,10759.5614774515852357564453023444820,10758.0,1.5614774515852357564453023444820
165,10891.1627017494648649165037400329262,10889.6,1.5627017494648649165037400329262
166,11023.5639186455332928272843271968771,11022.0,1.5639186455332928272843271968771
167,11156.7651282287771322784081459255333,11155.2,1.5651282287771322784081459255333
168,11290.7663305865876343834305750308302,11289.2,1.5663305865876343834305750308302
169,11425.5675258047986039967557318794494,11424.0,1.5675258047986039967557318794494
170,11561.1687139677231947662219852938349,11559.6,1.5687139677231947662219852938349
171,11697.5698951581896240157894359240157,11696.0,1.5698951581896240157894359240157
172,11834.7710694575758453249573295559793,11833.2,1.5710694575758453249573295559793
173,11972.7722369458432142072122147905607,11971.2,1.5722369458432142072122147905607
174,12111.5733977015691827309908940901016,12110.0,1.5733977015691827309908940901016
175,12251.1745518019790570680611931400627,12249.6,1.5745518019790570680611931400627
176,12391.5756993229768476756433650702948,12390.0,1.5756993229768476756433650702948
177,12532.7768403391752453727795881497116,12531.2,1.5768403391752453727795881497116
178,12674.7779749239247524653177186139538,12673.2,1.5779749239247524653177186139538
179,12817.5791031493419953644250277832969,12816.0,1.5791031493419953644250277832969
180,12961.1802250863372496450007761904701,12959.6,1.5802250863372496450007761904701
181,13105.5813408046412001925436272484481,13104.0,1.5813408046412001925436272484481
182,13250.7824503728309641338291368909958,13249.2,1.5824503728309641338291368909958
183,13396.7835538583553996006410475550836,13395.2,1.5835538583553996006410475550836
184,13543.5846513275597245680621711308210,13542.0,1.5846513275597245680621711308210
185,13691.1857428457094675754178308043904,13689.6,1.5857428457094675754178308043904
186,13839.5868284770137712984608248212217,13838.0,1.5868284770137712984608248212217
187,13988.7879082846480727732647279475010,13987.2,1.5879082846480727732647279475010
188,14138.7889823307761757081093631260427,14137.2,1.5889823307761757081093631260427
189,14289.5900506765717386144153109126126,14288.0,1.5900506765717386144153109126126
190,14441.1911133822391944077712846518129,14439.6,1.5911133822391944077712846518129
191,14593.5921705070341207015718726683722,14592.0,1.5921705070341207015718726683722
192,14746.7932221092830771754337256497255,14745.2,1.5932221092830771754337256497255
193,14900.7942682464029283222025358659090,14899.2,1.5942682464029283222025358659090
194,15055.5953089749196649142972723660238,15054.0,1.5953089749196649142972723660238
195,15211.1963443504867421217136429071604,15209.6,1.5963443504867421217136429071604
196,15367.5973744279029479735493685669124,15366.0,1.5973744279029479735493685669124
197,15524.7983992611298165383344999837613,15523.2,1.5983992611298165383344999837613
198,15682.7994189033085999851077501797267,15681.2,1.5994189033085999851077501797267
199,15841.6004334067768123590543094715506,15840.0,1.6004334067768123590543094715506
200,16001.2014428230843590118660276481413,15999.6,1.6014428230843590118660276481413
201,16161.6024472030092626632026081677373,16160.0,1.6024472030092626632026081677373
202,16322.8034465965729994693651244934805,16321.2,1.6034465965729994693651244934805
203,16484.8044410530554557538637373596707,16483.2,1.6044410530554557538637373596707
204,16647.6054306210095170147410318595819,16646.0,1.6054306210095170147410318595819
205,16811.2064153482752991739628848264179,16809.6,1.6064153482752991739628848264179
206,16975.6073952819940350875736954693962,16974.0,1.6073952819940350875736954693962
207,17140.8083704686216221872413320235449,17139.2,1.6083704686216221872413320235449
208,17306.8093409539418454745963722939660,17305.2,1.6093409539418454745963722939660
209,17473.6103067830792816111930151577705,17472.0,1.6103067830792816111930151577705
210,17641.2112680005118955996906816538819,17639.6,1.6112680005118955996906816538819
211,17809.6122246500833374152125560765234,17808.0,1.6122246500833374152125560765234
212,17978.8131767750149488140030315838443,17977.2,1.6131767750149488140030315838443
213,18148.8141244179174846972719057256822,18147.2,1.6141244179174846972719057256822
214,18319.6150676208025640059087221520186,18318.0,1.6150676208025640059087221520186
215,18491.2160064250938493522918159004952,18489.6,1.6160064250938493522918159004952
216,18663.6169408716379693436424255657183,18662.0,1.6169408716379693436424255657183
217,18836.8178710007151875559591907370639,18835.2,1.6178710007151875559591907370639
218,19010.8187968520498271309757522213194,19009.2,1.6187968520498271309757522213194
219,19185.6197184648204542690702067098641,19184.0,1.6197184648204542690702067098641
220,19361.2206358776698331262468788184025,19359.6,1.6206358776698331262468788184025
221,19537.6215491287146500174727712822858,19536.0,1.6215491287146500174727712822858
222,19714.8224582555550241237266610241554,19713.2,1.6224582555550241237266610241554
223,19892.8233632952837982635843670657900,19891.2,1.6233632952837982635843670657900
224,20071.6242642844956247886306135133130,20070.0,1.6242642844956247886306135133130
225,20251.2251612592958491592321605272362,20249.6,1.6251612592958491592321605272362
226,20431.6260542553091947386051101689160,20430.0,1.6260542553091947386051101689160
227,20612.8269433076882574480147642617112,20611.2,1.6269433076882574480147642617112
228,20794.8278284511218120932993686026182,20793.2,1.6278284511218120932993686026182
229,20977.6287097198429375148527787450104,20976.0,1.6287097198429375148527787450104
230,21161.2295871476369652472944214294820,21159.6,1.6295871476369652472944214294820
231,21345.6304607678492534780806861872459,21344.0,1.6304607678492534780806861872459
232,21530.8313306133927967139622454706543,21529.2,1.6313306133927967139622454706543
233,21716.8321967167556661407753148935227,21715.2,1.6321967167556661407753148935227
234,21903.6330591100082968226161021676655,21902.0,1.6330591100082968226161021676655
235,22091.2339178248106149114816910177590,22089.6,1.6339178248106149114816910177590
236,22279.6347728924190145661287224630824,22278.0,1.6347728924190145661287224630824
237,22468.8356243436931882002596740601265,22467.2,1.6356243436931882002596740601265
238,22658.8364722091028117910301886687610,22657.2,1.6364722091028117910301886687610
