Eigenstate,Energy,Kinetic Energy,Potential Energy
1,0.500000000360041526889027280614237776,0.0,0.500000000360041526889027280614237776
2,1.84623094000130728239274771715413228,1.2,0.64623094000130728239274771715413228
3,3.93633761660860999552816380647822243,3.2,0.73633761660860999552816380647822243
4,6.79966529219410073030842556520588814,6.0,0.79966529219410073030842556520588814
5,10.4480466001953878484079701021247103,9.6,0.8480466001953878484079701021247103
6,14.8870660354173853034792289557397593,14.0,0.8870660354173853034792289557397593
7,20.1197208793222578126284802435806704,19.2,0.9197208793222578126284802435806704
8,26.1477839183000786769285814085326032,25.2,0.9477839183000786769285814085326032
9,32.9723836513652729543435846191774294,32.0,0.9723836513652729543435846191774294
10,40.5942803326720952106835421426000980,39.6,0.9942803326720952106835421426000980
11,49.0140095323659897526662817905675412,48.0,1.0140095323659897526662817905675412
12,58.2319623457553191806799732905663097,57.2,1.0319623457553191806799732905663097
13,68.2484329029092812927783789054787398,67.2,1.0484329029092812927783789054787398
14,79.0636479015142578536321664675160492,78.0,1.0636479015142578536321664675160492
15,90.6777857226881125822997003530769679,89.6,1.0777857226881125822997003530769679
16,103.090989235850707476579914638179847,102.0,1.090989235850707476579914638179847
17,116.303374632185453749643895142989403,115.2,1.103374632185453749643895142989403
18,130.315037675645542782875541360278024,129.2,1.115037675645542782875541360278024
19,145.126058226057945655048159988152492,144.0,1.126058226057945655048159988152492
20,160.736503576757365241142168662236221,159.6,1.136503576757365241142168662236221
21,177.146430960667944856450889518998154,176.0,1.146430960667944856450889518998154
22,194.355889461462016986140167371651365,193.2,1.155889461462016986140167371651365
23,212.364921491496634534093051770006802,211.2,1.164921491496634534093051770006802
24,231.173563949213998154472747944618464,230.0,1.173563949213998154472747944618464
25,250.781849135937386792463833237312557,249.6,1.181849135937386792463833237312557
26,271.189805489678748838016916156543447,270.0,1.189805489678748838016916156543447
27,292.397458178101280814855248444540669,291.2,1.197458178101280814855248444540669
28,314.404829581878469663178620467935189,313.2,1.204829581878469663178620467935189
29,337.211939691896046815150266930994385,336.0,1.211939691896046815150266930994385
30,360.818806438093814666369273909940916,359.6,1.218806438093814666369273909940916
31,385.225445963598367527514367734810438,384.0,1.225445963598367527514367734810438
32,410.431872854719829541955239414473843,409.2,1.231872854719829541955239414473843
33,436.438100335076084241024335879228677,435.2,1.238100335076084241024335879228677
34,463.244140430357424135128371048503714,462.0,1.244140430357424135128371048503714
35,490.850004108905353667700556038799149,489.6,1.250004108905353667700556038799149
36,519.255701402245799976325881777630861,518.0,1.255701402245799976325881777630861
37,548.461241508912901353732685547915766,547.2,1.261241508912901353732685547915766
38,578.466632884269124555812326525364808,577.2,1.266632884269124555812326525364808
39,609.271883318529613452467418225846614,608.0,1.271883318529613452467418225846614
40,640.877000004802850732111296701430867,639.6,1.277000004802850732111296701430867
41,673.281989598642964095797866961747795,672.0,1.281989598642964095797866961747795
42,706.486858270354015774572503132675113,705.2,1.286858270354015774572503132675113
43,740.491611751080127858017841435285119,739.2,1.291611751080127858017841435285119
44,775.296255373547201905905937133941537,774.0,1.296255373547201905905937133941537
45,810.900794108184421745425157361189057,809.6,1.300794108184421745425157361189057
46,847.305232595240592073497817293796203,846.0,1.305232595240592073497817293796203
47,884.509575173416888871082851981238556,883.2,1.309575173416888871082851981238556
48,922.513825905460011271875925252447063,921.2,1.313825905460011271875925252447063
49,961.317988601095061983731462316480207,960.0,1.317988601095061983731462316480207
50,1000.92206683762336064732295487965134,999.6,1.32206683762336064732295487965134
51,1041.32606397846492755395928979246276,1040.0,1.32606397846492755395928979246276
52,1082.52998318988702993007127107059309,1081.2,1.32998318988702993007127107059309
53,1124.53382745612773287725270549088566,1123.2,1.33382745612773287725270549088566
54,1167.33759959309583592521584599884394,1166.0,1.33759959309583592521584599884394
55,1210.94130226080510066245281303075538,1209.6,1.34130226080510066245281303075538
56,1255.34493797468060033922523395969754,1254.0,1.34493797468060033922523395969754
57,1300.54850911585782337234763670168461,1299.2,1.34850911585782337234763670168461
58,1346.55201794058036549491397396633654,1345.2,1.35201794058036549491397396633654
59,1393.35546658878929134681467923070228,1392.0,1.35546658878929134681467923070228
60,1440.95885709198622179417642928463561,1439.6,1.35885709198622179417642928463561
61,1489.36219138044263903833763915962140,1488.0,1.36219138044263903833763915962140
62,1538.56547128981960056985217490057523,1537.2,1.36547128981960056985217490057523
63,1588.56869856725481113398637440834462,1587.2,1.36869856725481113398637440834462
64,1639.37187487696768939425133684279154,1638.0,1.37187487696768939425133684279154
65,1690.97500180542753114054039258431789,1689.6,1.37500180542753114054039258431789
66,1743.37808086612502354938816923587609,1742.0,1.37808086612502354938816923587609
67,1796.58111350398310271254783128550824,1795.2,1.38111350398310271254783128550824
68,1850.58410109943939048927932425278325,1849.2,1.38410109943939048927932425278325
69,1905.38704497222913406702479161904539,1904.0,1.38704497222913406702479161904539
70,1960.98994638489464334688732968243869,1959.6,1.38994638489464334688732968243869
71,2017.39280654604462256661480332002496,2016.0,1.39280654604462256661480332002496
72,2074.59562661338449433141523277995717,2073.2,1.39562661338449433141523277995717
73,2132.59840769653676121654523817047645,2131.2,1.39840769653676121654523817047645
74,2191.40115085966863125706853741933158,2190.0,1.40115085966863125706853741933158
75,2251.00385712394250253909662143915305,2249.6,1.40385712394250253909662143915305
76,2311.40652746980345255007984009709780,2310.0,1.40652746980345255007984009709780
77,2372.60916283911657554731837293287017,2371.2,1.40916283911657554731837293287017
78,2434.61176413716584540569666779593793,2433.2,1.41176413716584540569666779593793
79,2497.41433223452513458567127270649549,2496.0,1.41433223452513458567127270649549
80,2561.01686796881108173691371051077639,2559.6,1.41686796881108173691371051077639
81,2625.41937214632665111155503653533115,2624.0,1.41937214632665111155503653533115
82,2690.62184554360346551044229267203871,2689.2,1.42184554360346551044229267203871
83,2756.62428890885030575204795390809945,2755.2,1.42428890885030575204795390809945
84,2823.42670296331454536197906733581826,2822.0,1.42670296331454536197906733581826
85,2891.02908840256272990487944235678025,2889.6,1.42908840256272990487944235678025
86,2959.43144589768599451515052509190265,2958.0,1.43144589768599451515052509190265
87,3028.63377609643555571214177814023085,3027.2,1.43377609643555571214177814023085
88,3098.63607962429309020774611985048396,3097.2,1.43607962429309020774611985048396
89,3169.43835708548042991220015343559666,3168.0,1.43835708548042991220015343559666
90,3241.04060906391265912718365785646412,3239.6,1.44060906391265912718365785646412
91,3313.44283612409837846328865704489934,3312.0,1.44283612409837846328865704489934
92,3386.64503881199061172141314964054222,3385.2,1.44503881199061172141314964054222
93,3460.64721765579156972260787361028335,3459.2,1.44721765579156972260787361028335
94,3535.44937316671424214219223793559012,3534.0,1.44937316671424214219223793559012
95,3611.05150583970356724995570779908245,3609.6,1.45150583970356724995570779908245
96,3687.45361615411972763617218177059489,3686.0,1.45361615411972763617218177059489
97,3764.65570457438593566107746419816474,3763.2,1.45570457438593566107746419816474
98,3842.65777155060289949119111114171377,3841.2,1.45777155060289949119111114171377
99,3921.45981751913200711371204058221434,3920.0,1.45981751913200711371204058221434
100,4001.06184290314911937982684089641278,3999.6,1.46184290314911937982684089641278
101,4081.46384811317073382365356452265206,4080.0,1.46384811317073382365356452265206
102,4162.66583354755415542885258425070367,4161.2,1.46583354755415542885258425070367
103,4244.66779959297320260135869390131530,4243.2,1.46779959297320260135869390131530
104,4327.46974662487086934201618359959240,4326.0,1.46974662487086934201618359959240
105,4411.07167500789027153917345255558799,4409.6,1.47167500789027153917345255558799
106,4495.47358509628511453709063344673627,4494.0,1.47358509628511453709063344673627
107,4580.67547723431084105409596377565140,4579.2,1.47547723431084105409596377565140
108,4666.67735175659753928490998944476653,4665.2,1.47735175659753928490998944476653
109,4753.47920898850562242806488715671957,4752.0,1.47920898850562242806488715671957
110,4841.08104924646522845925988371347623,4839.6,1.48104924646522845925988371347623
111,4929.48287283830022311034032350135041,4928.0,1.48287283830022311034032350135041
112,5018.68468006353763957999544793814049,5017.2,1.48468006353763957999544793814049
113,5108.68647121370333296652106429558551,5107.2,1.48647121370333296652106429558551
114,5199.48824657260457865528459906012309,5198.0,1.48824657260457865528459906012309
115,5291.09000641660030344507061880036385,5289.6,1.49000641660030344507061880036385
116,5383.49175101485958986588898806234843,5382.0,1.49175101485958986588898806234843
117,5476.69348062960906242786673197808638,5475.2,1.49348062960906242786673197808638
118,5570.69519551636972350979301393353299,5569.2,1.49519551636972350979301393353299
119,5665.49689592418377288221940640025625,5664.0,1.49689592418377288221940640025625
120,5761.09858209583191901783881017126071,5759.6,1.49858209583191901783881017126071
121,5857.50025426804165207467521390704517,5856.0,1.50025426804165207467521390704517
122,5954.70191267168692952454142827391457,5953.2,1.50191267168692952454142827391457
123,6052.70355753197969320634576088503030,6051.2,1.50355753197969320634576088503030
124,6151.50518906865361890408146174418964,6150.0,1.50518906865361890408146174418964
125,6251.10680749614046998312998234646172,6249.6,1.50680749614046998312998234646172
126,6351.50841302373941142127320903014678,6350.0,1.50841302373941142127320903014678
127,6452.71000585577961999299005561701922,6451.2,1.51000585577961999299005561701922
128,6554.71158619177650377848656631887216,6553.2,1.51158619177650377848656631887216
129,6657.51315422658183209574008354251891,6656.0,1.51315422658183209574008354251891
130,6761.11471015052805857203975570257924,6759.6,1.51471015052805857203975570257924
131,6865.51625414956710466746072935577161,6864.0,1.51625414956710466746072935577161
132,6970.71778640540385598558134740461298,6969.2,1.51778640540385598558134740461298
133,7076.71930709562461192524246759427480,7075.2,1.51930709562461192524246759427480
134,7183.52081639382071795127258181599566,7182.0,1.52081639382071795127258181599566
135,7291.12231446970759165383405669762569,7289.6,1.52231446970759165383405669762569
136,7399.52380148923935007860034925476060,7398.0,1.52380148923935007860034925476060
137,7508.72527761471923250211758808773054,7507.2,1.52527761471923250211758808773054
138,7618.72674300490599921479473676679799,7617.2,1.52674300490599921479473676679799
139,7729.52819781511648476815526052632906,7728.0,1.52819781511648476815526052632906
140,7841.12964219732446869710719005167270,7839.6,1.52964219732446869710719005167270
141,7953.53107630025602217058686493355413,7952.0,1.53107630025602217058686493355413
142,8066.73250026948148095077091950185517,8065.2,1.53250026948148095077091950185517
143,8180.73391424750418639097564420418121,8179.2,1.53391424750418639097564420418121
144,8295.53531837384612902283211785480027,8294.0,1.53531837384612902283211785480027
145,8411.13671278513062509566912263795687,8409.6,1.53671278513062509566912263795687
146,8527.53809761516214856239988580980141,8526.0,1.53809761516214856239988580980141
147,8644.73947299500343280334939402472150,8643.2,1.53947299500343280334939402472150
148,8762.74083905304995742154277071935923,8761.2,1.54083905304995742154277071935923
149,8881.54219591510192191502447944019456,8880.0,1.54219591510192191502447944019456
150,9001.14354370443380987181453734147411,8999.6,1.54354370443380987181453734147411
151,9121.54488254186163960662155299040508,9120.0,1.54488254186163960662155299040508
152,9242.74621254580799154346746676439607,9241.2,1.54621254580799154346746676439607
153,9364.74753383236490129904191521595532,9363.2,1.54753383236490129904191521595532
154,9487.54884651535470237128890673735754,9486.0,1.54884651535470237128890673735754
155,9611.15015070638889667461930615263378,9609.6,1.55015070638889667461930615263378
156,9735.55144651492513079366202581494706,9734.0,1.55144651492513079366202581494706
157,9860.75273404832234900785176214667645,9859.2,1.55273404832234900785176214667645
158,9986.75401341189419491081047039120570,9985.2,1.55401341189419491081047039120570
159,10113.5552847089607253033665777893041,10112.0,1.5552847089607253033665777893041
160,10241.1565480408985027039289929510606,10239.6,1.5565480408985027039289929510606
161,10369.5578035071891249786804399529498,10368.0,1.5578035071891249786804399529498
162,10498.7590512054662515592144216246129,10497.2,1.5590512054662515592144216246129
163,10628.7602912315611811076125177242699,10627.2,1.5602912315611811076125177242699
164,10759.5615236795470352724488372391380,10758.0,1.5615236795470352724488372391380
165,10891.1627486417815971430156541992350,10889.6,1.5627486417815971430156541992350
166,11023.5639662089488549246365307004277,11022.0,1.5639662089488549246365307004277
167,11156.7651764700992980748677740993187,11155.2,1.5651764700992980748677740993187
168,11290.7663795126890085971953899455127,11289.2,1.5663795126890085971953899455127
169,11425.5675754226175925622237069661584,11424.0,1.5675754226175925622237069661584
170,11561.1687642842649916076093892153484,11559.6,1.5687642842649916076093892153484
171,11697.5699461805272146195606641586850,11696.0,1.5699461805272146195606641586850
172,11834.7711211928510274711686922545173,11833.2,1.5711211928510274711686922545173
173,11972.7722894012676362287450725256234,11971.2,1.5722894012676362287450725256234
174,12111.5734508844253996787885489954966,12110.0,1.5734508844253996787885489954966
175,12251.1746057196216051698765792785532,12249.6,1.5746057196216051698765792785532
176,12391.5757539828333374854724516279205,12390.0,1.5757539828333374854724516279205
177,12532.7768957487474740181019773161088,12531.2,1.5768957487474740181019773161088
178,12674.7780310907898354095008845726839,12673.2,1.5780310907898354095008845726839
179,12817.5791600811535181121836125428654,12816.0,1.5791600811535181121836125428654
180,12961.1802827908264398296431218393478,12959.6,1.5802827908264398296431218393478
181,13105.5813992896181204948986865609331,13104.0,1.5813992896181204948986865609331
182,13250.7825096461857264942353825835611,13249.2,1.5825096461857264942353825835611
183,13396.7836139280594011972088014992727,13395.2,1.5836139280594011972088014992727
184,13543.5847122016669060465998078000790,13542.0,1.5847122016669060465998078000790
185,13691.1858045323575940289590434977872,13689.6,1.5858045323575940289590434977872
186,13839.5868909844257365072411419072874,13838.0,1.5868909844257365072411419072874
187,13988.7879716211332272293105859317823,13987.2,1.5879716211332272293105859317823
188,14138.7890465047316789623036158832916,14137.2,1.5890465047316789623036158832916
189,14289.5901156964839364980281977174615,14288.0,1.5901156964839364980281977174615
190,14441.1911792566850216949960329388131,14439.6,1.5911792566850216949960329388131
191,14593.5922372446825297945982852109527,14592.0,1.5922372446825297945982852109527
192,14746.7932897188964934090479350083223,14745.2,1.5932897188964934090479350083223
193,14900.7943367368387325008266442778486,14899.2,1.5943367368387325008266442778486
194,15055.5953783551317037108061780661862,15054.0,1.5953783551317037108061780661862
195,15211.1964146295268669842884406401420,15209.6,1.5964146295268669842884406401420
196,15367.5974456149225832042878881595045,15366.0,1.5974456149225832042878881595045
197,15524.7984713653815572253343779548424,15523.2,1.5984713653815572253343779548424
198,15682.7994919341478404882987991035405,15681.2,1.5994919341478404882987991035405
199,15841.6005073736634060692106831066540,15840.0,1.6005073736634060692106831066540
200,16001.2015177355843101219738859495675,15999.6,1.6015177355843101219738859495675
201,16161.6025230707964507117380743047212,16160.0,1.6025230707964507117380743047212
202,16322.8035234294309374360720462272299,16321.2,1.6035234294309374360720462272299
203,16484.8045188608790825103093630181175,16483.2,1.6045188608790825103093630181175
204,16647.6055094138070249543323404660822,16646.0,1.6055094138070249543323404660822
205,16811.2064951361699978692200170398771,16809.6,1.6064951361699978692200170398771
206,16975.6074760752262518463265289654386,16974.0,1.6074760752262518463265289654386
207,17140.8084522775506404040557551423705,17139.2,1.6084522775506404040557551423705
208,17306.8094237890478816991834451178904,17305.2,1.6094237890478816991834451178904
209,17473.6103906549655022818390105324029,17472.0,1.6103906549655022818390105324029
210,17641.2113529199064744168838980539887,17639.6,1.6113529199064744168838980539887
211,17809.6123106278415543586958059017045,17808.0,1.6123106278415543586958059017045
212,17978.8132638221213318354457317780609,17977.2,1.6132638221213318354457317780609
213,18148.8142125454879951507047956228211,18147.2,1.6142125454879951507047956228211
214,18319.6151568400868269089991710349179,18318.0,1.6151568400868269089991710349179
215,18491.2160967474774296035233577791269,18489.6,1.6160967474774296035233577791269
216,18663.6170323086446950535288053042953,18662.0,1.6170323086446950535288053042953
217,18836.8179635640095216846000984711678,18835.2,1.6179635640095216846000984711678
218,19010.8188905534392886596172678737312,19009.2,1.6188905534392886596172678737312
219,19185.6198133162580901698929923567529,19184.0,1.6198133162580901698929923567529
220,19361.2207318912567424324106630196552,19359.6,1.6207318912567424324106630196552
221,19537.6216463167025613345766418606669,19536.0,1.6216463167025613345766418606669
222,19714.8225566303489279643128895700086,19713.2,1.6225566303489279643128895700086
223,19892.8234628694446356282078845717026,19891.2,1.6234628694446356282078845717026
224,20071.6243650707430334603629307639310,20070.0,1.6243650707430334603629307639310
225,20251.2252632705109692233503621647140,20249.6,1.6252632705109692233503621647140
226,20431.6261575045375348856671859400134,20430.0,1.6261575045375348856671859400134
227,20612.8270478081426236666374263878606,20611.2,1.6270478081426236666374263878606
228,20794.8279342161853004087770812123120,20793.2,1.6279342161853004087770812123120
229,20977.6288167630719924813599820443446,20976.0,1.6288167630719924813599820443446
230,21161.2296954827645059548663898140816,21159.6,1.6296954827645059548663898140816
231,21345.6305704087878688909749388818039,21344.0,1.6305704087878688909749388818039
232,21530.8314415742380122143953338534096,21529.2,1.6314415742380122143953338534096
233,21716.8323090117892832115254680232795,21715.2,1.6323090117892832115254680232795
234,21903.6331727537018078636640491582731,21902.0,1.6331727537018078636640491582731
235,22091.2340328318286952498002224279198,22089.6,1.6340328318286952498002224279198
236,22279.6348892776230937840515993877910,22278.0,1.6348892776230937840515993877910
237,22468.8357421221451029766268113682587,22467.2,1.6357421221451029766268113682587
238,22658.8365913960685425206635460885552,22657.2,1.6365913960685425206635460885552
