Eigenstate,Energy,Kinetic Energy,Potential Energy
1,0.500000000020887120814990557008012201,0.0,0.500000000020887120814990557008012201
2,1.84623093778745479041360276439224317,1.2,0.64623093778745479041360276439224317
3,3.93633761010546341233086938659529188,3.2,0.73633761010546341233086938659529188
4,6.79966527864840791345895400626475520,6.0,0.79966527864840791345895400626475520
5,10.4480465767306348529915675385864187,9.6,0.8480465767306348529915675385864187
6,14.8870659991061824112778752108198546,14.0,0.8870659991061824112778752108198546
7,20.1197208272129263842593814991160938,19.2,0.9197208272129263842593814991160938
8,26.1477838474276612746921418780177835,25.2,0.9477838474276612746921418780177835
9,32.9723835587565816222443354988320219,32.0,0.9723835587565816222443354988320219
10,40.5942802153482078093138658195730589,39.6,0.9942802153482078093138658195730589
11,49.0140093873435448194511005576247063,48.0,1.0140093873435448194511005576247063
12,58.2319621700471983996519374070077054,57.2,1.0319621700471983996519374070077054
13,68.2484326935249584370986663144245227,67.2,1.0484326935249584370986663144245227
14,79.0636476554599556405993504288652660,78.0,1.0636476554599556405993504288652660
15,90.6777854369668435011577627778045624,89.6,1.0777854369668435011577627778045624
16,103.090988907462241587070841573100246,102.0,1.090988907462241587070841573100246
17,116.303374258126238827225190282430204,115.2,1.103374258126238827225190282430204
18,130.315037252908592355845582891110516,129.2,1.115037252908592355845582891110516
19,145.126057751632704771613703255159579,144.0,1.126057751632704771613703255159579
20,160.736503047629560372786567742975254,159.6,1.136503047629560372786567742975254
21,177.146430373819422215344128232070043,176.0,1.146430373819422215344128232070043
22,194.355888813870572176844912092455750,193.2,1.155888813870572176844912092455750
23,212.364920780135835572302005377145887,211.2,1.164920780135835572302005377145887
24,231.173563171053003292096087912801722,230.0,1.173563171053003292096087912801722
25,250.781848287940758183467325144397235,249.6,1.181848287940758183467325144397235
26,271.189804568806262797957760444632031,270.0,1.189804568806262797957760444632031
27,292.397457181307735228090703595421472,291.2,1.197457181307735228090703595421472
28,314.404828506113488948858942698149657,313.2,1.204828506113488948858942698149657
29,337.211938534103884759050428125987251,336.0,1.211938534103884759050428125987251
30,360.818805195213155348809969903699812,359.6,1.218805195213155348809969903699812
31,385.225444632562124520229198680504169,384.0,1.225444632562124520229198680504169
32,410.431871432454943503374762222747531,409.2,1.231871432454943503374762222747531
33,436.438098818503319006291345147264790,435.2,1.238098818503319006291345147264790
34,463.244138816391161371559523133820995,462.0,1.244138816391161371559523133820995
35,490.850002394453386146449896004275070,489.6,1.250002394453386146449896004275070
36,519.255699584209123495298316566911503,518.0,1.255699584209123495298316566911503
37,548.461239584185505334320497689274548,547.2,1.261239584185505334320497689274548
38,578.466630849737781326033850088085176,577.2,1.266630849737781326033850088085176
39,609.271881171073666221010731838108716,608.0,1.271881171073666221010731838108716
40,640.876997741294000251202795067950916,639.6,1.276997741294000251202795067950916
41,673.281987215945054005404858909338631,672.0,1.281987215945054005404858909338631
42,706.486855765322816615962229382217556,705.2,1.286855765322816615962229382217556
43,740.491609120563119740942887547858457,739.2,1.291609120563119740942887547858457
44,775.296252614383355810520029269576854,774.0,1.296252614383355810520029269576854
45,810.900791217203979437337060988318651,809.6,1.300791217203979437337060988318651
46,847.305229569264844608053619795090093,846.0,1.305229569264844608053619795090093
47,884.509572009257953660956563784476032,883.2,1.309572009257953660956563784476032
48,922.513822599920607690286001908477057,921.2,1.313822599920607690286001908477057
49,961.317985150968285474041946569113849,960.0,1.317985150968285474041946569113849
50,1000.92206323969245530839405967629070,999.6,1.32206323969245530839405967629070
51,1041.32606022950305716935302377375398,1040.0,1.32606022950305716935302377375398
52,1082.52997928665704740806987943651127,1081.2,1.32997928665704740806987943651127
53,1124.53382339538194806758975662121465,1123.2,1.33382339538194806758975662121465
54,1167.33759537157578177743546427174739,1166.0,1.33759537157578177743546427174739
55,1210.94129787524129768988893277235620,1209.6,1.34129787524129768988893277235620
56,1255.34493342179231935171709377918517,1254.0,1.34493342179231935171709377918517
57,1300.54850439235284643997296548993371,1299.2,1.34850439235284643997296548993371
58,1346.55201304315474510421450897136847,1345.2,1.35201304315474510421450897136847
59,1393.35546151412710771021103123533532,1392.0,1.35546151412710771021103123533532
60,1440.95885183675933827250667188605078,1439.6,1.35885183675933827250667188605078
61,1489.36218594131045563570769427658464,1488.0,1.36218594131045563570769427658464
62,1538.56546566342880545924833044312906,1537.2,1.36546566342880545924833044312906
63,1588.56869275023913017137068092092957,1587.2,1.36869275023913017137068092092957
64,1639.37186886594763357813322237740722,1638.0,1.37186886594763357813322237740722
65,1690.97499559701014197329061248757367,1689.6,1.37499559701014197329061248757367
66,1743.37807445690361625583426806732925,1742.0,1.37807445690361625583426806732925
67,1796.58110689053700727065809289115056,1795.2,1.38110689053700727065809289115056
68,1850.58409427833369042700584097927094,1849.2,1.38409427833369042700584097927094
69,1905.38703794001440297863032559746712,1904.0,1.38703794001440297863032559746712
70,1960.98993913810667908133118538100152,1959.6,1.38993913810667908133118538100152
71,2017.39279908120417903980713574518992,2016.0,1.39279908120417903980713574518992
72,2074.59561892699701091337921822961190,2073.2,1.39561892699701091337921822961190
73,2132.59839978509208964373832188009042,2131.2,1.39839978509208964373832188009042
74,2191.40114271964076001931777657904043,2190.0,1.40114271964076001931777657904043
75,2251.00384875178927868978900745643355,2249.6,1.40384875178927868978900745643355
76,2311.40651886196630088742318964449129,2310.0,1.40651886196630088742318964449129
77,2372.60915399202021511364388220865977,2371.2,1.40915399202021511364388220865977
78,2434.61175504721800325091557246369809,2433.2,1.41175504721800325091557246369809
79,2497.41432289811625674012092054588147,2496.0,1.41432289811625674012092054588147
80,2561.01685838231404133793514193405382,2559.6,1.41685838231404133793514193405382
81,2625.41936230609645362722943508849100,2624.0,1.41936230609645362722943508849100
82,2690.62183544597695100298192227420152,2689.2,1.42183544597695100298192227420152
83,2756.62427855014584812238494535561904,2755.2,1.42427855014584812238494535561904
84,2823.42669233983174851612147442488462,2822.0,1.42669233983174851612147442488462
85,2891.02907751058212078160975278534405,2889.6,1.42907751058212078160975278534405
86,2959.43143473346871291362599687149142,2958.0,1.43143473346871291362599687149142
87,3028.63376465622304085691512919943771,3027.2,1.43376465622304085691512919943771
88,3098.63606790430676398766384250342377,3097.2,1.43606790430676398766384250342377
89,3169.43834508192137672854881014571824,3168.0,1.43834508192137672854881014571824
90,3241.04059677296130228534358875241632,3239.6,1.44059677296130228534358875241632
91,3313.44282354191415304101709182720351,3312.0,1.44282354191415304101709182720351
92,3386.64502593471163384571736718613250,3385.2,1.44502593471163384571736718613250
93,3460.64720447953430218597881143433938,3459.2,1.44720447953430218597881143433938
94,3535.44935968757315628775284347066371,3534.0,1.44935968757315628775284347066371
95,3611.05149205375080105383305293025625,3609.6,1.45149205375080105383305293025625
96,3687.45360205740473991412942429820360,3686.0,1.45360205740473991412942429820360
97,3764.65569016293515632513661765470651,3763.2,1.45569016293515632513661765470651
98,3842.65775682041937578064659893351558,3841.2,1.45775682041937578064659893351558
99,3921.45980246619504572356677844725027,3920.0,1.45980246619504572356677844725027
100,4001.06182752341392440828875278464770,3999.6,1.46182752341392440828875278464770
101,4081.46383240256804045889825736265820,4080.0,1.46383240256804045889825736265820
102,4162.66581750198985929379587387082835,4161.2,1.46581750198985929379587387082835
103,4244.66778320832798467368513222508780,4243.2,1.46778320832798467368513222508780
104,4327.46972989699981636517427784712091,4326.0,1.46972989699981636517427784712091
105,4411.07165793262249183848101614219792,4409.6,1.47165793262249183848101614219792
106,4495.47356766942334915348588370166988,4494.0,1.47356766942334915348588370166988
107,4580.67545945163107010642447232621755,4579.2,1.47545945163107010642447232621755
108,4666.67733361384858346995430886716602,4665.2,1.47733361384858346995430886716602
109,4753.47919048140873956579809700414334,4752.0,1.47919048140873956579809700414334
110,4841.08103037071370498903989945478226,4839.6,1.48103037071370498903989945478226
111,4929.48285358955896044195236885202379,4928.0,1.48285358955896044195236885202379
112,5018.68466043744273520159963066917916,5017.2,1.48466043744273520159963066917916
113,5108.68645120586165620966636093597338,5107.2,1.48645120586165620966636093597338
114,5199.48822617859334101520725521246843,5198.0,1.48822617859334101520725521246843
115,5291.08998563196662335250851115738419,5289.6,1.48998563196662335250851115738419
116,5383.49172983512005180460474377982778,5382.0,1.49172983512005180460474377982778
117,5476.69345905024927028998795007590115,5475.2,1.49345905024927028998795007590115
118,5570.69517353284384807893961663958705,5569.2,1.49517353284384807893961663958705
119,5665.49687353191409333220073451640973,5664.0,1.49687353191409333220073451640973
120,5761.09855929020835831245950944259398,5759.6,1.49855929020835831245950944259398
121,5857.50023104442130615189234325723062,5856.0,1.50023104442130615189234325723062
122,5954.70188902539359014586085489048121,5953.2,1.50188902539359014586085489048121
123,6052.70353345830336434993572751156499,6051.2,1.50353345830336434993572751156499
124,6151.50516456285002657760949036005989,6150.0,1.50516456285002657760949036005989
125,6251.10678255343056532979727455415854,6249.6,1.50678255343056532979727455415854
126,6351.50838763930886698992697050754841,6350.0,1.50838763930886698992697050754841
127,6452.70998002477831904053385264784771,6451.2,1.50998002477831904053385264784771
128,6554.71155990931802247008485539700819,6553.2,1.51155990931802247008485539700819
129,6657.51312748774291446551953494032883,6656.0,1.51312748774291446551953494032883
130,6761.11468295034808410412754175194843,6759.6,1.51468295034808410412754175194843
131,6865.51622648304754835426431018801239,6864.0,1.51622648304754835426431018801239
132,6970.71775826750774071720589345107995,6969.2,1.51775826750774071720589345107995
133,7076.71927848127595306085990927224984,7075.2,1.51927848127595306085990927224984
134,7183.52078729790395992009071777485191,7182.0,1.52078729790395992009071777485191
135,7291.12228488706703643007444468012534,7289.6,1.52228488706703643007444468012534
136,7399.52377141467857737156912246552674,7398.0,1.52377141467857737156912246552674
137,7508.72524704300051149904161904474806,7507.2,1.52524704300051149904161904474806
138,7618.72671193074969171060244065490300,7617.2,1.52671193074969171060244065490300
139,7729.52816623320043951279385442901167,7728.0,1.52816623320043951279385442901167
140,7841.12961010228340678730854861560745,7839.6,1.52961010228340678730854861560745
141,7953.53104368668091330922605248139851,7952.0,1.53104368668091330922605248139851
142,8066.73246713191891039308706621844251,8065.2,1.53246713191891039308706621844251
143,8180.73388058045571239295660568139098,8179.2,1.53388058045571239295660568139098
144,8295.53528417176763060298980940459173,8294.0,1.53528417176763060298980940459173
145,8411.13667804243163991725522634266953,8409.6,1.53667804243163991725522634266953
146,8527.53806232620520073881941398226159,8526.0,1.53806232620520073881941398226159
147,8644.73943715410335042513077750236861,8643.2,1.53943715410335042513077750236861
148,8762.74080265447317959870709722432962,8761.2,1.54080265447317959870709722432962
149,8881.54215895306579512405703859487832,8880.0,1.54215895306579512405703859487832
150,9001.14350617310587339168870475970596,8999.6,1.54350617310587339168870475970596
151,9121.54484443535889982343444836453397,9120.0,1.54484443535889982343444836453397
152,9242.74617385819618489823664861334376,9241.2,1.54617385819618489823664861334376
153,9364.74749455765774564806240118771422,9363.2,1.54749455765774564806240118771422
154,9487.54880664751313652316301055633299,9486.0,1.54880664751313652316301055633299
155,9611.15011023932030786264458895230821,9609.6,1.55011023932030786264458895230821
156,9735.55140544248256983668583264597805,9734.0,1.55140544248256983668583264597805
157,9860.75269236430373290697903813850637,9859.2,1.55269236430373290697903813850637
158,9986.75397111004149662346803927988190,9985.2,1.55397111004149662346803927988190
159,10113.5552417829591504301886330181476,10112.0,1.5552417829591504301886330181476
160,10241.1565044843756528177214090938831,10239.6,1.5565044843756528177214090938831
161,10369.5577593137141473183481422129785,10368.0,1.5577593137141473183481422129785
162,10498.7590063685489748049832983151915,10497.2,1.5590063685489748049832983151915
163,10628.7602457446512369471501456982493,10627.2,1.5602457446512369471501456982493
164,10759.5614775360329654605666314879628,10758.0,1.5614775360329654605666314879628
165,10891.1627018349899457505288393004983,10889.6,1.5627018349899457505288393004983
166,11023.5639187321432454646509072902057,11022.0,1.5639187321432454646509072902057
167,11156.7651283164794951872510239085975,11155.2,1.5651283164794951872510239085975
168,11290.7663306753899639642671643832154,11289.2,1.5663306753899639642671643832154
169,11425.5675258947084747207632755222401,11424.0,1.5675258947084747207632755222401
170,11561.1687140587481993141117683665905,11559.6,1.5687140587481993141117683665905
171,11697.5698952503373734172832206359047,11696.0,1.5698952503373734172832206359047
172,11834.7710695508539690988712925850807,11833.2,1.5710695508539690988712925850807
173,11972.7722370402593605021537359501187,11971.2,1.5722370402593605021537359501187
174,12111.5733977971310184666735411083548,12110.0,1.5733977971310184666735411083548
175,12251.1745518986942680772433021159911,12249.6,1.5745518986942680772433021159911
176,12391.5756994208531388466956496215361,12390.0,1.5756994208531388466956496215361
177,12532.7768404382203407928872567834620,12531.2,1.5768404382203407928872567834620
178,12674.7779750241463955643225895063542,12673.2,1.5779750241463955643225895063542
179,12817.5791032507479490593132013442381,12816.0,1.5791032507479490593132013442381
180,12961.1802251889352964850414466982810,12959.6,1.5802251889352964850414466982810
181,13105.5813409084391425050846432566063,13104.0,1.5813409084391425050846432566063
182,13250.7824504778366241707549786275185,13249.2,1.5824504778366241707549786275185
183,13396.7835539645766196854989064451383,13395.2,1.5835539645766196854989064451383
184,13543.5846514350043672438618902803430,13542.0,1.5846514350043672438618902803430
185,13691.1857429543854157531114707419175,13689.6,1.5857429543854157531114707419175
186,13839.5868285869289284061076571710945,13838.0,1.5868285869289284061076571710945
187,13988.7879083958103629058875498270241,13987.2,1.5879083958103629058875498270241
188,14138.7889824431935437782479944741063,14137.2,1.5889824431935437782479944741063
189,14289.5900507902521505033832281680174,14288.0,1.5900507902521505033832281680174
190,14441.1911134971906371176213828965171,14439.6,1.5911134971906371176213828965171
191,14593.5921706232646025077773702476296,14592.0,1.5921706232646025077773702476296
192,14746.7932222268006277802902759224103,14745.2,1.5932222268006277802902759224103
193,14900.7942683652155990089576524658041,14899.2,1.5942683652155990089576524658041
194,15055.5953090950355287020132165282859,15054.0,1.5953090950355287020132165282859
195,15211.1963444719138939208699989788596,15209.6,1.5963444719138939208699989788596
196,15367.5973745506495047423915180605978,15366.0,1.5973745506495047423915180605978
197,15524.7983993852039174399742700062748,15523.2,1.5983993852039174399742700062748
198,15682.7994190287184065453826008630863,15681.2,1.5994190287184065453826008630863
199,15841.6004335335305086251514201983484,15840.0,1.6004335335305086251514201983484
200,16001.2014429511901517117176818305178,15999.6,1.6014429511901517117176818305178
201,16161.6024473324753813656593843327493,16160.0,1.6024473324753813656593843327493
202,16322.8034467274076967451534019365492,16321.2,1.6034467274076967451534019365492
203,16484.8044411852670073373340345679220,16483.2,1.6044411852670073373340345679220
204,16647.6054307546062219664138458619262,16646.0,1.6054307546062219664138458619262
205,16811.2064154832654800438786589103550,16809.6,1.6064154832654800438786589103550
206,16975.6073954183860380794536246429135,16974.0,1.6073954183860380794536246429135
207,17140.8083706064238173234657861272669,17139.2,1.6083706064238173234657861272669
208,17306.8093410931626267620076929202037,17305.2,1.6093410931626267620076929202037
209,17473.6103069237270672077296012282964,17472.0,1.6103069237270672077296012282964
210,17641.2112681425951279818592513510498,17639.6,1.6112681425951279818592513510498
211,17809.6122247936104835464055294954355,17808.0,1.6122247936104835464055294954355
212,17978.8131769199945003136680546080838,17977.2,1.6131769199945003136680546080838
213,18148.8141245643579580109405913408347,18147.2,1.6141245643579580109405913408347
214,18319.6150677687125005760916965877376,18318.0,1.6150677687125005760916965877376
215,18491.2160065744818157902472781495312,18489.6,1.6160065744818157902472781495312
216,18663.6169410225125576020254037916109,18662.0,1.6169410225125576020254037916109
217,18836.8178711530850151023588111251403,18835.2,1.6178711530850151023588111251403
218,19010.8187970059235371223478204406378,19009.2,1.6187970059235371223478204406378
219,19185.6197186202067157270725006814726,19184.0,1.6197186202067157270725006814726
220,19361.2206360345773411134846210541712,19359.6,1.6206360345773411134846210541712
221,19537.6215492871521258146617502983389,19536.0,1.6215492871521258146617502983389
222,19714.8224584155312154077815840134507,19713.2,1.6224584155312154077815840134507
223,19892.8233634568074792866400277957795,19891.2,1.6233634568074792866400277957795
224,20071.6242644475755965580035801971080,20070.0,1.6242644475755965580035801971080
225,20251.2251614239409396183307342154413,20249.6,1.6251614239409396183307342154413
226,20431.6260544215282589487952688456667,20430.0,1.6260544215282589487952688456667
227,20612.8269434754901777714500600760160,20611.2,1.6269434754901777714500600760160
228,20794.8278286205154983767225677401897,20793.2,1.6278286205154983767225677401897
229,20977.6287098908373272743773279796984,20976.0,1.6287098908373272743773279796984
230,21161.2295873202410238541737019814465,21159.6,1.6295873202410238541737019814465
231,21345.6304609420719743454731936198648,21344.0,1.6304609420719743454731936198648
232,21530.8313307892432014847008537830153,21529.2,1.6313307892432014847008537830153
233,21716.8321968942428048761488433391996,21715.2,1.6321968942428048761488433391996
234,21903.6330592891412481921714608623724,21902.0,1.6330592891412481921714608623724
235,22091.2339180055984863838549960379636,22089.6,1.6339180055984863838549960379636
236,22279.6347730748709426009137796212373,22278.0,1.6347730748709426009137796212373
237,22468.8356245278183384409223266146861,22467.2,1.6356245278183384409223266146861
238,22658.8364723949103792588770631556922,22657.2,1.6364723949103792588770631556922
