Eigenstate,Energy,Kinetic Energy,Potential Energy
1,0.500000000056283729613599268196280783,0.0,0.500000000056283729613599268196280783
2,1.84623093801850573736401026155973911,1.2,0.64623093801850573736401026155973911
3,3.93633761078415843608765044588102772,3.2,0.73633761078415843608765044588102772
4,6.79966528006205646258420248737464526,6.0,0.79966528006205646258420248737464526
5,10.4480465791793729396334113482608396,9.6,0.8480465791793729396334113482608396
6,14.8870660028954048138551118360341819,14.0,0.8870660028954048138551118360341819
7,20.1197208326504987653305928270664573,19.2,0.9197208326504987653305928270664573
8,26.1477838548227579787370153112179109,25.2,0.9477838548227579787370153112179109
9,32.9723835684191456730382208130740929,32.0,0.9723835684191456730382208130740929
10,40.5942802275886772240976164065350862,39.6,0.9942802275886772240976164065350862
11,49.0140094024727042934827729968926134,48.0,1.0140094024727042934827729968926134
12,58.2319621883760948781927096967912926,57.2,1.0319621883760948781927096967912926
13,68.2484327153648514685501468225483555,67.2,1.0484327153648514685501468225483555
14,79.0636476811222877468495766290206375,78.0,1.0636476811222877468495766290206375
15,90.6777854667632226245458970131757248,89.6,1.0777854667632226245458970131757248
16,103.090988941704431123923827827738448,102.0,1.090988941704431123923827827738448
17,116.303374297126152597019176707016248,115.2,1.103374297126152597019176707016248
18,130.315037296978292880997471660718502,129.2,1.115037296978292880997471660718502
19,145.126057801084403838515249059117224,144.0,1.126057801084403838515249059117224
20,160.736503102775621202815751263936636,159.6,1.136503102775621202815751263936636
21,177.146430434972362796718443322468882,176.0,1.146430434972362796718443322468882
22,194.355888881343069449833092414170558,193.2,1.155888881343069449833092414170558
23,212.364920854240730252915108444268969,211.2,1.164920854240730252915108444268969
24,231.173563252103305181289643239959121,230.0,1.173563252103305181289643239959121
25,250.781848376249651851124575999081030,249.6,1.181848376249651851124575999081030
26,271.189804664687113560276903057308876,270.0,1.189804664687113560276903057308876
27,292.397457285074095357743490729693509,291.2,1.197457285074095357743490729693509
28,314.404828618079104072176352323964962,313.2,1.204828618079104072176352323964962
29,337.211938654582700405328937739733658,336.0,1.211938654582700405328937739733658
30,360.818805324519323624824988836326763,359.6,1.218805324519323624824988836326763
31,385.225444771010010889008816820000655,384.0,1.225444771010010889008816820000655
32,410.431871580359133650791032410325124,409.2,1.231871580359133650791032410325124
33,436.438098976178625782461990355994774,435.2,1.238098976178625782461990355994774
34,463.244138984152631796699158388969431,462.0,1.244138984152631796699158388969431
35,490.850002572616308472866653028867578,489.6,1.250002572616308472866653028867578
36,519.255699773089034318843953253103566,518.0,1.255699773089034318843953253103566
37,548.461239784098196749876033084905070,547.2,1.261239784098196749876033084905070
38,578.466631060999308122626877653630127,577.2,1.266631060999308122626877653630127
39,609.271881394000353112973630423033344,608.0,1.271881394000353112973630423033344
40,640.876997976202449142437333929622084,639.6,1.276997976202449142437333929622084
41,673.281987463152151284351636514628242,672.0,1.281987463152151284351636514628242
42,706.486856025145740479308925252451751,705.2,1.286856025145740479308925252451751
43,740.491609393319347544463216115471048,739.2,1.291609393319347544463216115471048
44,775.296252900390671445730927651098255,774.0,1.296252900390671445730927651098255
45,810.900791516780480732907233936408654,809.6,1.300791516780480732907233936408654
46,847.305229882728950755101570751005076,846.0,1.305229882728950755101570751005076
47,884.509572336928412661548066801472178,883.2,1.309572336928412661548066801472178
48,922.513822942116503828585840683175555,921.2,1.313822942116503828585840683175555
49,961.317985508009046809697244780224044,960.0,1.317985508009046809697244780224044
50,1000.92206361189786119183065484158616,999.6,1.32206361189786119183065484158616
51,1041.32606061719324577875522764428179,1040.0,1.32606061719324577875522764428179
52,1082.52997969015252330789008850115897,1081.2,1.32997969015252330789008850115897
53,1124.53382381500358978849984490726734,1123.2,1.33382381500358978849984490726734
54,1167.33759580764484941768845906382312,1166.0,1.33759580764484941768845906382312
55,1210.94129832807944053810850640783687,1209.6,1.34129832807944053810850640783687
56,1255.34493389172158353117503512482148,1254.0,1.34493389172158353117503512482148
57,1300.54850487969568257445199509018748,1299.2,1.34850487969568257445199509018748
58,1346.55201354823401600558658534638073,1345.2,1.35201354823401600558658534638073
59,1393.35546203726609608788985898547234,1392.0,1.35546203726609608788985898547234
60,1440.95885237828175446495859593989738,1439.6,1.35885237828175446495859593989738
61,1489.36218650154044536422758950573017,1488.0,1.36218650154044536422758950573017
62,1538.56546624269095760422717954560828,1537.2,1.36546624269095760422717954560828
63,1588.56869334885848457129933313047467,1587.2,1.36869334885848457129933313047467
64,1639.37186948424968885160282983777349,1638.0,1.37186948424968885160282983777349
65,1690.97499623532086336426475233288641,1689.6,1.37499623532086336426475233288641
66,1743.37807511554944350248071472931849,1742.0,1.37807511554944350248071472931849
67,1796.58110756984486249804004011465068,1795.2,1.38110756984486249804004011465068
68,1850.58409497863098606394313837562071,1849.2,1.38409497863098606394313837562071
69,1905.38703866162904969905123962931503,1904.0,1.38703866162904969905123962931503
70,1960.98993988136709377044403652380605,1959.6,1.38993988136709377044403652380605
71,2017.39279984643929278542978321420440,2016.0,1.39279984643929278542978321420440
72,2074.59561971453627702277183493775999,2073.2,1.39561971453627702277183493775999
73,2132.59840059526549168629230388171216,2131.2,1.39840059526549168629230388171216
74,2191.40114355277881989546023109090318,2190.0,1.40114355277881989546023109090318
75,2251.00384960822306472646865904533472,2249.6,1.40384960822306472646865904533472
76,2311.40651974202743596054937516215691,2310.0,1.40651974202743596054937516215691
77,2372.60915489604088479785602772892098,2371.2,1.40915489604088479785602772892098
78,2434.61175597553096399706586834753791,2433.2,1.41175597553096399706586834753791
79,2497.41432385105484408085801395246073,2496.0,1.41432385105484408085801395246073
80,2561.01685936021217812178146023367562,2559.6,1.41685936021217812178146023367562
81,2625.41936330928865828154956985091475,2624.0,1.41936330928865828154956985091475
82,2690.62183647479834582624397273885638,2689.2,1.42183647479834582624397273885638
83,2756.62427960493216760612107179827171,2755.2,1.42427960493216760612107179827171
84,2823.42669342091934769699820587113742,2822.0,1.42669342091934769699820587113742
85,2891.02907861830798362402276755393442,2889.6,1.42907861830798362402276755393442
86,2959.43143586817046072323803125169539,2958.0,1.43143586817046072323803125169539
87,3028.63376581823894072555978357010477,3027.2,1.43376581823894072555978357010477
88,3098.63606909397573727004189875794293,3097.2,1.43606909397573727004189875794293
89,3169.43834629958300755114746161657009,3168.0,1.43834629958300755114746161657009
90,3241.04059801895584608801284926140204,3239.6,1.44059801895584608801284926140204
91,3313.44282481658254515164142292878837,3312.0,1.44282481658254515164142292878837
92,3386.64502723839549808842420220309518,3385.2,1.44502723839549808842420220309518
93,3460.64720581257595952332944668054101,3459.2,1.44720581257595952332944668054101
94,3535.44936105031563349736476932030877,3534.0,1.44936105031563349736476932030877
95,3611.05149344653783943988656550306513,3609.6,1.45149344653783943988656550306513
96,3687.45360348058080405421485588486841,3686.0,1.45360348058080405421485588486841
97,3764.65569161684544285290243600278266,3763.2,1.45569161684544285290243600278266
98,3842.65775830540982220471198447499125,3841.2,1.45775830540982220471198447499125
99,3921.45980398261233928316623965971499,3920.0,1.45980398261233928316623965971499
100,4001.06182907160551096611982224026215,3999.6,1.46182907160551096611982224026215
101,4081.46383398288213343164709407599203,4080.0,1.46383398288213343164709407599203
102,4162.66581911477544862081931058784460,4161.2,1.46581911477544862081931058784460
103,4244.66778485393484582433132902776800,4243.2,1.46778485393484582433132902776800
104,4327.46973157577851938522808359448337,4326.0,1.46973157577851938522808359448337
105,4411.07165964492441043622371420945287,4409.6,1.47165964492441043622371420945287
106,4495.47356941560066982586300056261530,4494.0,1.47356941560066982586300056261530
107,4580.67546123203680130581889761290377,4579.2,1.47546123203680130581889761290377
108,4666.67733542883656481206615064425845,4665.2,1.47733542883656481206615064425845
109,4753.47919233133365107913633107787642,4752.0,1.47919233133365107913633107787642
110,4841.08103225593107640653498955107146,4839.6,1.48103225593107640653498955107146
111,4929.48285551042518053520284980810733,4928.0,1.48285551042518053520284980810733
112,5018.68466239431506115826974381895140,5017.2,1.48466239431506115826974381895140
113,5108.68645319909822305455593146482604,5107.2,1.48645319909822305455593146482604
114,5199.48822820855317107551892495602372,5198.0,1.48822820855317107551892495602372
115,5291.08998769900963576784173777902823,5289.6,1.48998769900963576784173777902823
116,5383.49173193960707208221002767395353,5382.0,1.49173193960707208221002767395353
117,5476.69346119254203990581911743620625,5475.2,1.49346119254203990581911743620625
118,5570.69517571330503412504606293587209,5569.2,1.49517571330503412504606293587209
119,5665.49687575090729821100598465385373,5664.0,1.49687575090729821100598465385373
120,5761.09856154809812947847687119590573,5759.6,1.49856154809812947847687119590573
121,5857.50023334157314590143263946611716,5856.0,1.50023334157314590143263946611716
122,5954.70189136217396545529191749867629,5953.2,1.50189136217396545529191749867629
123,6052.70353583507971676305769520330342,6051.2,1.50353583507971676305769520330342
124,6151.50516697999078214271456527092262,6150.0,1.50516697999078214271456527092262
125,6251.10678501130514458698726811759496,6249.6,1.50678501130514458698726811759496
126,6351.50839013828769500926662414711936,6350.0,1.50839013828769500926662414711936
127,6452.70998256523283551162263274068392,6451.2,1.50998256523283551162263274068392
128,6554.71156249162069184363479358188078,6553.2,1.51156249162069184363479358188078
129,6657.51313011226723614753148200423307,6656.0,1.51313011226723614753148200423307
130,6761.11468561746860270326309156728684,6759.6,1.51468561746860270326309156728684
131,6865.51622919313986398301563452239650,6864.0,1.51622919313986398301563452239650
132,6970.71776102094851934747103580201965,6969.2,1.51776102094851934747103580201965
133,7076.71928127844293693453562197178276,7075.2,1.51928127844293693453562197178276
134,7183.52079013917597801530064750859333,7182.0,1.52079013917597801530064750859333
135,7291.12228777282401498365543734687643,7289.6,1.52228777282401498365543734687643
136,7399.52377434530155045844370672420233,7398.0,1.52377434530155045844370672420233
137,7508.72525001887163166911014365013026,7507.2,1.52525001887163166911014365013026
138,7618.72671495225224068379376945730753,7617.2,1.52671495225224068379376945730753
139,7729.52816930071883893291902743667629,7728.0,1.52816930071883893291902743667629
140,7841.12961321620322903536738849722002,7839.6,1.52961321620322903536738849722002
141,7953.53104684738889237682217975230203,7952.0,1.53104684738889237682217975230203
142,8066.73247033980295281661276741533292,8065.2,1.53247033980295281661276741533292
143,8180.73388383590490824921453022597174,8179.2,1.53388383590490824921453022597174
144,8295.53528747517226456692446678439912,8294.0,1.53528747517226456692446678439912
145,8411.13668139418320238247315176285510,8409.6,1.53668139418320238247315176285510
146,8527.53806572669639900158274748603022,8526.0,1.53806572669639900158274748603022
147,8644.73944060372811993251536937026885,8643.2,1.53944060372811993251536937026885
148,8762.74080615362669526162200430866347,8761.2,1.54080615362669526162200430866347
149,8881.54216250214448269582896608105282,8880.0,1.54216250214448269582896608105282
150,9001.14350977250742091292067546982112,8999.6,1.54350977250742091292067546982112
151,9121.54484808548226913385507869309528,9120.0,1.54484808548226913385507869309528
152,9242.74617755944162321626230981407690,9241.2,1.54617755944162321626230981407690
153,9364.74749831042679721880132268580504,9363.2,1.54749831042679721880132268580504
154,9487.54881045220865433559701275734714,9486.0,1.54881045220865433559701275734714
155,9611.15011409634646543673077468695737,9609.6,1.55011409634646543673077468695737
156,9735.55140935224487308112761488554566,9734.0,1.55140935224487308112761488554566
157,9860.75269632720903204842242351633903,9859.2,1.55269632720903204842242351633903
158,9986.75397512649799820788629691473006,9985.2,1.55397512649799820788629691473006
159,10113.5552458533764293972254519910176,10112.0,1.5552458533764293972254519910176
160,10241.1565086091646646487699308811106,10239.6,1.5565086091646646487699308811106
161,10369.5577634932872402591503644646510,10368.0,1.5577634932872402591503644646510
162,10498.7590106033199021635417973861764,10497.2,1.5590106033199021635417973861764
163,10628.7602500350351694677512641802059,10627.2,1.5602500350351694677512641802059
164,10759.5614818824465037747221845156364,10758.0,1.5614818824465037747221845156364
165,10891.1627062378511329056508630014995,10889.6,1.5627062378511329056508630014995
166,11023.5639231918715795312814816962634,11022.0,1.5639231918715795312814816962634
167,11156.7651328334959419456772649897105,11155.2,1.5651328334959419456772649897105
168,11290.7663352501169696713594692607212,11289.2,1.5663352501169696713594692607212
169,11425.5675305275699789578825267770986,11424.0,1.5675305275699789578825267770986
170,11561.1687187501696479169399548842462,11559.6,1.5687187501696479169399548842462
171,11697.5699000007457314884395222008260,11696.0,1.5699000007457314884395222008260
172,11834.7710743606777341041845047344630,11833.2,1.5710743606777341041845047344630
173,11972.7722419099285754514699497406340,11971.2,1.5722419099285754514699497406340
174,12111.5734027270772851800868789171574,12110.0,1.5734027270772851800868789171574
175,12251.1745568893507605376460036597495,12249.6,1.5745568893507605376460036597495
176,12391.5757044726546166395525647214157,12390.0,1.5757044726546166395525647214157
177,12532.7768455516031626341487599665454,12531.2,1.5768455516031626341487599665454
178,12674.7779801995485329173988203636211,12673.2,1.5779801995485329173988203636211
179,12817.5791084886089998420417983144087,12816.0,1.5791084886089998420417983144087
180,12961.1802304896964988675899685675438,12959.6,1.5802304896964988675899685675438
181,13105.5813462725433887997384434406026,13104.0,1.5813462725433887997384434406026
182,13250.7824559057284748145505425152063,13249.2,1.5824559057284748145505425152063
183,13396.7835594567023173166724269885970,13395.2,1.5835594567023173166724269885970
184,13543.5846569918118508730924232761412,13542.0,1.5846569918118508730924232761412
185,13691.1857485763243350305481059896476,13689.6,1.5857485763243350305481059896476
186,13839.5868342744506579851796376549409,13838.0,1.5868342744506579851796376549409
187,13988.7879141493680169049068494878707,13987.2,1.5879141493680169049068494878707
188,14138.7889882632419903408237958818445,14137.2,1.5889882632419903408237958818445
189,14289.5900566772480264586781592436458,14288.0,1.5900566772480264586781592436458
190,14441.1911194515923627414899269507003,14439.6,1.5911194515923627414899269507003
191,14593.5921766455323963858373558018692,14592.0,1.5921766455323963858373558018692
192,14746.7932283173965217739892350258116,14745.2,1.5932283173965217739892350258116
193,14900.7942745246034533257067005664680,14899.2,1.5942745246034533257067005664680
194,15055.5953153236810470704720728723589,15054.0,1.5953153236810470704720728723589
195,15211.1963507702846388724779756346225,15209.6,1.5963507702846388724779756346225
196,15367.5973809192149130002507225987896,15366.0,1.5973809192149130002507225987896
197,15524.7984058244353154162026207491608,15523.2,1.5984058244353154162026207491608
198,15682.7994255390890259480658785598133,15681.2,1.5994255390890259480658785598133
199,15841.6004401155155021760355289713745,15840.0,1.6004401155155021760355289713745
200,16001.2014496052666089757940372890634,15999.6,1.6014496052666089757940372890634
201,16161.6024540591223446938082396792987,16160.0,1.6024540591223446938082396792987
202,16322.8034535271061773310227917756885,16321.2,1.6034535271061773310227917756885
203,16484.8044480585000013896436756922917,16483.2,1.6044480585000013896436756922917
204,16647.6054377018587269978864701840406,16646.0,1.6054377018587269978864701840406
205,16811.2064225050245112780134922232055,16809.6,1.6064225050245112780134922232055
206,16975.6074025151406449763699597615980,16974.0,1.6074025151406449763699597615980
207,17140.8083777786651002260576968471724,17139.2,1.6083777786651002260576968471724
208,17306.8093483413837536636638096670797,17305.2,1.6093483413837536636638096670797
209,17473.6103142484232906428854157378057,17472.0,1.6103142484232906428854157378057
210,17641.2112755442638020406634340958237,17639.6,1.6112755442638020406634340958237
211,17809.6122322727510810147946476334353,17808.0,1.6122322727510810147946476334353
212,17978.8131844771086299401585755659399,17977.2,1.6131844771086299401585755659399
213,18148.8141321999493819014614202667033,18147.2,1.6141321999493819014614202667033
214,18319.6150754832871517181940788268404,18318.0,1.6150754832871517181940788268404
215,18491.2160143685478157080438901195501,18489.6,1.6160143685478157080438901195501
216,18663.6169488965802341432251117480285,18662.0,1.6169488965802341432251117480285
217,18836.8178791076669203587781222062019,18835.2,1.6178791076669203587781222062019
218,19010.8188050415344654852955320311067,19009.2,1.6188050415344654852955320311067
219,19185.6197267373637220790192122738720,19184.0,1.6197267373637220790192122738720
220,19361.2206442337997591574440565582600,19359.6,1.6206442337997591574440565582600
221,19537.6215575689615865427266965350570,19536.0,1.6215575689615865427266965350570
222,19714.8224667804516657102730563617660,19713.2,1.6224667804516657102730563617660
223,19892.8233719053652007033445338115814,19891.2,1.6233719053652007033445338115814
224,20071.6242729802992241729892703241269,20070.0,1.6242729802992241729892703241269
225,20251.2251700413614810998503955100005,20249.6,1.6251700413614810998503955100005
226,20431.6260631241791137358003182595235,20430.0,1.6260631241791137358003182595235
227,20612.8269522639071564082568047437445,20611.2,1.6269522639071564082568047437445
228,20794.8278374952368419973893332822417,20793.2,1.6278374952368419973893332822417
229,20977.6287188524037272383684222618745,20976.0,1.6287188524037272383684222618745
230,21161.2295963691956415349038501855922,21159.6,1.6295963691956415349038501855922
231,21345.6304700789604610733438803004247,21344.0,1.6304700789604610733438803004247
232,21530.8313400146137186462583712093963,21529.2,1.6313400146137186462583712093963
233,21716.8322062086460441710119586409363,21715.2,1.6322062086460441710119586409363
234,21903.6330686931304520493955648424906,21902.0,1.6330686931304520493955648424906
235,22091.2339274997294685394180847751226,22089.6,1.6339274997294685394180847751226
236,22279.6347826597021088380293220026501,22278.0,1.6347826597021088380293220026501
237,22468.8356342039107074949027808309828,22467.2,1.6356342039107074949027808309828
238,22658.8364821628276038882921165687402,22657.2,1.6364821628276038882921165687402
