Eigenstate,Energy,Kinetic Energy,Potential Energy
1,0.500000000367503331192243550722922630,0.0,0.500000000367503331192243550722922630
2,1.84623094005001522527870022676647159,1.2,0.64623094005001522527870022676647159
3,3.93633761675169099775949352805114704,3.2,0.73633761675169099775949352805114704
4,6.79966529249213738885890238065243579,6.0,0.79966529249213738885890238065243579
5,10.4480466007116820341953460685354687,9.6,0.8480466007116820341953460685354687
6,14.8870660362163681207820144002716691,14.0,0.8870660362163681207820144002716691
7,20.1197208804689072000463338979083589,19.2,0.9197208804689072000463338979083589
8,26.1477839198596797203559511031019803,25.2,0.9477839198596797203559511031019803
9,32.9723836534033093733940801480762462,32.0,0.9723836534033093733940801480762462
10,40.5942803352541969972136984374313083,39.6,0.9942803352541969972136984374313083
11,49.0140095355579072499871494735228880,48.0,1.0140095355579072499871494735228880
12,58.2319623496229106435226866897598468,57.2,1.0319623496229106435226866897598468
13,68.2484329075185077933614666055324776,67.2,1.0484329075185077933614666055324776
14,79.0636479069311824226941956521788507,78.0,1.0636479069311824226941956521788507
15,90.6777857289789019124116368760591188,89.6,1.0777857289789019124116368760591188
16,103.090989243081635242481834157751279,102.0,1.090989243081635242481834157751279
17,116.303374640422904988070753074752931,115.2,1.103374640422904988070753074752931
18,130.315037684956018990635205408356979,129.2,1.115037684956018990635205408356979
19,145.126058236508070389690391628137410,144.0,1.126058236508070389690391628137410
20,160.736503588413890084067302639155606,159.6,1.136503588413890084067302639155606
21,177.146430973597755645147472286784709,176.0,1.146430973597755645147472286784709
22,194.355889475732140252115224897515665,193.2,1.155889475732140252115224897515665
23,212.364921507174244102593020636776815,211.2,1.164921507174244102593020636776815
24,231.173563966366421875156863086654795,230.0,1.173563966366421875156863086654795
25,250.781849154632113379108431106463374,249.6,1.181849154632113379108431106463374
26,271.189805509983434801529525949940732,270.0,1.189805509983434801529525949940732
27,292.397458200083757478263278684578038,291.2,1.197458200083757478263278684578038
28,314.404829605606750250409201261095700,313.2,1.204829605606750250409201261095700
29,337.211939717438333607716017072461509,336.0,1.211939717438333607716017072461509
30,360.818806465518506223773704760209533,359.6,1.218806465518506223773704760209533
31,385.225445992974065968462809280560268,384.0,1.225445992974065968462809280560268
32,410.431872886115347884421568311834405,409.2,1.231872886115347884421568311834405
33,436.438100368560453799963434095314030,435.2,1.238100368560453799963434095314030
34,463.244140465999901977197895714763904,462.0,1.244140465999901977197895714763904
35,490.850004146775430122805861890059188,489.6,1.250004146775430122805861890059188
36,519.255701442413206206158592204396886,518.0,1.255701442413206206158592204396886
37,548.461241551447616977759804639558857,547.2,1.261241551447616977759804639558857
38,578.466632929241385335404596927878420,577.2,1.266632929241385335404596927878420
39,609.271883366009919034046042594852836,608.0,1.271883366009919034046042594852836
40,640.877000054861972450349839433013351,639.6,1.277000054861972450349839433013351
41,673.281989651351952838048657626093128,672.0,1.281989651351952838048657626093128
42,706.486858325784209907799469833209878,705.2,1.286858325784209907799469833209878
43,740.491611809303161219614569897426674,739.2,1.291611809303161219614569897426674
44,775.296255434635011859862204841194397,774.0,1.296255434635011859862204841194397
45,810.900794172209257305379831454345782,809.6,1.300794172209257305379831454345782
46,847.305232662275022094282766156690574,846.0,1.305232662275022094282766156690574
47,884.509575243533810310423035170294778,883.2,1.309575243533810310423035170294778
48,922.513825978732657523966327782060116,921.2,1.313825978732657523966327782060116
49,961.317988677597011286463201534052781,960.0,1.317988677597011286463201534052781
50,1000.92206691742854456497942774022729,999.6,1.32206691742854456497942774022729
51,1041.32606406164763953724925119923001,1040.0,1.32606406164763953724925119923001
52,1082.52998327652193395540999896450437,1081.2,1.32998327652193395540999896450437
53,1124.53382754628987216724519215297309,1123.2,1.33382754628987216724519215297309
54,1167.33759968686064175233764590958820,1166.0,1.33759968686064175233764590958820
55,1210.94130235824840123796532489062211,1209.6,1.34130235824840123796532489062211
56,1255.34493807587862978940251933396830,1254.0,1.34493807587862978940251933396830
57,1300.54850922088723080413256802775197,1299.2,1.34850922088723080413256802775197
58,1346.55201804951822415316133849099637,1345.2,1.35201804951822415316133849099637
59,1393.35546670171310786531960499378447,1392.0,1.35546670171310786531960499378447
60,1440.95885720897394554272678860891546,1439.6,1.35885720897394554272678860891546
61,1489.36219150157267156807044679227420,1488.0,1.36219150157267156807044679227420
62,1538.56547141517080515923511039357294,1537.2,1.36547141517080515923511039357294
63,1588.56869869690652243778795438437510,1587.2,1.36869869690652243778795438437510
64,1639.37187501099972319790556667987331,1638.0,1.37187501099972319790556667987331
65,1690.97500194392019422235553345489257,1689.6,1.37500194392019422235553345489257
66,1743.37808100915912365309322196415300,1742.0,1.37808100915912365309322196415300
67,1796.58111365163995863271558038069577,1795.2,1.38111365163995863271558038069577
68,1850.58410125180084227221094590795796,1849.2,1.38410125180084227221094590795796
69,1905.38704512937755332972756309708190,1904.0,1.38704512937755332972756309708190
70,1960.98994654691294371682566542222999,1959.6,1.38994654691294371682566542222999
71,2017.39280671301627024496334764957158,2016.0,1.39280671301627024496334764957158
72,2074.59562678539351878259358461866831,2073.2,1.39562678539351878259358461866831
73,2132.59840787366776598686473226183672,2131.2,1.39840787366776598686473226183672
74,2191.40115104200680492537466507301159,2190.0,1.40115104200680492537466507301159
75,2251.00385731157362980234426306765166,2249.6,1.40385731157362980234426306765166
76,2311.40652766281392544683393751818422,2310.0,1.40652766281392544683393751818422
77,2372.60916303759340482222911847057337,2371.2,1.40916303759340482222911847057337
78,2434.61176434119667201805626708528630,2433.2,1.41176434119667201805626708528630
79,2497.41433244419824136521905470540667,2496.0,1.41433244419824136521905470540667
80,2561.01686818421540519011673781034672,2559.6,1.41686818421540519011673781034672
81,2625.41937236755179338165456544049174,2624.0,1.41937236755179338165456544049174
82,2690.62184577073970649461969650398479,2689.2,1.42184577073970649461969650398479
83,2756.62428914198861537913002570879672,2755.2,1.42428914198861537913002570879672
84,2823.42670320254659603416945982696449,2822.0,1.42670320254659603416945982696449
85,2891.02908864798090910707245334540191,2889.6,1.42908864798090910707245334540191
86,2959.43144614938341759545396588946734,2958.0,1.43144614938341759545396588946734
87,3028.63377635450607883730842225411690,3027.2,1.43377635450607883730842225411690
88,3098.63607988883132349728765603535634,3097.2,1.43607988883132349728765603535634
89,3169.43835735658175075503405758336088,3168.0,1.43835735658175075503405758336088
90,3241.04060934167322568474187339295169,3239.6,1.44060934167322568474187339295169
91,3313.44283640861514336309712442384903,3312.0,1.44283640861514336309712442384903
92,3386.64503910336133594523397159096090,3385.2,1.44503910336133594523397159096090
93,3460.64721795411483669332039911372300,3459.2,1.44721795411483669332039911372300
94,3535.44937347208947201367637358441955,3534.0,1.44937347208947201367637358441955
95,3611.05150615223103140432965615903855,3609.6,1.45150615223103140432965615903855
96,3687.45361647390056339282844604272973,3686.0,1.45361647390056339282844604272973
97,3764.65570490152216120205446390243838,3763.2,1.45570490152216120205446390243838
98,3842.65777188519742900751454323481262,3841.2,1.45777188519742900751454323481262
99,3921.45981786128866617743825867730634,3920.0,1.45981786128866617743825867730634
100,4001.06184325297266054662270152364111,3999.6,1.46184325297266054662270152364111
101,4081.46384847076685247085050551750874,4080.0,1.46384847076685247085050551750874
102,4162.66583391302950583402012493675685,4161.2,1.46583391302950583402012493675685
103,4244.66779996643541426655169278278383,4243.2,1.46779996643541426655169278278383
104,4327.46974700642856356896311154303503,4326.0,1.46974700642856356896311154303503
105,4411.07167539765307826078819933502047,4409.6,1.47167539765307826078819933502047
106,4495.47358549436368941080912494951367,4494.0,1.47358549436368941080912494951367
107,4580.67547764081688282266048545631142,4579.2,1.47547764081688282266048545631142
108,4666.67735217164380741034937563123287,4665.2,1.47735217164380741034937563123287
109,4753.47920941220595500474630772144687,4752.0,1.47920941220595500474630772144687
110,4841.08104967893456041202127167201008,4839.6,1.48104967893456041202127167201008
111,4929.48287327965460468384591475925321,4928.0,1.48287327965460468384591475925321
112,5018.68468051389425512559688453148926,5017.2,1.48468051389425512559688453148926
113,5108.68647167318052003304980095590374,5107.2,1.48647167318052003304980095590374
114,5199.48824704132184739034620942360376,5198.0,1.48824704132184739034620942360376
115,5291.09000689467835631356422062826538,5289.6,1.49000689467835631356422062826538
116,5383.49175150242034169262710424213008,5382.0,1.49175150242034169262710424213008
117,5476.69348112677566077133262826437531,5475.2,1.49348112677566077133262826437531
118,5570.69519602326656937423285290542894,5569.2,1.49519602326656937423285290542894
119,5665.49689644093654177543674542869028,5664.0,1.49689644093654177543674542869028
120,5761.09858262256758236222835943215723,5759.6,1.49858262256758236222835943215723
121,5857.50025480488849897921305078147577,5856.0,1.50025480488849897921305078147577
122,5954.70191321877458892562749036123257,5953.2,1.50191321877458892562749036123257
123,6052.70355808943915638558335590243900,6051.2,1.50355808943915638558335590243900
124,6151.50518963661726239126945421748565,6150.0,1.50518963661726239126945421748565
125,6251.10680807474207885294119307776688,6249.6,1.50680807474207885294119307776688
126,6351.50841361311420299229544191732673,6350.0,1.50841361311420299229544191732673
127,6452.71000645606426793801348148375972,6451.2,1.51000645606426793801348148375972
128,6554.71158680310916265513748739931636,6553.2,1.51158680310916265513748739931636
129,6657.51315484910216230677936072557903,6656.0,1.51315484910216230677936072557903
130,6761.11471078437725176487236122511251,6759.6,1.51471078437725176487236122511251
131,6865.51625479488790958263454653906810,6864.0,1.51625479488790958263454653906810
132,6970.71778706234060476429390433457015,6969.2,1.51778706234060476429390433457015
133,7076.71930776432324688611939988101584,7075.2,1.51930776432324688611939988101584
134,7183.52081707442881884693581412727370,7182.0,1.52081707442881884693581412727370
135,7291.12231516237440341803810827571364,7289.6,1.52231516237440341803810827571364
136,7399.52380219411581107498249443032589,7398.0,1.52380219411581107498249443032589
137,7508.72527833195800328588411508293085,7507.2,1.52527833195800328588411508293085
138,7618.72674373466149181894831888586471,7617.2,1.52674373466149181894831888586471
139,7729.52819855754489252616133711350375,7728.0,1.52819855754489252616133711350375
140,7841.12964295258379661419559438316247,7839.6,1.52964295258379661419559438316247
141,7953.53107706850611785619613926307870,7952.0,1.53107706850611785619613926307870
142,8066.73250105088406612495895067584855,8065.2,1.53250105088406612495895067584855
143,8180.73391504222288897794881724478296,8179.2,1.53391504222288897794881724478296
144,8295.53531918204651584508063021547458,8294.0,1.53531918204651584508063021547458
145,8411.13671360698023518254370542613976,8409.6,1.53671360698023518254370542613976
146,8527.53809845083052708732206223472211,8526.0,1.53809845083052708732206223472211
147,8644.73947384466216566421472499135810,8643.2,1.53947384466216566421472499135810
148,8762.74083991687270647925499301481311,8761.2,1.54083991687270647925499301481311
149,8881.54219679326446090548834850614312,8880.0,1.54219679326446090548834850614312
150,9001.14354459711406100711570678412298,8999.6,1.54354459711406100711570678412298
151,9121.54488344923971088153646958239601,9120.0,1.54488344923971088153646958239601
152,9242.74621346806621476387047445845508,9241.2,1.54621346806621476387047445845508
153,9364.74753476968787084921741193894262,9363.2,1.54753476968787084921741193894262
154,9487.54884746792931473760603347592208,9486.0,1.54884746792931473760603347592208
155,9611.15015167440439074349356824010755,9609.6,1.55015167440439074349356824010755
156,9735.55144749857312894220785563271006,9734.0,1.55144749857312894220785563271006
157,9860.75273504779689900612421286151973,9859.2,1.55273504779689900612421286151973
158,9986.75401442739181265504446466482146,9985.2,1.55401442739181265504446466482146
159,10113.5552857406804384001462714370298,10112.0,1.5552857406804384001462714370298
160,10241.1565490890418949257624123610138,10239.6,1.5565490890418949257624123610138
161,10369.5578045719603816120129827780027,10368.0,1.5578045719603816120129827780027
162,10498.7590522870722056664885037203168,10497.2,1.5590522870722056664885037203168
163,10628.7602923302113607255771660945972,10627.2,1.5602923302113607255771660945972
164,10759.5615247954537115695322601283263,10758.0,1.5615247954537115695322601283263
165,10891.1627497751598335592081657459951,10889.6,1.5627497751598335592081657459951
166,11023.5639673600165573179798633366778,11022.0,1.5639673600165573179798633366778
167,11156.7651776390772658993203926760802,11155.2,1.5651776390772658993203926760802
168,11290.7663806998009871373354561455434,11289.2,1.5663806998009871373354561455434
169,11425.5675766280903262509685852710170,11424.0,1.5675766280903262509685852710170
170,11561.1687655083282784538659249822857,11559.6,1.5687655083282784538659249822857
171,11697.5699474234139617734858894803070,11696.0,1.5699474234139617734858894803070
172,11834.7711224547973079555029041091763,11833.2,1.5711224547973079555029041091763
173,11972.7722906825127468654951416741090,11971.2,1.5722906825127468654951416741090
174,12111.5734521852119202413739744835815,12110.0,1.5734521852119202413739744835815
175,12251.1746070401954587917186432298281,12249.6,1.5746070401954587917186432298281
176,12391.5757553234438523569002115315256,12390.0,1.5757553234438523569002115315256
177,12532.7768971096474464043700931813859,12531.2,1.5768971096474464043700931813859
178,12674.7780324722355940236703324945868,12673.2,1.5780324722355940236703324945868
179,12817.5791614834049898775987462045370,12816.0,1.5791614834049898775987462045370
180,12961.1802842141472170677582157661827,12959.6,1.5802842141472170677582157661827
181,13105.5814007342755295752565870185355,13104.0,1.5814007342755295752565870185355
182,13250.7825111124508979844893025663832,13249.2,1.5825111124508979844893025663832
183,13396.7836154162073415521999808412119,13395.2,1.5836154162073415521999808412119
184,13543.5847137119765708766660797969128,13542.0,1.5847137119765708766660797969128
185,13691.1858060651119629888468554731847,13689.6,1.5858060651119629888468554731847
186,13839.5868925399118898482374807885606,13838.0,1.5868925399118898482374807885606
187,13988.7879731996424240584912595331425,13987.2,1.5879731996424240584912595331425
188,14138.7890481065594372541236354466446,14137.2,1.5890481065594372541236354466446
189,14289.5901173219301149048519514342816,14288.0,1.5901173219301149048519514342816
190,14441.1911809060539032045830708750932,14439.6,1.5911809060539032045830708750932
191,14593.5922389182829072840326362874148,14592.0,1.5922389182829072840326362874148
192,14746.7932914170417571461131804804535,14745.2,1.5932914170417571461131804804535
193,14900.7943384598469596454095256760054,14899.2,1.5943384598469596454095256760054
194,15055.5953801033257498705321770293815,15054.0,1.5953801033257498705321770293815
195,15211.1964164032344598802830266070268,15209.6,1.5964164032344598802830266070268
196,15367.5974474144764185046981982766887,15366.0,1.5974474144764185046981982766887
197,15524.7984731911193966060546036815357,15523.2,1.5984731911193966060546036815357
198,15682.7994937864126119822129323725850,15681.2,1.5994937864126119822129323725850
199,15841.6005092528033067672035351843533,15840.0,1.6005092528033067672035351843533
200,16001.2015196419529112909677860260012,15999.6,1.6015196419529112909677860260012
201,16161.6025250047528053970926892646271,16160.0,1.6025250047528053970926892646271
202,16322.8035253913396906178394664650178,16321.2,1.6035253913396906178394664650178
203,16484.8045208511105838850672318752883,16483.2,1.6045208511105838850672318752883
204,16647.6055114327374444166350433400971,16646.0,1.6055114327374444166350433400971
205,16811.2064971841814437691042109127343,16809.6,1.6064971841814437691042109127343
206,16975.6074781527068921017960158344311,16974.0,1.6074781527068921017960158344311
207,17140.8084543848948265500481409064154,17139.2,1.6084543848948265500481409064154
208,17306.8094259266562759571971297681819,17305.2,1.6094259266562759571971297681819
209,17473.6103928232452077371713997805455,17472.0,1.6103928232452077371713997805455
210,17641.2113551192711683933114799724323,17639.6,1.6113551192711683933114799724323
211,17809.6123128587116250834121311644465,17808.0,1.6123128587116250834121311644465
212,17978.8132660849240184901683560101108,17977.2,1.6132660849240184901683560101108
213,18148.8142148406575314080864722440288,18147.2,1.6142148406575314080864722440288
214,18319.6151591680645880568055383633419,18318.0,1.6151591680645880568055383633419
215,18491.2160991087120833625192009288285,18489.6,1.6160991087120833625192009288285
216,18663.6170347035923561986011102973612,18662.0,1.6170347035923561986011102973612
217,18836.8179659931339105823916090082859,18835.2,1.6179659931339105823916090082859
218,19010.8188930172118938398233766491085,19009.2,1.6188930172118938398233766491085
219,19185.6198158151583350514091254110302,19184.0,1.6198158151583350514091254110302
220,19361.2207344257721563297094996165932,19359.6,1.6207344257721563297094996165932
221,19537.6216488873289548740509691088543,19536.0,1.6216488873289548740509691088543
222,19714.8225592375905730448444957584665,19713.2,1.6225592375905730448444957584665
223,19892.8234655138144500649320803529237,19891.2,1.6234655138144500649320803529237
224,20071.6243677527627704554869419753653,20070.0,1.6243677527627704554869419753653
225,20251.2252659907114118129851728054320,20249.6,1.6252659907114118129851728054320
226,20431.6261602634586955169170936306184,20430.0,1.6261602634586955169170936306184
227,20612.8270506063339490646961264916387,20611.2,1.6270506063339490646961264916387
228,20794.8279370542058818995223677979324,20793.2,1.6279370542058818995223677979324
229,20977.6288196414907819408907264524949,20976.0,1.6288196414907819408907264524949
230,21161.2296984021605375636463067565748,21159.6,1.6296984021605375636463067565748
231,21345.6305733697504868766965523757646,21344.0,1.6305733697504868766965523757646
232,21530.8314445773671047744198378569767,21529.2,1.6314445773671047744198378569767
233,21716.8323120576955228127610356626497,21715.2,1.6323120576955228127610356626497
234,21903.6331758430068981250409066513641,21902.0,1.6331758430068981250409066513641
235,22091.2340359651656246201204819992165,22089.6,1.6340359651656246201204819992165
236,22279.6348924556363962359079776928062,22278.0,1.6348924556363962359079776928062
237,22468.8357453454911259453560970371176,22467.2,1.6357453454911259453560970371176
238,22658.8365946654157223259134811953152,22657.2,1.6365946654157223259134811953152
