Eigenstate,Energy,Kinetic Energy,Potential Energy
1,0.500000000019669422258361152955898799,0.0,0.500000000019669422258361152955898799
2,1.84623093777950629510753343839672781,1.2,0.64623093777950629510753343839672781
3,3.93633761008211537738926520802738792,3.2,0.73633761008211537738926520802738792
4,6.79966527859977670441099660148380188,6.0,0.79966527859977670441099660148380188
5,10.4480465766463958276424652300936720,9.6,0.8480465766463958276424652300936720
6,14.8870659989758303484642165469249806,14.0,0.8870659989758303484642165469249806
7,20.1197208270258714761440385229621150,19.2,0.9197208270258714761440385229621150
8,26.1477838471732691932140235888826792,25.2,0.9477838471732691932140235888826792
9,32.9723835584241921810085141385611348,32.0,0.9723835584241921810085141385611348
10,40.5942802149271444638428430260462517,39.6,0.9942802149271444638428430260462517
11,49.0140093868231198545732942500666819,48.0,1.0140093868231198545732942500666819
12,58.2319621694167159191383594592709733,57.2,1.0319621694167159191383594592709733
13,68.2484326927737161568525059767841837,67.2,1.0484326927737161568525059767841837
14,79.0636476545772459933053552677434283,78.0,1.0636476545772459933053552677434283
15,90.6777854359419543255650505437689223,89.6,1.0777854359419543255650505437689223
16,103.090988906284456556379202514176866,102.0,1.090988906284456556379202514176866
17,116.303374256784837707777395837308432,115.2,1.103374256784837707777395837308432
18,130.315037251392851152034098694568853,129.2,1.115037251392851152034098694568853
19,145.126057749931895792420577628226301,144.0,1.126057749931895792420577628226301
20,160.736503045732952243055438438282634,159.6,1.136503045732952243055438438282634
21,177.146430371716279847241782590206377,176.0,1.146430371716279847241782590206377
22,194.355888811550156712096873889121997,193.2,1.155888811550156712096873889121997
23,212.364920777587404302600953977117025,211.2,1.164920777587404302600953977117025
24,231.173563168265809562952145800757016,230.0,1.173563168265809562952145800757016
25,250.781848284904051285316232376126420,249.6,1.181848284904051285316232376126420
26,271.189804565509287847333213641601666,270.0,1.189804565509287847333213641601666
27,292.397457177739733040953531760832840,291.2,1.197457177739733040953531760832840
28,314.404828502263695907663644895675429,313.2,1.204828502263695907663644895675429
29,337.211938529961532674756792074870934,336.0,1.211938529961532674756792074870934
30,360.818805190767471318772547382886322,359.6,1.218805190767471318772547382886322
31,385.225444627802330782692182832727397,384.0,1.225444627802330782692182832727397
32,410.431871427370257289144892962844829,409.2,1.231871427370257289144892962844829
33,436.438098813082952388043303815675931,435.2,1.238098813082952388043303815675931
34,463.244138810624321111137271485789599,462.0,1.244138810624321111137271485789599
35,490.850002388329273540456684899877540,489.6,1.250002388329273540456684899877540
36,519.255699577716934219212655138995144,518.0,1.255699577716934219212655138995144
37,548.461239577314429285331573621587600,547.2,1.261239577314429285331573621587600
38,578.466630842477002464755034162145846,577.2,1.266630842477002464755034162145846
39,609.271881163412362412201854706237057,608.0,1.271881163412362412201854706237057
40,640.876997733221343103609340587877276,639.6,1.276997733221343103609340587877276
41,673.281987207450208710803905577905652,672.0,1.281987207450208710803905577905652
42,706.486855756394941787490025511329804,705.2,1.286855756394941787490025511329804
43,740.491609111191367250766657116960372,739.2,1.291609111191367250766657116960372
44,775.296252604556870626906470107005929,774.0,1.296252604556870626906470107005929
45,810.900791206911899461161575745549949,809.6,1.300791206911899461161575745549949
46,847.305229558496300508787300768732816,846.0,1.305229558496300508787300768732816
47,884.509571998002068712162077836820377,883.2,1.309571998002068712162077836820377
48,922.513822588166497604648564869674149,921.2,1.313822588166497604648564869674149
49,961.317985138705058237957398638339802,960.0,1.317985138705058237957398638339802
50,1000.92206322690921101613251326439149,999.6,1.32206322690921101613251326439149
51,1041.32606021618888785681351878063535,1040.0,1.32606021618888785681351878063535
52,1082.52997927280103688613890936333087,1081.2,1.32997927280103688613890936333087
53,1124.53382338097317175511431513308309,1123.2,1.33382338097317175511431513308309
54,1167.33759535660330653381934009786144,1166.0,1.33759535660330653381934009786144
55,1210.94129785969418164731934980148390,1209.6,1.34129785969418164731934980148390
56,1255.34493340565961174702735485839867,1254.0,1.34493340565961174702735485839867
57,1300.54850437562358744614552150841237,1299.2,1.34850437562358744614552150841237
58,1346.55201302581796566152779287001233,1345.2,1.35201302581796566152779287001233
59,1393.35546149617182935703244473899095,1392.0,1.35546149617182935703244473899095
60,1440.95885181817457297573329592223061,1439.6,1.35885181817457297573329592223061
61,1489.36218592208520562085554755005581,1488.0,1.36218592208520562085554755005581
62,1538.56546564355206304019037008636788,1537.2,1.36546564355206304019037008636788
63,1588.56869272969987757972316265559354,1587.2,1.36869272969987757972316265559354
64,1639.37186884473484279228953739399273,1638.0,1.37186884473484279228953739399273
65,1690.97499557511277454710126450605877,1689.6,1.37499557511277454710126450605877
66,1743.37807443431062314693125587444233,1742.0,1.37807443431062314693125587444233
67,1796.58110686723732866842161017472912,1795.2,1.38110686723732866842161017472912
68,1850.58409425431625558017087734893322,1849.2,1.38409425431625558017087734893322
69,1905.38703791526813002253046779658865,1904.0,1.38703791526813002253046779658865
70,1960.98993911262047486477666248001228,1959.6,1.38993911262047486477666248001228
71,2017.39279905496693895159390736301778,2016.0,1.39279905496693895159390736301778
72,2074.59561889999761870842570230038566,2073.2,1.39561889999761870842570230038566
73,2132.59839975731941726884616195045891,2131.2,1.39839975731941726884616195045891
74,2191.40114269108366743855287286811363,2190.0,1.40114269108366743855287286811363
75,2251.00384872243661370947887155984021,2249.6,1.40384872243661370947887155984021
76,2311.40651883180689898076653953498381,2310.0,1.40651883180689898076653953498381
77,2372.60915396104289924492826714342278,2371.2,1.40915396104289924492826714342278
78,2434.61175501541158369933867495984879,2433.2,1.41175501541158369933867495984879
79,2497.41432286546953092321108010377250,2496.0,1.41432286546953092321108010377250
80,2561.01685834881579363456654340016020,2559.6,1.41685834881579363456654340016020
81,2625.41936227173545520022729385306726,2624.0,1.41936227173545520022729385306726
82,2690.62183541074195962131290940552447,2689.2,1.42183541074195962131290940552447
83,2756.62427851402560798292801317945823,2755.2,1.42427851402560798292801317945823
84,2823.42669230281499006501416676735403,2822.0,1.42669230281499006501416676735403
85,2891.02907747265756053516499557817612,2889.6,1.42907747265756053516499557817612
86,2959.43143469462505327881430430964766,2958.0,1.43143469462505327881430430964766
87,3028.63376461644896995140708899256488,3027.2,1.43376461644896995140708899256488
88,3098.63606786359095545942767505236841,3097.2,1.43606786359095545942767505236841
89,3169.43834504025248957499774690888202,3168.0,1.43834504025248957499774690888202
90,3241.04059673032798067202774755960857,3239.6,1.44059673032798067202774755960857
91,3313.44282349830502611985447164587019,3312.0,1.44282349830502611985447164587019
92,3386.64502589011531557275853484142244,3385.2,1.44502589011531557275853484142244
93,3460.64720443393939113869980140853369,3459.2,1.44720443393939113869980140853369
94,3535.44935964096823548187073657106356,3534.0,1.44935964096823548187073657106356
95,3611.05149200612443775963866195471263,3609.6,1.45149200612443775963866195471263
96,3687.45360200874548547233145198409145,3686.0,1.45360200874548547233145198409145
97,3764.65569011323154596221162653390138,3763.2,1.45569011323154596221162653390138
98,3842.65775676965992842368907569654305,3841.2,1.45775676965992842368907569654305
99,3921.45980241436826381463353394635349,3920.0,1.45980241436826381463353394635349
100,4001.06182747050829371823185421606405,3999.6,1.46182747050829371823185421606405
101,4081.46383234857202990068065982581735,4080.0,1.46383234857202990068065982581735
102,4162.66581744689192073528386282758372,4161.2,1.46581744689192073528386282758372
103,4244.66778315211655274991165974740151,4243.2,1.46778315211655274991165974740151
104,4327.46972983966330829006722042387161,4326.0,1.46972983966330829006722042387161
105,4411.07165787414930721605036473644824,4409.6,1.47165787414930721605036473644824
106,4495.47356760980186978846382598035536,4494.0,1.47356760980186978846382598035536
107,4580.67545939084965981435227401112835,4579.2,1.47545939084965981435227401112835
108,4666.67733355189558788670989973665622,4665.2,1.47733355189558788670989973665622
109,4753.47919041827248595655818787853641,4752.0,1.47919041827248595655818787853641
110,4841.08103030638250205667045054159644,4839.6,1.48103030638250205667045054159644
111,4929.48285352402109813482117561103049,4928.0,1.48285352402109813482117561103049
112,5018.68466037068648452080476133116259,5017.2,1.48466037068648452080476133116259
113,5108.68645113787526901567414035835914,5107.2,1.48645113787526901567414035835914
114,5199.48822610936504983389345373743717,5198.0,1.48822610936504983389345373743717
115,5291.08998556148464118059636144534825,5289.6,1.48998556148464118059636144534825
116,5383.49172976337257191449336221752888,5382.0,1.49172976337257191449336221752888
117,5476.69345897722446603396471885139267,5475.2,1.49345897722446603396471885139267
118,5570.69517345852987269277002870869681,5569.2,1.49517345852987269277002870869681
119,5665.49687345629907973808917630908443,5664.0,1.49687345629907973808917630908443
120,5761.09855921328041892137440870974457,5759.6,1.49855921328041892137440870974457
121,5857.50023096616853266524908170931330,5856.0,1.50023096616853266524908170931330
122,5954.70188894580405335655580134258791,5953.2,1.50188894580405335655580134258791
123,6052.70353337736511394272471040067503,6051.2,1.50353337736511394272471040067503
124,6151.50516448055109092882399435266243,6150.0,1.50516448055109092882399435266243
125,6251.10678246975895130639159599452471,6249.6,1.50678246975895130639159599452471
126,6351.50838755425255974784953249916979,6350.0,1.50838755425255974784953249916979
127,6452.70997993832528182241585679241663,6451.2,1.50997993832528182241585679241663
128,6554.71155982145619640223937992060232,6553.2,1.51155982145619640223937992060232
129,6657.51312739846021835424417076607798,6656.0,1.51312739846021835424417076607798
130,6761.11468285963241423130361077354958,6759.6,1.51468285963241423130361077354958
131,6865.51622639088677827224566969234773,6864.0,1.51622639088677827224566969234773
132,6970.71775817388972104299028436679033,6969.2,1.51775817388972104299028436679033
133,7076.71927838618851126953577962630207,7075.2,1.51927838618851126953577962630207
134,7183.52078720133490013755239738370948,7182.0,1.52078720133490013755239738370948
135,7291.12228478900413922499850964722211,7289.6,1.52228478900413922499850964722211
136,7399.52377131510959954664475109270840,7398.0,1.52377131510959954664475109270840
137,7508.72524694191318588144769422832452,7507.2,1.52524694191318588144769422832452
138,7618.72671182813172694172410728645501,7617.2,1.52671182813172694172410728645501
139,7729.52816612903951983717120643336723,7728.0,1.52816612903951983717120643336723
140,7841.12960999656719184081007063473100,7839.6,1.52960999656719184081007063473100
141,7953.53104357939703790643939041481714,7952.0,1.53104357939703790643939041481714
142,8066.73246702305498431391968149356541,8065.2,1.53246702305498431391968149356541
143,8180.73388046999932016843880239239305,8179.2,1.53388046999932016843880239239305
144,8295.53528405970633130027256165136231,8294.0,1.53528405970633130027256165136231
145,8411.13667792875296692379522876602248,8409.6,1.53667792875296692379522876602248
146,8527.53806221089666154574372058594782,8526.0,1.53806221089666154574372058594782
147,8644.73943703715242640977332020741324,8643.2,1.53943703715242640977332020741324
148,8762.74080253586732580630936202713761,8761.2,1.54080253586732580630936202713761
149,8881.54215883279244004862510892628061,8880.0,1.54215883279244004862510892628061
150,9001.14350605115241875599883810868938,8999.6,1.54350605115241875599883810868938
151,9121.54484431171272035817932531377151,9120.0,1.54484431171272035817932531377151
152,9242.74617373284462812030434770936714,9241.2,1.54617373284462812030434770936714
153,9364.74749443058813163794012342685748,9363.2,1.54749443058813163794012342685748
154,9487.54880651871275770145754882017358,9486.0,1.54880651871275770145754882017358
155,9611.15011010877642876571144756213732,9609.6,1.55011010877642876571144756213732
156,9735.55140531018242689135886543998316,9734.0,1.55140531018242689135886543998316
157,9860.75269223023453420439246024277857,9859.2,1.55269223023453420439246024277857
158,9986.75397097419042169196254776456946,9985.2,1.55397097419042169196254776456946
159,10113.5552416453133500072933717150899,10112.0,1.5552416453133500072933717150899
160,10241.1565043449222486212034466456573,10239.6,1.5565043449222486212034466456573
161,10369.5577591724402318163210757177104,10368.0,1.5577591724402318163210757177104
162,10498.7590062254416109850665332069673,10497.2,1.5590062254416109850665332069673
163,10628.7602455996974580846703765426280,10627.2,1.5602455996974580846703765426280
164,10759.5614773892197748857929655974438,10758.0,1.5614773892197748857929655974438
165,10891.1627016863043166149329508905578,10889.6,1.5627016863043166149329508905578
166,11023.5639185815721205061835822565524,11022.0,1.5639185815721205061835822565524
167,11156.7651281640097864946263630965145,11155.2,1.5651281640097864946263630965145
168,11290.7663305210085527402456884129731,11289.2,1.5663305210085527402456884129731
169,11425.5675257384022110444250933052321,11424.0,1.5675257384022110444250933052321
170,11561.1687139005039019021109254647603,11559.6,1.5687139005039019021109254647603
171,11697.5698950901418293840742681713723,11696.0,1.5698950901418293840742681713723
172,11834.7710693886939337158991013553301,11833.2,1.5710693886939337158991013553301
173,11972.7722368761215569559974669004741,11971.2,1.5722368761215569559974669004741
174,12111.5733976310021376161356549283549,12110.0,1.5733976310021376161356549283549
175,12251.1745517305609682093744226135552,12249.6,1.5745517305609682093744226135552
176,12391.5756992507020454317460557738682,12390.0,1.5756992507020454317460557738682
177,12532.7768402660380462381756374389825,12531.2,1.5768402660380462381756374389825
178,12674.7779748499194589670127597040144,12673.2,1.5779748499194589670127597040144
179,12817.5791030744628959580893096429214,12816.0,1.5791030744628959580893096429214
180,12961.1802250105786186106721582077960,12959.6,1.5802250105786186106721582077960
181,13105.5813407279972975298667760224354,13104.0,1.5813407279972975298667760224354
182,13250.7824502952960354568269385131445,13249.2,1.5824502952960354568269385131445
183,13396.7835537799236760320142419734860,13395.2,1.5835537799236760320142419734860
184,13543.5846512482254226330131903321869,13542.0,1.5846512482254226330131903321869
185,13691.1857427654667890949947906971852,13689.6,1.5857427654667890949947906971852
186,13839.5868283958569032824175812041813,13838.0,1.5868283958569032824175812041813
187,13988.7879082025711873124329048030123,13987.2,1.5879082025711873124329048030123
188,14138.7889822477734298662782151209521,14137.2,1.5889822477734298662782151209521
189,14289.5900505926372743197152580628919,14288.0,1.5900505926372743197152580628919
190,14441.1911132973671383435569118766919,14439.6,1.5911132973671383435569118766919
191,14593.5921704212185841968002075319241,14592.0,1.5921704212185841968002075319241
192,14746.7932220225181560945335121186315,14745.2,1.5932220225181560945335121186315
193,14900.7942681586827029544302309234892,14899.2,1.5942681586827029544302309234892
194,15055.5953088862381998625754788298122,15054.0,1.5953088862381998625754788298122
195,15211.1963442608380861909476009038502,15209.6,1.5963442608380861909476009038502
196,15367.5973743372811340584171800833714,15366.0,1.5973743372811340584171800833714
197,15524.7983991695288615105466463884524,15523.2,1.5983991695288615105466463884524
198,15682.7994188107225045801314904493013,15681.2,1.5994188107225045801314904493013
199,15841.6004333131995610622984897627516,15840.0,1.6004333131995610622984897627516
200,16001.2014427285099199443218067069987,15999.6,1.6014427285099199443218067069987
201,16161.6024471074315874665355751526380,16160.0,1.6024471074315874665355751526380
202,16322.8034464999860231904542588742555,16321.2,1.6034464999860231904542588742555
203,16484.8044409554530967287825928894678,16483.2,1.6044409554530967287825928894678
204,16647.6054305223856767521765340077382,16646.0,1.6054305223856767521765340077382
205,16811.2064152486238622380670938844611,16809.6,1.6064152486238622380670938844611
206,16975.6073951813088689802438169255451,16974.0,1.6073951813088689802438169255451
207,17140.8083703668965772298232862426655,17139.2,1.6083703668965772298232862426655
208,17306.8093408511707546890071051277755,17305.2,1.6093408511707546890071051277755
209,17473.6103066792559606004568113331681,17472.0,1.6103066792559606004568113331681
210,17641.2112678956301424278846390449471,17639.6,1.6112678956301424278846390449471
211,17809.6122245441369324868163198002618,17808.0,1.6122245441369324868163198002618
212,17978.8131766679976547526479148872844,17977.2,1.6131766679976547526479148872844
213,18148.8141243098230462238844727375255,18147.2,1.6141243098230462238844727375255
214,18319.6150675116247078162438282132853,18318.0,1.6150675116247078162438282132853
215,18491.2160063148262839938501160822643,18489.6,1.6160063148262839938501160822643
216,18663.6169407602743850919673032033855,18662.0,1.6169407602743850919673032033855
217,18836.8178708882492562903079876879090,18835.2,1.6178708882492562903079876879090
218,19010.8187967384752022093602469899985,19009.2,1.6187967384752022093602469899985
219,19185.6197183501307704026611106759764,19184.0,1.6197183501307704026611106759764
220,19361.2206357618587062531371787473139,19359.6,1.6206357618587062531371787473139
221,19537.6215490117756771757946884023372,19536.0,1.6215490117756771757946884023372
222,19714.8224581374817833241169412582254,19713.2,1.6224581374817833241169412582254
223,19892.8233631760698483609925689331267,19891.2,1.6233631760698483609925689331267
224,20071.6242641641345053534650607664702,20070.0,1.6242641641345053534650607664702
225,20251.2251611377810803478381575559465,20249.6,1.6251611377810803478381575559465
226,20431.6260541326342771630699481636740,20430.0,1.6260541326342771630699481636740
227,20612.8269431838466720452941059446654,20611.2,1.6269431838466720452941059446654
228,20794.8278283261070199936594025756164,20793.2,1.6278283261070199936594025756164
229,20977.6287095936483799096226547874774,20976.0,1.6287095936483799096226547874774
230,21161.2295870202560632559233084767274,21159.6,1.6295870202560632559233084767274
231,21345.6304606392754080144938319805489,21344.0,1.6304606392754080144938319805489
232,21530.8313304836193883522103480485144,21529.2,1.6313304836193883522103480485144
233,21716.8321965857760549799714353809891,21715.2,1.6321965857760549799714353809891
234,21903.6330589778158223511543728859959,21902.0,1.6330589778158223511543728859959
235,22091.2339176913985958705319705751818,22089.6,1.6339176913985958705319705751818
236,22279.6347727577807488124013518086097,22278.0,1.6347727577807488124013518086097
237,22468.8356242078219525680343749186346,22467.2,1.6356242078219525680343749186346
238,22658.8364720719918619534431872459944,22657.2,1.6364720719918619534431872459944
