Eigenstate,Energy,Kinetic Energy,Potential Energy
1,0.500000000197014131546882549212809966,0.0,0.500000000197014131546882549212809966
2,1.84623093893712891303995037606761023,1.2,0.64623093893712891303995037606761023
3,3.93633761348257843843660306307496193,3.2,0.73633761348257843843660306307496193
4,6.79966528568266721255126329485297731,6.0,0.79966528568266721255126329485297731
5,10.4480465889156637485178922415885448,9.6,0.8480465889156637485178922415885448
6,14.8870660179619064275311977467412732,14.0,0.8870660179619064275311977467412732
7,20.1197208542717335132011372900579053,19.2,0.9197208542717335132011372900579053
8,26.1477838842286533717396337134506290,25.2,0.9477838842286533717396337134506290
9,32.9723836068429217990667128535360291,32.0,0.9723836068429217990667128535360291
10,40.5942802762657930178116108848258881,39.6,0.9942802762657930178116108848258881
11,49.0140094626403023058816816540219965,48.0,1.0140094626403023058816816540219965
12,58.2319622612727001042836681039279139,57.2,1.0319622612727001042836681039279139
13,68.2484328022302085157194694633865943,67.2,1.0484328022302085157194694633865943
14,79.0636477831972776494834727612435064,78.0,1.0636477831972776494834727612435064
15,90.6777855852898277391397164057210757,89.6,1.0777855852898277391397164057210757
16,103.090989077925730257854429184527575,102.0,1.090989077925730257854429184527575
17,116.303374452286335836228116106156930,115.2,1.103374452286335836228116106156930
18,130.315037472322689660944266012877313,129.2,1.115037472322689660944266012877313
19,145.126057997859520170871003658400623,144.0,1.126057997859520170871003658400623
20,160.736503322229183394265336183446264,159.6,1.136503322229183394265336183446264
21,177.146430678353365879444488034297304,176.0,1.146430678353365879444488034297304
22,194.355889149901829106486276282901041,193.2,1.155889149901829106486276282901041
23,212.364921149228937387096913107923466,211.2,1.164921149228937387096913107923466
24,231.173563574774082530759614216925332,230.0,1.173563574774082530759614216925332
25,250.781848727857612208913327127536213,249.6,1.181848727857612208913327127536213
26,271.189805046488419285623536333392176,270.0,1.189805046488419285623536333392176
27,292.397457698326518941287160168349408,291.2,1.197457698326518941287160168349408
28,314.404829064042089579059410884345404,313.2,1.204829064042089579059410884345404
29,337.211939134517425662992739512622332,336.0,1.211939134517425662992739512622332
30,360.818805839688763054092744331080799,359.6,1.218805839688763054092744331080799
31,385.225445322678998900807070810577523,384.0,1.225445322678998900807070810577523
32,410.431872169794428548804261038312498,409.2,1.231872169794428548804261038312498
33,436.438099604648974125710714178345016,435.2,1.238099604648974125710714178345016
34,463.244139652928833186590075367753585,462.0,1.244139652928833186590075367753585
35,490.850003282971280737478731385455154,489.6,1.250003282971280737478731385455154
36,519.255700526297879073663487808015955,518.0,1.255700526297879073663487808015955
37,548.461240581438265319298752393823263,547.2,1.261240581438265319298752393823263
38,578.466631903750267810618426505427747,577.2,1.266631903750267810618426505427747
39,609.271882283444253814554932831543511,608.0,1.271882283444253814554932831543511
40,640.876998913623790290314015320720323,639.6,1.276998913623790290314015320720323
41,673.281988449837949127170626942889946,672.0,1.281988449837949127170626942889946
42,706.486857062385595689803070015855371,705.2,1.286857062385595689803070015855371
43,740.491610482405513157215091088359577,739.2,1.291610482405513157215091088359577
44,775.296254042618121125511247009211157,774.0,1.296254042618121125511247009211157
45,810.900792713446977375569837238964791,809.6,1.300792713446977375569837238964791
46,847.305231135135115423883380707419354,846.0,1.305231135135115423883380707419354
47,884.509573646377793862358465185010435,883.2,1.309573646377793862358465185010435
48,922.513824309915647128500138603726615,921.2,1.313824309915647128500138603726615
49,961.317986935467564803411713501087548,960.0,1.317986935467564803411713501087548
50,1000.92206510032850382130760170149753,999.6,1.32206510032850382130760170149753
51,1041.32606216791197101169882138101689,1040.0,1.32606216791197101169882138101689
52,1082.52998130447856818105629931799879,1081.2,1.32998130447856818105629931799879
53,1124.53382549425954182216585795508813,1123.2,1.33382549425954182216585795508813
54,1167.33759755315671840789512538086057,1166.0,1.33759755315671840789512538086057
55,1210.94130014117673073354898071080743,1209.6,1.34130014117673073354898071080743
56,1255.34493577373736620183873201576878,1254.0,1.34493577373736620183873201576878
57,1300.54850683196666897934886635684860,1299.2,1.34850683196666897934886635684860
58,1346.55201557210063076707671039563746,1345.2,1.35201557210063076707671039563746
59,1393.35546413407255098032821337687210,1392.0,1.35546413407255098032821337687210
60,1440.95885454937612262553908335654197,1439.6,1.35885454937612262553908335654197
61,1489.36218874827473593407438593658860,1488.0,1.36218874827473593407438593658860
62,1538.56546856642119080793765944568610,1537.2,1.36546856642119080793765944568610
63,1588.56869575094476724329183928440069,1587.2,1.36869575094476724329183928440069
64,1639.37187196605629041776620205649119,1638.0,1.37187196605629041776620205649119
65,1690.97499879821629228754614390157796,1689.6,1.37499879821629228754614390157796
66,1743.37807776090652420118321867814053,1742.0,1.37807776090652420118321867814053
67,1796.58111029904081274573440879511775,1795.2,1.38111029904081274573440879511775
68,1850.58409779304749488002808607539186,1849.2,1.38409779304749488002808607539186
69,1905.38704156265235573912585440009908,1904.0,1.38704156265235573912585440009908
70,1960.98994287038806422578206757228026,1959.6,1.38994287038806422578206757228026
71,2017.39280292485350280097362085292009,2016.0,1.39280292485350280097362085292009
72,2074.59562288374408964318853672323414,2073.2,1.39562288374408964318853672323414
73,2132.59840385667213833976162488652130,2131.2,1.39840385667213833976162488652130
74,2191.40114690779448142498960326948238,2190.0,1.40114690779448142498960326948238
75,2251.00385305826295297865790910966045,2249.6,1.40385305826295297865790910966045
76,2311.40652328851187594185430159614995,2310.0,1.40652328851187594185430159614995
77,2372.60915854039539740852935503776501,2371.2,1.40915854039539740852935503776501
78,2434.61175971918634935308305881876823,2433.2,1.41175971918634935308305881876823
79,2497.41432769544726543426668201385271,2496.0,1.41432769544726543426668201385271
80,2561.01686330678324639004466553950885,2559.6,1.41686330678324639004466553950885
81,2625.41936735948551719658803306911541,2624.0,1.41936735948551719658803306911541
82,2690.62184063007375771401710239053536,2689.2,1.42184063007375771401710239053536
83,2756.62428386674459980772467825600186,2755.2,1.42428386674459980772467825600186
84,2823.42669779073305964239590041486727,2822.0,1.42669779073305964239590041486727
85,2891.02908309759311456966982295053473,2889.6,1.42908309759311456966982295053473
86,2959.43144045840311816499973930173359,2958.0,1.43144045840311816499973930173359
87,3028.63377052090128949847309328615543,3027.2,1.43377052090128949847309328615543
88,3098.63607391055608934661685622055470,3097.2,1.43607391055608934661685622055470
89,3169.43835123157591255005609847601267,3168.0,1.43835123157591255005609847601267
90,3241.04060306786218250516641818779989,3239.6,1.44060306786218250516641818779989
91,3313.44282998390961232581337210767138,3312.0,1.44282998390961232581337210767138
92,3386.64503252565710891373449528541930,3385.2,1.44503252565710891373449528541930
93,3460.64721122129253392106774875079435,3459.2,1.44721122129253392106774875079435
94,3535.44936658201429265979456624722146,3534.0,1.44936658201429265979456624722146
95,3611.05149910275250085883960968414198,3609.6,1.45149910275250085883960968414198
96,3687.45360926285227734745547325302682,3686.0,1.45360926285227734745547325302682
97,3764.65569752672152640141579080611250,3763.2,1.45569752672152640141579080611250
98,3842.65776434444540061424582400482284,3841.2,1.45776434444540061424582400482284
99,3921.45981015236948168353704448695525,3920.0,1.45981015236948168353704448695525
100,4001.06183537365357016197671142451692,3999.6,1.46183537365357016197671142451692
101,4081.46384041879784591857424362386660,4080.0,1.46384041879784591857424362386660
102,4162.66582568614303548084754413399126,4161.2,1.46582568614303548084754413399126
103,4244.66779156234611451512355332834188,4243.2,1.46779156234611451512355332834188
104,4327.46973842283296643740116989834378,4326.0,1.46973842283296643740116989834378
105,4411.07166663222932507347012834786007,4409.6,1.47166663222932507347012834786007
106,4495.47357654477123852274078588922214,4494.0,1.47357654477123852274078588922214
107,4580.67546850469621329828784842867537,4579.2,1.47546850469621329828784842867537
108,4666.67734284661611857606031793321287,4665.2,1.47734284661611857606031793321287
109,4753.47919989587286179268089025562861,4752.0,1.47919989587286179268089025562861
110,4841.08103996887778441113581579950593,4839.6,1.48103996887778441113581579950593
111,4929.48286337343566081246285534049072,4928.0,1.48286337343566081246285534049072
112,5018.68467040905413383791598752469988,5017.2,1.48467040905413383791598752469988
113,5108.68646136723936497029496981508202,5107.2,1.48646136723936497029496981508202
114,5199.48823653177862838537693407696862,5198.0,1.48823653177862838537693407696862
115,5291.08999617901053765588897099202524,5289.6,1.48999617901053765588897099202524
116,5383.49174057808354555881700295549140,5382.0,1.49174057808354555881700295549140
117,5476.69346999120332572384429497808889,5475.2,1.49346999120332572384429497808889
118,5570.69518467386960382961279476720388,5569.2,1.49518467386960382961279476720388
119,5665.49688487510297234078842857058151,5664.0,1.49688487510297234078842857058151
120,5761.09857083766219693668214647260577,5759.6,1.49857083766219693668214647260577
121,5857.50024279825248451493981750430145,5856.0,1.50024279825248451493981750430145
122,5954.70190098772516374068560533451310,5953.2,1.50190098772516374068560533451310
123,6052.70354563126919691857798464811535,6051.2,1.50354563126919691857798464811535
124,6151.50517694859492428543344573502668,6150.0,1.50517694859492428543344573502668
125,6251.10679515411041225481662554317639,6249.6,1.50679515411041225481662554317639
126,6351.50840045709076194770309588977872,6350.0,1.50840045709076194770309588977872
127,6452.70999306184071376544023140050588,6451.2,1.50999306184071376544023140050588
128,6554.71157316785086117404898582489888,6553.2,1.51157316785086117404898582489888
129,6657.51314096994777479567612101378971,6656.0,1.51314096994777479567612101378971
130,6761.11469665843831952114579687057385,6759.6,1.51469665843831952114579687057385
131,6865.51624041924843195344870560004294,6864.0,1.51624041924843195344870560004294
132,6970.71777243405661051481198505242036,6969.2,1.51777243405661051481198505242036
133,7076.71929288042235876841419211672823,7075.2,1.51929288042235876841419211672823
134,7183.52080193190981122986171441270723,7182.0,1.52080193190981122986171441270723
135,7291.12229975820675283520364595656596,7289.6,1.52229975820675283520364595656596
136,7399.52378652523923954473974620415393,7398.0,1.52378652523923954473974620415393
137,7508.72526239528201425394230206961684,7507.2,1.52526239528201425394230206961684
138,7618.72672752706489857082514518759563,7617.2,1.52672752706489857082514518759563
139,7729.52818207587533891319953328751712,7728.0,1.52818207587533891319953328751712
140,7841.12962619365726993329315553413215,7839.6,1.52962619365726993329315553413215
141,7953.53106002910645371972698809503284,7952.0,1.53106002910645371972698809503284
142,8066.73248372776244515358659668780357,8065.2,1.53248372776244515358659668780357
143,8180.73389743209732514516326818884257,8179.2,1.53389743209732514516326818884257
144,8295.53530128160133629831111419470131,8294.0,1.53530128160133629831111419470131
145,8411.13669541286555136161536791829490,8409.6,1.53669541286555136161536791829490
146,8527.53807995966169695682750687788668,8526.0,1.53807995966169695682750687788668
147,8644.73945505301924687206306321476895,8643.2,1.53945505301924687206306321476895
148,8762.74082082129990024923439003830278,8761.2,1.54082082129990024923439003830278
149,8881.54217739026954646712802942612138,8880.0,1.54217739026954646712802942612138
150,9001.14352488316782036146448887202253,8999.6,1.54352488316782036146448887202253
151,9121.54486342077534369666962067060176,9120.0,1.54486342077534369666962067060176
152,9242.74619312147874318900655412760913,9241.2,1.54619312147874318900655412760913
153,9364.74751410133353403125567629211494,9363.2,1.54751410133353403125567629211494
154,9487.54882647412495281868475060931557,9486.0,1.54882647412495281868475060931557
155,9611.15013035142681811281495866377404,9609.6,1.55013035142681811281495866377404
156,9735.55142584265849650986853383812423,9734.0,1.55142584265849650986853383812423
157,9860.75271305514004526103333907020992,9859.2,1.55271305514004526103333907020992
158,9986.75399209414560326319243998238447,9985.2,1.55399209414560326319243998238447
159,10113.5552630629550940935051494101845,10112.0,1.5552630629550940935051494101845
160,10241.1565260629043074259480477042243,10239.6,1.5565260629043074259480477042243
161,10369.5577811934334173265133864183191,10368.0,1.5577811934334173265133864183191
162,10498.7590285521339968887578492917465,10497.2,1.5590285521339968887578492917465
163,10628.7602682347945840636033048835946,10627.2,1.5602682347945840636033048835946
164,10759.5615003354448533206025688757256,10758.0,1.5615003354448533206025688757256
165,10891.1627249463984417415174409662926,10889.6,1.5627249463984417415174409662926
166,11023.5639421582944800624404881726362,11022.0,1.5639421582944800624404881726362
167,11156.7651520601378758974383083918777,11155.2,1.5651520601378758974383083918777
168,11290.7663547393383918333025656348126,11289.2,1.5663547393383918333025656348126
169,11425.5675502817485634581843818807908,11424.0,1.5675502817485634581843818807908
170,11561.1687387717004970679312728587554,11559.6,1.5687387717004970679312728587554
171,11697.5699202920415872453031595570683,11696.0,1.5699202920415872453031595570683
172,11834.7710949241691921794586110669393,11833.2,1.5710949241691921794586110669393
173,11972.7722627480643021287903667787174,11971.2,1.5722627480643021287903667787174
174,12111.5734238423242368713904192084262,12110.0,1.5734238423242368713904192084262
175,12251.1745782841944061288588325220652,12249.6,1.5745782841944061288588325220652
176,12391.5757261495991626706088725266416,12390.0,1.5757261495991626706088725266416
177,12532.7768675131717813600226215353301,12531.2,1.5768675131717813600226215353301
178,12674.7780024482835932976884190558109,12673.2,1.5780024482835932976884190558109
179,12817.5791310270723015075191889395942,12816.0,1.5791310270723015075191889395942
180,12961.1802533204695091130242221523530,12959.6,1.5802533204695091130242221523530
181,13105.5813693982274826532100241923247,13104.0,1.5813693982274826532100241923247
182,13250.7824793289451782344094344161893,13249.2,1.5824793289451782344094344161893
183,13396.7835831800935535682440739890448,13395.2,1.5835831800935535682440739890448
184,13543.5846810180401901382083295836736,13542.0,1.5846810180401901382083295836736
185,13691.1857729080732473039742059055351,13689.6,1.5857729080732473039742059055351
186,13839.5868589144247693130288744135963,13838.0,1.5868589144247693130288744135963
187,13988.7879391002933690211635680456737,13987.2,1.5879391002933690211635680456737
188,14138.7890135278663037591676583247473,14137.2,1.5890135278663037591676583247473
189,14289.5900822583409670778796977145180,14288.0,1.5900822583409670778796977145180
190,14441.1911453519458120237593209157591,14439.6,1.5911453519458120237593209157591
191,14593.5922028679607251686409090594873,14592.0,1.5922028679607251686409090594873
192,14746.7932548647368677770059538400651,14745.2,1.5932548647368677770059538400651
193,14900.7943013997160024157819737258153,14899.2,1.5943013997160024157819737258153
194,15055.5953425294493183486358177046407,15054.0,1.5953425294493183486358177046407
195,15211.1963783096157736483325717344156,15209.6,1.5963783096157736483325717344156
196,15367.5974087950399677202988377000308,15366.0,1.5974087950399677202988377000308
197,15524.7984340397095586139799532476709,15523.2,1.5984340397095586139799532476709
198,15682.7994540967922392852650198526168,15681.2,1.5994540967922392852650198526168
199,15841.6004690186522856451631393618572,15840.0,1.6004690186522856451631393618572
200,16001.2014788568666903362841532903926,15999.6,1.6014788568666903362841532903926
201,16161.6024836622408932149309004188991,16160.0,1.6024836622408932149309004188991
202,16322.8034834848241219163762277471219,16321.2,1.6034834848241219163762277471219
203,16484.8044783739243531594952681070541,16483.2,1.6044783739243531594952681070541
204,16647.6054683781229064071457801972047,16646.0,1.6054683781229064071457801972047
205,16811.2064535452886798491668261523718,16809.6,1.6064535452886798491668261523718
206,16975.6074339225920417282937438392747,16974.0,1.6074339225920417282937438392747
207,17140.8084095565183828812474841341210,17139.2,1.6084095565183828812474841341210
208,17306.8093804928813447180755068179230,17305.2,1.6093804928813447180755068179230
209,17473.6103467768357283842844742093845,17472.0,1.6103467768357283842844742093845
210,17641.2113084528900966031129432407304,17639.6,1.6113084528900966031129432407304
211,17809.6122655649190755586929978484900,17808.0,1.6122655649190755586929978484900
212,17978.8132181561753670490561055195087,17977.2,1.6132181561753670490561055195087
213,18148.8141662693014752887488903774001,18147.2,1.6141662693014752887488903774001
214,18319.6151099463411633386615190885878,18318.0,1.6151099463411633386615190885878
215,18491.2160492287506383712600857098354,18489.6,1.6160492287506383712600857098354
216,18663.6169841574094797276866401741654,18662.0,1.6169841574094797276866401741654
217,18836.8179147726313137278207503223002,18835.2,1.6179147726313137278207503223002
218,19010.8188411141742442078560422295744,19009.2,1.6188411141742442078560422295744
219,19185.6197632212510420604803551949892,19184.0,1.6197632212510420604803551949892
220,19361.2206811325391062879901713570589,19359.6,1.6206811325391062879901713570589
221,19537.6215948861901944728862303394292,19536.0,1.6215948861901944728862303394292
222,19714.8225045198399398656287497250542,19713.2,1.6225045198399398656287497250542
223,19892.8234100706171486527486078486460,19891.2,1.6234100706171486527486078486460
224,20071.6243115751528924670378237225106,20070.0,1.6243115751528924670378237225106
225,20251.2252090695893986988476275996896,20249.6,1.6252090695893986988476275996896
226,20431.6261025895887421489766530215571,20430.0,1.6261025895887421489766530215571
227,20612.8269921703413466686021056409094,20611.2,1.6269921703413466686021056409094
228,20794.8278778465742985991264618596520,20793.2,1.6278778465742985991264618596520
229,20977.6287596525594791668178019200242,20976.0,1.6287596525594791668178019200242
230,21161.2296376221215205212829198400724,21159.6,1.6296376221215205212829198400724
231,21345.6305117886455872099122820213368,21344.0,1.6305117886455872099122820213368
232,21530.8313821850849935001528904783092,21529.2,1.6313821850849935001528904783092
233,21716.8322488439686515381236369611710,21715.2,1.6322488439686515381236369611710
234,21903.6331117974083664927270726743271,21902.0,1.6331117974083664927270726743271
235,22091.2339710771059718595185789767554,22089.6,1.6339710771059718595185789767554
236,22279.6348267143603146263458879902841,22278.0,1.6348267143603146263458879902841
237,22468.8356787400740939242119732092739,22467.2,1.6356787400740939242119732092739
238,22658.8365271847605548977805130692016,22657.2,1.6365271847605548977805130692016
