Eigenstate,Energy,Kinetic Energy,Potential Energy
1,0.500000000057969501921972289355396581,0.0,0.500000000057969501921972289355396581
2,1.84623093802950961830212363617712330,1.2,0.64623093802950961830212363617712330
3,3.93633761081648162096681651501409439,3.2,0.73633761081648162096681651501409439
4,6.79966528012938245822267648727708774,6.0,0.79966528012938245822267648727708774
5,10.4480465792959964281426346321669144,9.6,0.8480465792959964281426346321669144
6,14.8870660030758713401227738535434592,14.0,0.8870660030758713401227738535434592
7,20.1197208329094720692607324929321180,19.2,0.9197208329094720692607324929321180
8,26.1477838551749647510112422204411853,25.2,0.9477838551749647510112422204411853
9,32.9723835688793499433967557616075447,32.0,0.9723835688793499433967557616075447
10,40.5942802281716674331322161625848137,39.6,0.9942802281716674331322161625848137
11,49.0140094031932863353352022446337490,48.0,1.0140094031932863353352022446337490
12,58.2319621892490881860223474723706737,57.2,1.0319621892490881860223474723706737
13,68.2484327164050867565829359043079588,67.2,1.0484327164050867565829359043079588
14,79.0636476823446057058793576178995368,78.0,1.0636476823446057058793576178995368
15,90.6777854681824731927239426876469498,89.6,1.0777854681824731927239426876469498
16,103.090988943335473119006001464221993,102.0,1.090988943335473119006001464221993
17,116.303374298983853583828151693863486,115.2,1.103374298983853583828151693863486
18,130.315037299077529196719017608529340,129.2,1.115037299077529196719017608529340
19,145.126057803440060726813761115158396,144.0,1.126057803440060726813761115158396
20,160.736503105402593024810043663383155,159.6,1.136503105402593024810043663383155
21,177.146430437885553297437963926465753,176.0,1.146430437885553297437963926465753
22,194.355888884557392065521035012563728,193.2,1.155888884557392065521035012563728
23,212.364920857771108448955301657806145,211.2,1.164920857771108448955301657806145
24,231.173563255964672813482692083375286,230.0,1.173563255964672813482692083375286
25,250.781848380456953545050417200525352,249.6,1.181848380456953545050417200525352
26,271.189804669255305104878932299449606,270.0,1.189804669255305104878932299449606
27,292.397457290018144110257442183679504,291.2,1.197457290018144110257442183679504
28,314.404828623413989372236226357095936,313.2,1.204828623413989372236226357095936
29,337.211938660323413996598479582347910,336.0,1.211938660323413996598479582347910
30,360.818805330680870082883938081845608,359.6,1.218805330680870082883938081845608
31,385.225444777607408054507365828484564,384.0,1.225444777607408054507365828484564
32,410.431871587407413067100483637348296,409.2,1.231871587407413067100483637348296
33,436.438098983692833137213273780720839,435.2,1.238098983692833137213273780720839
34,463.244138992147827366726952398336021,462.0,1.244138992147827366726952398336021
35,490.850002581107567572174852745029077,489.6,1.250002581107567572174852745029077
36,519.255699782091447749285064362963150,518.0,1.255699782091447749285064362963150
37,548.461239793626871254297791514836336,547.2,1.261239793626871254297791514836336
38,578.466631071069366840287747865957740,577.2,1.266631071069366840287747865957740
39,609.271881404626936037067607543709633,608.0,1.271881404626936037067607543709633
40,640.876997987400713579599787294308672,639.6,1.276997987400713579599787294308672
41,673.281987474937272316043365194842974,672.0,1.281987474937272316043365194842974
42,706.486856037532911424996406331915027,705.2,1.286856037532911424996406331915027
43,740.491609406323780426530115097830777,739.2,1.291609406323780426530115097830777
44,775.296252914027597456070090500945222,774.0,1.296252914027597456070090500945222
45,810.900791531065150701154138446306396,809.6,1.300791531065150701154138446306396
46,847.305229897676635618480030469960898,846.0,1.305229897676635618480030469960898
47,884.509572352554403936307239049545214,883.2,1.309572352554403936307239049545214
48,922.513822958436114083014547856359279,921.2,1.313822958436114083014547856359279
49,961.317985525037610138707526059258287,960.0,1.317985525037610138707526059258287
50,1000.92206362965073369310748119260912,999.6,1.32206362965073369310748119260912
51,1041.32606063568580603047362995436735,1040.0,1.32606063568580603047362995436735
52,1082.52997970940017284800463483579397,1081.2,1.32997970940017284800463483579397
53,1124.53382383502175359561460494946823,1123.2,1.33382383502175359561460494946823
54,1167.33759582844897639351834861352824,1166.0,1.33759582844897639351834861352824
55,1210.94129834968500399154532743626128,1209.6,1.34129834968500399154532743626128
56,1255.34493391414408166397362845186182,1254.0,1.34493391414408166397362845186182
57,1300.54850490295063896855378166307414,1299.2,1.34850490295063896855378166307414
58,1346.55201357233698011209941000035326,1345.2,1.35201357233698011209941000035326
59,1393.35546206223264371774449900830954,1392.0,1.35546206223264371774449900830954
60,1440.95885240412748828126358479871037,1439.6,1.35885240412748828126358479871037
61,1489.36218652828099537634516482556790,1488.0,1.36218652828099537634516482556790
62,1538.56546627034198166359422369466045,1537.2,1.36546627034198166359422369466045
63,1588.56869337743566886901808730684919,1587.2,1.36869337743566886901808730684919
64,1639.37186951376874841782704455255856,1638.0,1.37186951376874841782704455255856
65,1690.97499626579754256940769470956020,1689.6,1.37499626579754256940769470956020
66,1743.37807514699951656027219461153281,1742.0,1.37807514699951656027219461153281
67,1796.58110760228413397046024727672019,1795.2,1.38110760228413397046024727672019
68,1850.58409501207529136806172495247261,1849.2,1.38409501207529136806172495247261
69,1905.38703869609425561580064103059283,1904.0,1.38703869609425561580064103059283
70,1960.98993991686909895535654543538059,1959.6,1.38993991686909895535654543538059
71,2017.39279988299402828136843128124029,2016.0,1.39279988299402828136843128124029
72,2074.59561975215970677468556328340387,2073.2,1.39561975215970677468556328340387
73,2132.59840063397361305802639340744258,2131.2,1.39840063397361305802639340744258
74,2191.40114359258766418865338050696119,2190.0,1.40114359258766418865338050696119
75,2251.00384964914869770156852231950958,2249.6,1.40384964914869770156852231950958
76,2311.40651978408595835997874641481442,2310.0,1.40651978408595835997874641481442
77,2372.60915493924843287136228535969056,2371.2,1.40915493924843287136228535969056
78,2434.61175601990371002928662247563365,2433.2,1.41175601990371002928662247563365
79,2497.41432389660899692113628157960692,2496.0,1.41432389660899692113628157960692
80,2561.01685940696398371626407882617540,2559.6,1.41685940696398371626407882617540
81,2625.41936335725440020760286554522636,2624.0,1.41936335725440020760286554522636
82,2690.62183652399434582922105961936055,2689.2,1.42183652399434582922105961936055
83,2756.62427965537478613851551118141412,2755.2,1.42427965537478613851551118141412
84,2823.42669347262498446001907455512007,2822.0,1.42669347262498446001907455512007
85,2891.02907867129307811162652813595199,2889.6,1.42907867129307811162652813595199
86,2959.43143592245149276865290217516444,2958.0,1.43143592245149276865290217516444
87,3028.63376587383243105033869493624182,3027.2,1.43376587383243105033869493624182
88,3098.63606915089824803568035507614582,3097.2,1.43606915089824803568035507614582
89,3169.43834635785114291330307288689004,3168.0,1.43834635785114291330307288689004
90,3241.04059807858625275336352582309735,3239.6,1.44059807858625275336352582309735
91,3313.44282487759191293741958913342481,3312.0,1.44282487759191293741958913342481
92,3386.64502730080056048466475444561066,3385.2,1.44502730080056048466475444561066
93,3460.64720587639349425786942658453417,3459.2,1.44720587639349425786942658453417
94,3535.44936111556246310363315384971734,3534.0,1.44936111556246310363315384971734
95,3611.05149351323083182752283671262484,3609.6,1.45149351323083182752283671262484
96,3687.45360354873687308255536770404900,3686.0,1.45360354873687308255536770404900
97,3764.65569168648154890737395926117146,3763.2,1.45569168648154890737395926117146
98,3842.65775837654297277617212977869661,3841.2,1.45775837654297277617212977869661
99,3921.45980405525958955023080828801536,3920.0,1.45980405525958955023080828801536
100,4001.06182914578396438051747846646671,3999.6,1.46182914578396438051747846646671
101,4081.46383405860894230664212756848448,4080.0,1.46383405860894230664212756848448
102,4162.66581919206781472274359732894325,4161.2,1.46581919206781472274359732894325
103,4244.66778493281002096726689594795340,4243.2,1.46778493281002096726689594795340
104,4327.46973165625380602888218855352744,4326.0,1.46973165625380602888218855352744
105,4411.07165972701716228703861979169622,4409.6,1.47165972701716228703861979169622
106,4495.47356949932829244140295929872640,4494.0,1.47356949932829244140295929872640
107,4580.67546131741675270247734325518330,4579.2,1.47546131741675270247734325518330
108,4666.67733551588635607613639613756576,4665.2,1.47733551588635607613639613756576
109,4753.47919242007084698128948354313371,4752.0,1.47919242007084698128948354313371
110,4841.08103234637329601974918823499883,4839.6,1.48103234637329601974918823499883
111,4929.48285560259009785618831244294169,4928.0,1.48285560259009785618831244294169
112,5018.68466248822040573243454613221239,5017.2,1.48466248822040573243454613221239
113,5108.68645329476178060455773107123625,5107.2,1.48645329476178060455773107123625
114,5199.48822830599278413344844610530129,5198.0,1.48822830599278413344844610530129
115,5291.08998779824320431108408223111521,5289.6,1.48998779824320431108408223111521
116,5383.49173204065255417303034368277902,5382.0,1.49173204065255417303034368277902
117,5476.69346129541745233471963312295663,5475.2,1.49346129541745233471963312295663
118,5570.69517581802845305794186613802943,5569.2,1.49517581802845305794186613802943
119,5665.49687585749685984026739394379033,5664.0,1.49687585749685984026739394379033
120,5761.09856165657203067788668073329418,5759.6,1.49856165657203067788668073329418
121,5857.50023345194964488510700051729682,5856.0,1.50023345194964488510700051729682
122,5954.70189147447138244061397662363094,5953.2,1.50189147447138244061397662363094
123,6052.70353594931643463767372161864898,6051.2,1.50353594931643463767372161864898
124,6151.50516709618524713564263017741136,6150.0,1.50516709618524713564263017741136
125,6251.10678512947586694388913119234932,6249.6,1.50678512947586694388913119234932
126,6351.50839025845324967193384466137075,6350.0,1.50839025845324967193384466137075
127,6452.70998268741186280172848279903341,6451.2,1.50998268741186280172848279903341
128,6554.71156261583189815080407265593811,6553.2,1.51156261583189815080407265593811
129,6657.51313023852939462178073945547808,6656.0,1.51313023852939462178073945547808
130,6761.11468574580055395186437958311994,6759.6,1.51468574580055395186437958311994
131,6865.51622932356051677183731785370000,6864.0,1.51622932356051677183731785370000
132,6970.71776115347685130684985636803806,6969.2,1.51776115347685130684985636803806
133,7076.71928141309799526973451465702734,7075.2,1.51928141309799526973451465702734
134,7183.52079027597688022160762060745869,7182.0,1.52079027597688022160762060745869
135,7291.12228791178994956617919685512310,7289.6,1.52228791178994956617919685512310
136,7399.52377448645177765666220255599929,7398.0,1.52377448645177765666220255599929
137,7508.72525016222548418622902939841950,7507.2,1.52525016222548418622902939841950
138,7618.72671509782912442097200846611774,7617.2,1.52671509782912442097200846611774
139,7729.52816944853823372841978022778922,7728.0,1.52816944853823372841978022778922
140,7841.12961336628468940869256614963451,7839.6,1.52961336628468940869256614963451
141,7953.53104699975204827788998169492125,7952.0,1.53104699975204827788998169492125
142,8066.73247049446751038003781590796260,8065.2,1.53247049446751038003781590796260
143,8180.73388399289065055375098809325154,8179.2,1.53388399289065055375098809325154
144,8295.53528763449905240013321939697435,8294.0,1.53528763449905240013321939697435
145,8411.13668155587097501067443926959441,8409.6,1.53668155587097501067443926959441
146,8527.53806589076517494515672691988164,8526.0,1.53806589076517494515672691988164
147,8644.73944077019799774661324129956320,8643.2,1.53944077019799774661324129956320
148,8762.74080632251785432235139022725746,8761.2,1.54080632251785432235139022725746
149,8881.54216267347718399197764901277120,8880.0,1.54216267347718399197764901277120
150,9001.14350994630200784328356335449259,8999.6,1.54350994630200784328356335449259
151,9121.54484826175916831022995047588406,9120.0,1.54484826175916831022995047588406
152,9242.74617773822134527218052798932395,9241.2,1.54617773822134527218052798932395
153,9364.74749849172993762406048643996487,9363.2,1.54749849172993762406048643996487
154,9487.54881063605589421666309473543752,9486.0,1.54881063605589421666309473543752
155,9611.15011428275857240307814253121439,9609.6,1.55011428275857240307814253121439
156,9735.55140954124270205758601604293448,9734.0,1.55140954124270205758601604293448
157,9860.75269651881352611360068939029337,9859.2,1.55269651881352611360068939029337
158,9986.75397532073018943874339075259696,9985.2,1.55397532073018943874339075259696
159,10113.5552460502574397198601408538516,10112.0,1.5552460502574397198601408538516
160,10241.1565088087157066955011334040464,10239.6,1.5565088087157066955011334040464
161,10369.5577636955296182319610492303486,10368.0,1.5577636955296182319610492303486
162,10498.7590108082750127039601574503357,10497.2,1.5590108082750127039601574503357
163,10628.7602502427245025332435538586182,10627.2,1.5602502427245025332435538586182
164,10759.5614820928916435216725085542378,10758.0,1.5614820928916435216725085542378
165,10891.1627064510737585790039894513485,10889.6,1.5627064510737585790039894513485
166,11023.5639234078934663609256393602488,11022.0,1.5639234078934663609256393602488
167,11156.7651330523389620496446785247070,11155.2,1.5651330523389620496446785247070
168,11290.7663354718030929659232510488553,11289.2,1.5663354718030929659232510488553
169,11425.5675307521212740746295153649360,11424.0,1.5675307521212740746295153649360
170,11561.1687189776082831268997584464374,11559.6,1.5687189776082831268997584464374
171,11697.5699002310939756333512027056121,11696.0,1.5699002310939756333512027056121
172,11834.7710745939579575349829202261274,11833.2,1.5710745939579575349829202261274
173,11972.7722421461632509740750418507832,11971.2,1.5722421461632509740750418507832
174,12111.5734029662889890085798550594575,12110.0,1.5734029662889890085798550594575
175,12251.1745571315621732549174213812590,12249.6,1.5745571315621732549174213812590
176,12391.5757047178885241655083405128185,12390.0,1.5757047178885241655083405128185
177,12532.7768457998824572015609315091659,12531.2,1.5768457998824572015609315091659
178,12674.7779804508962140554891003504088,12673.2,1.5779804508962140554891003504088
179,12817.5791087430481753678866821789561,12816.0,1.5791087430481753678866821789561
180,12961.1802307472503858854375502168178,12959.6,1.5802307472503858854375502168178
181,13105.5813465332353147083276811872354,13104.0,1.5813465332353147083276811872354
182,13250.7824561695818783225251444437400,13249.2,1.5824561695818783225251444437400
183,13396.7835597237407494661823717591035,13395.2,1.5835597237407494661823717591035
184,13543.5846572620589760716772494381123,13542.0,1.5846572620589760716772494381123
185,13691.1857488498039320913972972267573,13689.6,1.5857488498039320913972972267573
186,13839.5868345511866211758662819213956,13838.0,1.5868345511866211758662819213956
187,13988.7879144293843570046921960778039,13987.2,1.5879144293843570046921960778039
188,14138.7889885465628357066312256041416,14137.2,1.5889885465628357066312256041416
189,14289.5900569638976240998363449327084,14288.0,1.5900569638976240998363449327084
190,14441.1911197415950794033461126621389,14439.6,1.5911197415950794033461126621389
191,14593.5921769389127196423428465040946,14592.0,1.5921769389127196423428465040946
192,14746.7932286141790611293604862853052,14745.2,1.5932286141790611293604862853052
193,14900.7942748248129413252663447798126,14899.2,1.5942748248129413252663447798126
194,15055.5953156273423404207759270368529,15054.0,1.5953156273423404207759270368529
195,15211.1963510774227195708348088785447,15209.6,1.5963510774227195708348088785447
196,15367.5973812298548894737432282129240,15366.0,1.5973812298548894737432282129240
197,15524.7984061386024236703192093544019,15523.2,1.5984061386024236703192093544019
198,15682.7994258568086307250540421028392,15681.2,1.5994258568086307250540421028392
199,15841.6004404368130981230891409864695,15840.0,1.6004404368130981230891409864695
200,16001.2014499301678218231881127609610,15999.6,1.6014499301678218231881127609610
201,16161.6024543876529324430961002109246,16160.0,1.6024543876529324430961002109246
202,16322.8034538592920314534120150358613,16321.2,1.6034538592920314534120150358613
203,16484.8044483943671480346685002026454,16483.2,1.6044483943671480346685002026454
204,16647.6054380414333282124958678788723,16646.0,1.6054380414333282124958678788723
205,16811.2064228483328662361955000307831,16809.6,1.6064228483328662361955000307831
206,16975.6074028622091912194344686090190,16974.0,1.6074028622091912194344686090190
207,17140.8083781295204149137011180714638,17139.2,1.6083781295204149137011180714638
208,17306.8093486960525548359405833546069,17305.2,1.6093486960525548359405833546069
209,17473.6103146069324384932135738638339,17472.0,1.6103146069324384932135738638339
210,17641.2112759066403001999915567331446,17639.6,1.6112759066403001999915567331446
211,17809.6122326390220778470605780209215,17808.0,1.6122326390220778470605780209215
212,17978.8131848473014198491712680438193,17977.2,1.6131848473014198491712680438193
213,18148.8141325740914066493384639978886,18147.2,1.6141325740914066493384639978886
214,18319.6150758614060017554897744894736,18318.0,1.6150758614060017554897744894736
215,18491.2160147506712315157043066857599,18489.6,1.6160147506712315157043066857599
216,18663.6169492827361075865079518361686,18662.0,1.6169492827361075865079518361686
217,18836.8178794978832960532771778767911,18835.2,1.6178794978832960532771778767911
218,19010.8188054358395421752111824246654,19009.2,1.6188054358395421752111824246654
219,19185.6197271357858540278184042753029,19184.0,1.6197271357858540278184042753029
220,19361.2206446363674575510542694448874,19359.6,1.6206446363674575510542694448874
221,19537.6215579757035209054114666728387,19536.0,1.6215579757035209054114666728387
222,19714.8224671913966653333374037587357,19713.2,1.6224671913966653333374037587357
223,19892.8233723205422560868207841820113,19891.2,1.6233723205422560868207841820113
224,20071.6242733997374884804561568497917,20070.0,1.6242733997374884804561568497917
225,20251.2251704650902716265395783255553,20249.6,1.6251704650902716265395783255553
226,20431.6260635522279133901469087611383,20430.0,1.6260635522279133901469087611383
227,20612.8269526963056152070520512650573,20611.2,1.6269526963056152070520512650573
228,20794.8278379320147785746964040729313,20793.2,1.6278379320147785746964040729313
229,20977.6287192935911303683632347565828,20976.0,1.6287192935911303683632347565828
230,21161.2295968148226716688057383885988,21159.6,1.6295968148226716688057383885988
231,21345.6304705290574518906030227024130,21344.0,1.6304705290574518906030227024130
232,21530.8313404692111786201683048654882,21529.2,1.6313404692111786201683048654882
233,21716.8322066677746581489186501036718,21715.2,1.6322066677746581489186501036718
234,21903.6330691568210828476760015655685,21902.0,1.6330691568210828476760015655685
235,22091.2339279680131585534041799062702,22089.6,1.6339279680131585534041799062702
236,22279.6347831326100816670544209527996,22278.0,1.6347831326100816670544209527996
237,22468.8356346814743695826512628349383,22467.2,1.6356346814743695826512628349383
238,22658.8364826450785461786342081419435,22657.2,1.6364826450785461786342081419435
