Eigenstate,Energy,Kinetic Energy,Potential Energy
1,0.500000000023319419770290154389773441,0.0,0.500000000023319419770290154389773441
2,1.84623093780333156186641128743654283,1.2,0.64623093780333156186641128743654283
3,3.93633761015210010831360467355289710,3.2,0.73633761015210010831360467355289710
4,6.79966527874554671457228724996970448,6.0,0.79966527874554671457228724996970448
5,10.4480465768988988887127626493481844,9.6,0.8480465768988988887127626493481844
6,14.8870659993665555841497548630968878,14.0,0.8870659993665555841497548630968878
7,20.1197208275865616486450667812345899,19.2,0.9197208275865616486450667812345899
8,26.1477838479358006249456792942903246,25.2,0.9477838479358006249456792942903246
9,32.9723835594205188355567885772229682,32.0,0.9723835594205188355567885772229682
10,40.5942802161892694885417407432287784,39.6,0.9942802161892694885417407432287784
11,49.0140093883830800507111214521993820,48.0,1.0140093883830800507111214521993820
12,58.2319621713065727998416825007800535,57.2,1.0319621713065727998416825007800535
13,68.2484326950255505912816004540586339,67.2,1.0484326950255505912816004540586339
14,79.0636476572231549147333329126825080,78.0,1.0636476572231549147333329126825080
15,90.6777854390140486845155617783736104,89.6,1.0777854390140486845155617783736104
16,103.090988909814860055806431103527115,102.0,1.090988909814860055806431103527115
17,116.303374260805686046913800871931373,115.2,1.103374260805686046913800871931373
18,130.315037255936291611323970209758196,129.2,1.115037255936291611323970209758196
19,145.126057755030087053374263469609545,144.0,1.126057755030087053374263469609545
20,160.736503051418064373787267665350819,159.6,1.136503051418064373787267665350819
21,177.146430378020494407359816897315915,176.0,1.146430378020494407359816897315915
22,194.355888818505666945219123119771645,193.2,1.155888818505666945219123119771645
23,212.364920785226415394321601936884473,211.2,1.164920785226415394321601936884473
24,231.173563176620538948465237596218999,230.0,1.173563176620538948465237596218999
25,250.781848294006728995259635580944933,249.6,1.181848294006728995259635580944933
26,271.189804575392156883442331110468050,270.0,1.189804575392156883442331110468050
27,292.397457188435049775253247805758962,291.2,1.197457188435049775253247805758962
28,314.404828513803730500462133457706323,313.2,1.204828513803730500462133457706323
29,337.211938542378569507822291166938134,336.0,1.211938542378569507822291166938134
30,360.818805204093809440898336465529122,359.6,1.218805204093809440898336465529122
31,385.225444642070284365470176665869559,384.0,1.225444642070284365470176665869559
32,410.431871442612156091232632090416987,409.2,1.231871442612156091232632090416987
33,436.438098829331142226563319184419160,435.2,1.238098829331142226563319184419160
34,463.244138827911164339120593884944454,462.0,1.244138827911164339120593884944454
35,490.850002406687149529454281014587406,489.6,1.250002406687149529454281014587406
36,519.255699597178239846364740959793798,518.0,1.255699597178239846364740959793798
37,548.461239597911579424316043773563201,547.2,1.261239597911579424316043773563201
38,578.466630864242430480140741808275480,577.2,1.266630864242430480140741808275480
39,609.271881186378520656816233605519682,608.0,1.271881186378520656816233605519682
40,640.876997757420703418597454520281692,639.6,1.276997757420703418597454520281692
41,673.281987232915262928110885398905169,672.0,1.281987232915262928110885398905169
42,706.486855783158202234543677819973787,705.2,1.286855783158202234543677819973787
43,740.491609139285367257173852229630858,739.2,1.291609139285367257173852229630858
44,775.296252634014165033007311600488969,774.0,1.296252634014165033007311600488969
45,810.900791237765065128310594454855236,809.6,1.300791237765065128310594454855236
46,847.305229590777936831251957852498568,846.0,1.305229590777936831251957852498568
47,884.509572031744798130546489921976610,883.2,1.309572031744798130546489921976610
48,922.513822623402966120765207905970900,921.2,1.313822623402966120765207905970900
49,961.317985175467935931082080566878433,960.0,1.317985175467935931082080566878433
50,1000.92206326523119256058853822314499,999.6,1.32206326523119256058853822314499
51,1041.32606025610269304084004095734959,1040.0,1.32606025610269304084004095734959
52,1082.52997931433941113200620962748815,1081.2,1.32997931433941113200620962748815
53,1124.53382342416888664045537971904126,1123.2,1.33382342416888664045537971904126
54,1167.33759540148916031415285500427291,1166.0,1.33759540148916031415285500427291
55,1210.94129790630299977974415332180132,1209.6,1.34129790630299977974415332180132
56,1255.34493345402424741507268912345338,1254.0,1.34493345402424741507268912345338
57,1300.54850442577692208576513182614621,1299.2,1.34850442577692208576513182614621
58,1346.55201307779290948822919585051455,1345.2,1.35201307779290948822919585051455
59,1393.35546155000132189413550693038479,1392.0,1.35546155000132189413550693038479
60,1440.95885187389158358375476773776089,1439.6,1.35885187389158358375476773776089
61,1489.36218597972273402801838549692026,1488.0,1.36218597972273402801838549692026
62,1538.56546570314313987405862462294125,1537.2,1.36546570314313987405862462294125
63,1588.56869279127756489996491392791345,1587.2,1.36869279127756489996491392791345
64,1639.37186890833223462457187383530028,1638.0,1.37186890833223462457187383530028
65,1690.97499564076299741812267057393000,1689.6,1.37499564076299741812267057393000
66,1743.37807450204683662059796253974121,1742.0,1.37807450204683662059796253974121
67,1796.58110693709272588317554862559365,1795.2,1.38110693709272588317554862559365
68,1850.58409432632406378747783864532884,1849.2,1.38409432632406378747783864532884
69,1905.38703798946161112653795733810006,1904.0,1.38703798946161112653795733810006
70,1960.98993918903292596315168987292659,1959.6,1.38993918903292596315168987292659
71,2017.39279913363169287755170765501719,2016.0,1.39279913363169287755170765501719
72,2074.59561898094804457396098169448617,2073.2,1.39561898094804457396098169448617
73,2132.59839984058892100917908015647193,2131.2,1.39839984058892100917908015647193
74,2191.40114277670569235780248974139863,2190.0,1.40114277670569235780248974139863
75,2251.00384881044464102757728857907358,2249.6,1.40384881044464102757728857907358
76,2311.40651892223444838162739922047125,2310.0,1.40651892223444838162739922047125
77,2372.60915405392352942588368939658695,2371.2,1.40915405392352942588368939658695
78,2434.61175511077889292185910102664443,2433.2,1.41175511077889292185910102664443
79,2497.41432296335715756492283467491449,2496.0,1.41432296335715756492283467491449
80,2561.01685844925741674258224963939847,2559.6,1.41685844925741674258224963939847
81,2625.41936237476479504580459185546552,2624.0,1.41936237476479504580459185546552
82,2690.62183551639277825585720848230652,2689.2,1.42183551639277825585720848230652
83,2756.62427862233170979535526335156104,2755.2,1.42427862233170979535526335156104
84,2823.42669241381022234048990223260929,2822.0,1.42669241381022234048990223260929
85,2891.02907758637581401523612848098268,2889.6,1.42907758637581401523612848098268
86,2959.43143481110026272295036506448435,2958.0,1.43143481110026272295036506448435
87,3028.63376473571511469996783708570727,3027.2,1.43376473571511469996783708570727
88,3098.63606798568205999807418942165344,3097.2,1.43606798568205999807418942165344
89,3169.43834516520262410056430625717475,3168.0,1.43834516520262410056430625717475
90,3241.04059685817126165987198679191513,3239.6,1.44059685817126165987198679191513
91,3313.44282362907561689270348858995626,3312.0,1.44282362907561689270348858995626
92,3386.64502602384742687106877709044015,3385.2,1.44502602384742687106877709044015
93,3460.64720457066728169254874015876883,3459.2,1.44720457066728169254874015876883
94,3535.44935978072621258439848160344917,3534.0,1.44935978072621258439848160344917
95,3611.05149214894685784205783487419829,3609.6,1.45149214894685784205783487419829
96,3687.45360215466675468052377259199276,3686.0,1.45360215466675468052377259199276
97,3764.65569026228612073492983542904838,3763.2,1.45569026228612073492983542904838
98,3842.65775692188231607238292664727384,3841.2,1.45775692188231607238292664727384
99,3921.45980256979302310491875959120353,3920.0,1.45980256979302310491875959120353
100,4001.06182762917003545302113222393471,3999.6,1.46182762917003545302113222393471
101,4081.46383251050541750499573321003064,4080.0,1.46383251050541750499573321003064
102,4162.66581761213167084276812306024568,4161.2,1.46581761213167084276812306024568
103,4244.66778332069743579106260102029595,4243.2,1.46778332069743579106260102029595
104,4327.46973001162014908220834705352000,4326.0,1.46973001162014908220834705352000
105,4411.07165804951698555506222007938577,4409.6,1.47165804951698555506222007938577
106,4495.47356778861532104229395516820526,4494.0,1.47356778861532104229395516820526
107,4580.67545957314387551832407102948625,4579.2,1.47545957314387551832407102948625
108,4666.67733373770561634065038842803124,4665.2,1.47733373770561634065038842803124
109,4753.47919060763343282376494470620752,4752.0,1.47919060763343282376494470620752
110,4841.08103049932953096473797041985994,4839.6,1.48103049932953096473797041985994
111,4929.48285372058943127834712840208940,4928.0,1.48285372058943127834712840208940
112,5018.68466057091140326599670500385191,5017.2,1.48466057091140326599670500385191
113,5108.68645134179211450687736844606721,5107.2,1.48645134179211450687736844606721
114,5199.48822631700922360206080800407873,5198.0,1.48822631700922360206080800407873
115,5291.08998577289160575372093693043384,5289.6,1.48998577289160575372093693043384
116,5383.49172997857785143002517210225457,5382.0,1.49172997857785143002517210225457
117,5476.69345919626364685323250332560612,5475.2,1.49345919626364685323250332560612
118,5570.69517368143860401742953300011318,5569.2,1.49517368143860401742953300011318
119,5665.49687368311307422861932354269972,5664.0,1.49687368311307422861932354269972
120,5761.09855944403545331764294654057388,5759.6,1.49855944403545331764294654057388
121,5857.50023120090044840916939796480791,5856.0,1.50023120090044840916939796480791
122,5954.70188918454875721685672510913437,5953.2,1.50188918454875721685672510913437
123,6052.70353362015857864185525599702113,6051.2,1.50353362015857864185525599702113
124,6151.50516472742935577201512471596120,6150.0,1.50516472742935577201512471596120
125,6251.10678272075812281289722057283979,6249.6,1.50678272075812281289722057283979
126,6351.50838780940881228438908595585171,6350.0,1.50838780940881228438908595585171
127,6452.70998019767485823884092661571953,6451.2,1.50998019767485823884092661571953
128,6554.71156008503540866944699778767130,6553.2,1.51156008503540866944699778767130
129,6657.51312766630544820435951032075359,6656.0,1.51312766630544820435951032075359
130,6761.11468313178011380015496473033110,6759.6,1.51468313178011380015496473033110
131,6865.51622666737347074415472066647038,6864.0,1.51622666737347074415472066647038
132,6970.71775845475200129790083546399523,6969.2,1.51775845475200129790083546399523
133,7076.71927867146304653250421892083603,7075.2,1.51927867146304653250421892083603
134,7183.52078749105843063062332711208857,7182.0,1.52078749105843063062332711208857
135,7291.12228508321347882148913005033054,7289.6,1.52228508321347882148913005033054
136,7399.52377161384163642786168519077753,7398.0,1.52377161384163642786168519077753
137,7508.72524724520488319586013489581080,7507.2,1.52524724520488319586013489581080
138,7618.72671213602012346661726448238423,7617.2,1.52671213602012346661726448238423
139,7729.52816644156173064280423943477777,7728.0,1.52816644156173064280423943477777
140,7841.12961031376040895710276705031719,7839.6,1.52961031376040895710276705031719
141,7953.53104390129853099221204218170461,7952.0,1.53104390129853099221204218170461
142,8066.73246734970210132871076100763629,8065.2,1.53246734970210132871076100763629
143,8180.73388080142948804692516448557093,8179.2,1.53388080142948804692516448557093
144,8295.53528439595705662931712686158177,8294.0,1.53528439595705662931712686158177
145,8411.13667826986183662214713001535587,8409.6,1.53667826986183662214713001535587
146,8527.53806255690134354641617701906071,8526.0,1.53806255690134354641617701906071
147,8644.73943738809067034512457403848210,8643.2,1.53943738809067034512457403848210
148,8762.74080289177696369585220075786615,8761.2,1.54080289177696369585220075786615
149,8881.54215919371138698959070831218950,8880.0,1.54215919371138698959070831218950
150,9001.14350641711867361668071672344539,8999.6,1.54350641711867361668071672344539
151,9121.54484468276436647408346395775328,9120.0,1.54484468276436647408346395775328
152,9242.74617410901983399313163751523124,9241.2,1.54617410901983399313163751523124
153,9364.74749481192515163742747683999408,9363.2,1.54749481192515163742747683999408
154,9487.54880690524993277010423640891955,9486.0,1.54880690524993277010423640891955
155,9611.15011050055218712641727049049715,9609.6,1.55011050055218712641727049049715
156,9735.55140570723528475800109095601469,9734.0,1.55140570723528475800109095601469
157,9860.75269263260309649536850340326742,9859.2,1.55269263260309649536850340326742
158,9986.75397138191338274672564215956899,9985.2,1.55397138191338274672564215956899
159,10113.5552420584294943059085812798717,10112.0,1.5552420584294943059085812798717
160,10241.1565047634704515069516143347548,10239.6,1.5565047634704515069516143347548
161,10369.5577595964594602213784231513185,10368.0,1.5577595964594602213784231513185
162,10498.7590066549709241592878628065869,10497.2,1.5590066549709241592878628065869
163,10628.7602460347760083275039688833730,10627.2,1.5602460347760083275039688833730
164,10759.5614778298868082813554842974176,10758.0,1.5614778298868082813554842974176
165,10891.1627021325991737702728403114251,10889.6,1.5627021325991737702728403114251
166,11023.5639190335342372927616246482983,11022.0,1.5639190335342372927616246482983
167,11156.7651286216786947930422755509913,11155.2,1.5651286216786947930422755509913
168,11290.7663309844238811882398107021371,11289.2,1.5663309844238811882398107021371
169,11425.5675262076036857881844326681034,11424.0,1.5675262076036857881844326681034
170,11561.1687143755313473509090305724272,11559.6,1.5687143755313473509090305724272
171,11697.5698955710351689682745597473296,11696.0,1.5698955710351689682745597473296
172,11834.7710698754931906483515487890004,11833.2,1.5710698754931906483515487890004
173,11972.7722373688668549968586359613302,11971.2,1.5722373688668549968586359613302
174,12111.5733981297337018411424499963067,12110.0,1.5733981297337018411424499963067
175,12251.1745522353191257816019487747198,12249.6,1.5745522353191257816019487747198
176,12391.5756997615272263768803219601856,12390.0,1.5756997615272263768803219601856
177,12532.7768407829707842233320027156444,12531.2,1.5768407829707842233320027156444
178,12674.7779753730003920831311965807747,12673.2,1.5779753730003920831311965807747
179,12817.5791036037327675059378677330131,12816.0,1.5791036037327675059378677330131
180,12961.1802255460782778904901650678209,12959.6,1.5802255460782778904901650678209
181,13105.5813412697677006346795297140843,13104.0,1.5813412697677006346795297140843
182,13250.7824508433782460694638901117394,13249.2,1.5824508433782460694638901117394
183,13396.7835543343588662258629156057922,13395.2,1.5835543343588662258629156057922
184,13543.5846518090548736765412729284898,13542.0,1.5846518090548736765412729284898
185,13691.1857433327318922600730586398633,13689.6,1.5857433327318922600730586398633
186,13839.5868289695991606564766102529279,13838.0,1.5868289695991606564766102529279
187,13988.7879087828322126144866686174348,13987.2,1.5879087828322126144866686174348
188,14138.7889828345949492668479829180864,14137.2,1.5889828345949492668479829180864
189,14289.5900511860611272646874223651526,14288.0,1.5900511860611272646874223651526
190,14441.1911138974352783820085973643226,14439.6,1.5911138974352783820085973643226
191,14593.5921710279730798128267609558441,14592.0,1.5921710279730798128267609558441
192,14746.7932226360011915431122747590705,14745.2,1.5932226360011915431122747590705
193,14900.7942687789365791013551486177190,14899.2,1.5942687789365791013551486177190
194,15055.5953095133053350284974502049588,15054.0,1.5953095133053350284974502049588
195,15211.1963448947610169995556591247601,15209.6,1.5963448947610169995556591247601
196,15367.5973749781025162887958826034259,15366.0,1.5973749781025162887958826034259
197,15524.7983998172914709537453006709274,15523.2,1.5983998172914709537453006709274
198,15682.7994194654692378999811134132988,15681.2,1.5994194654692378999811134132988
199,15841.6004339749734366605126723956884,15840.0,1.6004339749734366605126723956884
200,16001.2014433973540788299178803400365,15999.6,1.6014433973540788299178803400365
201,16161.6024477833892941296127935227345,16160.0,1.6024477833892941296127935227345
202,16322.8034471831006664803659840420814,16321.2,1.6034471831006664803659840420814
203,16484.8044416457681907367396884889962,16483.2,1.6044416457681907367396884889962
204,16647.6054312199448616983195490778416,16646.0,1.6054312199448616983195490778416
205,16811.2064159534709053630449561983427,16809.6,1.6064159534709053630449561983427
206,16975.6073958934876654413372203477864,16974.0,1.6073958934876654413372203477864
207,17140.8083710864511510016510979618351,17139.2,1.6083710864511510016510979618351
208,17306.8093415781452594688544521306683,17305.2,1.6093415781452594688544521306683
209,17473.6103074136946807182638503829348,17472.0,1.6103074136946807182638503829348
210,17641.2112686375774937609352199831628,17639.6,1.6112686375774937609352199831628
211,17809.6122252936374633791661229305011,17808.0,1.6122252936374633791661229305011
212,17978.8131774250960469393319237255974,17977.2,1.6131774250960469393319237255974
213,18148.8141250745641157599439315857133,18147.2,1.6141250745641157599439315857133
214,18319.6150682840534060106131448714539,18318.0,1.6150682840534060106131448714539
215,18491.2160070949876983481445042317764,18489.6,1.6160070949876983481445042317764
216,18663.6169415482137402442122916269439,18662.0,1.6169415482137402442122916269439
217,18836.8178716840119149636521534349353,18835.2,1.6178716840119149636521534349353
218,19010.8187975421066661658129057600250,19009.2,1.6187975421066661658129057600250
219,19185.6197191616766814018971022950610,19184.0,1.6197191616766814018971022950610
220,19361.2206365813648470164110495544630,19359.6,1.6206365813648470164110495544630
221,19537.6215498392879723550070120889659,19536.0,1.6215498392879723550070120889659
222,19714.8224589730463004760758296644776,19713.2,1.6224589730463004760758296644776
223,19892.8233640197327989269137782497358,19891.2,1.6233640197327989269137782497358
224,20071.6242650159422456437543728949479,20070.0,1.6242650159422456437543728949479
225,20251.2251619977801125322001464250047,20249.6,1.6251619977801125322001464250047
226,20431.6260550008712502659875589046494,20430.0,1.6260550008712502659875589046494
227,20612.8269440603683829469237689785224,20611.2,1.6269440603683829469237689785224
228,20794.8278292109604144361868570475377,20793.2,1.6278292109604144361868570475377
229,20977.6287104868805535091249291430942,20976.0,1.6287104868805535091249291430942
230,21161.2295879219142625197827081616960,21159.6,1.6295879219142625197827081616960
231,21345.6304615494070313644101573523522,21344.0,1.6304615494070313644101573523522
232,21530.8313314022719871528579285012900,21529.2,1.6313314022719871528579285012900
233,21716.8321975129973345733478970432361,21715.2,1.6321975129973345733478970432361
234,21903.6330599136536430966684893763161,21902.0,1.6330599136536430966684893763161
235,22091.2339186359009741908783204247244,22089.6,1.6339186359009741908783204247244
236,22279.6347737109958582452698435754782,22278.0,1.6347737109958582452698435754782
237,22468.8356251697981248237031548633286,22467.2,1.6356251697981248237031548633286
238,22658.8364730427775879783037543992333,22657.2,1.6364730427775879783037543992333
