Eigenstate,Energy,Kinetic Energy,Potential Energy
1,0.500000000026444094060888919303514983,0.0,0.500000000026444094060888919303514983
2,1.84623093782372780378586439706517524,1.2,0.64623093782372780378586439706517524
3,3.93633761021201240737831736592974884,3.2,0.73633761021201240737831736592974884
4,6.79966527887033714742716660749425585,6.0,0.79966527887033714742716660749425585
5,10.4480465771150613556773895423965894,9.6,0.8480465771150613556773895423965894
6,14.8870659997010475969052895126683104,14.0,0.8870659997010475969052895126683104
7,20.1197208280665580700052118823702224,19.2,0.9197208280665580700052118823702224
8,26.1477838485885909171448118244726688,25.2,0.9477838485885909171448118244726688
9,32.9723835602734592337385587650192305,32.0,0.9723835602734592337385587650192305
10,40.5942802172697586835094597828632842,39.6,0.9942802172697586835094597828632842
11,49.0140093897185459387411938256140161,48.0,1.0140093897185459387411938256140161
12,58.2319621729244648720817250978476527,57.2,1.0319621729244648720817250978476527
13,68.2484326969533353933375200703842327,67.2,1.0484326969533353933375200703842327
14,79.0636476594883132731334251985316324,78.0,1.0636476594883132731334251985316324
15,90.6777854416440739990772746152168929,89.6,1.0777854416440739990772746152168929
16,103.090988912837257261530988078044708,102.0,1.090988912837257261530988078044708
17,116.303374264247971011381752454325129,115.2,1.103374264247971011381752454325129
18,130.315037259825990824131355213095958,129.2,1.115037259825990824131355213095958
19,145.126057759394737516726584793832982,144.0,1.126057759394737516726584793832982
20,160.736503056285213634981861193544555,159.6,1.136503056285213634981861193544555
21,177.146430383417700693495755508719030,176.0,1.146430383417700693495755508719030
22,194.355888824460499372978111088152162,193.2,1.155888824460499372978111088152162
23,212.364920791766454235837939599687913,211.2,1.164920791766454235837939599687913
24,231.173563183773375939768069299623983,230.0,1.173563183773375939768069299623983
25,250.781848301799967677499234934696127,249.6,1.181848301799967677499234934696127
26,271.189804583853412969703251829428500,270.0,1.189804583853412969703251829428500
27,292.397457197591951537588335559562460,291.2,1.197457197591951537588335559562460
28,314.404828523683919173095608760688454,313.2,1.204828523683919173095608760688454
29,337.211938553009699703426772312266476,336.0,1.211938553009699703426772312266476
30,360.818805215503549577556202584090133,359.6,1.218805215503549577556202584090133
31,385.225444654286317102456321198131214,384.0,1.225444654286317102456321198131214
32,410.431871455662178772153200776537868,409.2,1.231871455662178772153200776537868
33,436.438098843242867328688256271442381,435.2,1.238098843242867328688256271442381
34,463.244138842712319927981363142823783,462.0,1.244138842712319927981363142823783
35,490.850002422405479717959634503213963,489.6,1.250002422405479717959634503213963
36,519.255699613841505257829673472714762,518.0,1.255699613841505257829673472714762
37,548.461239615547557658911473146675083,547.2,1.261239615547557658911473146675083
38,578.466630882878916584360915544198714,577.2,1.266630882878916584360915544198714
39,609.271881206043327595632586576050444,608.0,1.271881206043327595632586576050444
40,640.876997778141662550025505716312091,639.6,1.276997778141662550025505716312091
41,673.281987254720224479963756215448974,672.0,1.281987254720224479963756215448974
42,706.486855806075035783184196379533362,705.2,1.286855806075035783184196379533362
43,740.491609163341962208108736501995041,739.2,1.291609163341962208108736501995041
44,775.296252659238431103192966307830097,774.0,1.296252659238431103192966307830097
45,810.900791264184932830061661386517556,809.6,1.300791264184932830061661386517556
46,847.305229618421357957661796731600614,846.0,1.305229618421357957661796731600614
47,884.509572060639746242343860020486161,883.2,1.309572060639746242343860020486161
48,922.513822653577437034544142299325567,921.2,1.313822653577437034544142299325567
49,961.317985206949948208852686279151932,960.0,1.317985206949948208852686279151932
50,1000.92206329804878800060557383240384,999.6,1.32206329804878800060557383240384
51,1041.32606029028393716967389488782049,1040.0,1.32606029028393716967389488782049
52,1082.52997934991239369782754417550137,1081.2,1.32997934991239369782754417550137
53,1124.53382346116172210751040825233823,1123.2,1.33382346116172210751040825233823
54,1167.33759543992998835841113228769470,1166.0,1.33759543992998835841113228769470
55,1210.94129794621998578570500689371383,1209.6,1.34129794621998578570500689371383
56,1255.34493349544558297372009574372047,1254.0,1.34493349544558297372009574372047
57,1300.54850446873082549366404769924565,1299.2,1.34850446873082549366404769924565
58,1346.55201312230762624775914876872873,1345.2,1.35201312230762624775914876872873
59,1393.35546159610512521485969775366421,1392.0,1.35546159610512521485969775366421
60,1440.95885192161277488492508033044847,1439.6,1.35885192161277488492508033044847
61,1489.36218602908964344221859912865532,1488.0,1.36218602908964344221859912865532
62,1538.56546575418412675198979201362539,1537.2,1.36546575418412675198979201362539
63,1588.56869284402101831637834952785062,1587.2,1.36869284402101831637834952785062
64,1639.37186896280657388535650958670687,1638.0,1.37186896280657388535650958670687
65,1690.97499569699667256855471986739254,1689.6,1.37499569699667256855471986739254
66,1743.37807456006832895476186744954460,1742.0,1.37807456006832895476186744954460
67,1796.58110699693054845456613457752698,1795.2,1.38110699693054845456613457752698
68,1850.58409438800676192079444209149854,1849.2,1.38409438800676192079444209149854
69,1905.38703805301776293068206274010699,1904.0,1.38703805301776293068206274010699
70,1960.98993925449114284544027570375599,1959.6,1.38993925449114284544027570375599
71,2017.39279920102062005915916257681332,2016.0,1.39279920102062005915916257681332
72,2074.59561905029636160660298719283365,2073.2,1.39561905029636160660298719283365
73,2132.59839991192534229305240064910327,2131.2,1.39839991192534229305240064910327
74,2191.40114285005896766079507146398970,2190.0,1.40114285005896766079507146398970
75,2251.00384888584355600576351026207341,2249.6,1.40384888584355600576351026207341
76,2311.40651899970782510106371917066685,2310.0,1.40651899970782510106371917066685
77,2372.60915413350022688572030690951226,2371.2,1.40915413350022688572030690951226
78,2434.61175519248780757878359240264577,2433.2,1.41175519248780757878359240264577
79,2497.41432304722722385895205238620015,2496.0,1.41432304722722385895205238620015
80,2561.01685853531760762421905826220313,2559.6,1.41685853531760762421905826220313
81,2625.41936246304412250457631390102646,2624.0,1.41936246304412250457631390102646
82,2690.62183560692029385025290442056909,2689.2,1.42183560692029385025290442056909
83,2756.62427871513650518417922330891854,2755.2,1.42427871513650518417922330891854
84,2823.42669250892142981564895791270457,2822.0,1.42669250892142981564895791270457
85,2891.02907768382260703597863124504585,2889.6,1.42907768382260703597863124504585
86,2959.43143491091185645157486873188010,2958.0,1.43143491091185645157486873188010
87,3028.63376483792076653901974427967086,3027.2,1.43376483792076653901974427967086
88,3098.63606809031107012904881849708255,3097.2,1.43606809031107012904881849708255
89,3169.43834527228433602413499355417960,3168.0,1.43834527228433602413499355417960
90,3241.04059696773506273766205715946998,3239.6,1.44059696773506273766205715946998
91,3313.44282374115093889062108102131469,3312.0,1.44282374115093889062108102131469
92,3386.64502613846374650422368829629863,3385.2,1.44502613846374650422368829629863
93,3460.64720468785412117177060664086923,3459.2,1.44720468785412117177060664086923
94,3535.44935990051314016437579571570759,3534.0,1.44935990051314016437579571570759
95,3611.05149227136348837111743211699901,3609.6,1.45149227136348837111743211699901
96,3687.45360227974275015207059084088485,3686.0,1.45360227974275015207059084088485
97,3764.65569039005119084056689454477524,3763.2,1.45569039005119084056689454477524
98,3842.65775705236621875673162664247680,3841.2,1.45775705236621875673162664247680
99,3921.45980270302556512215974274465231,3920.0,1.45980270302556512215974274465231
100,4001.06182776518107292517609333260211,3999.6,1.46182776518107292517609333260211
101,4081.46383264932485648197071692521161,4080.0,1.46383264932485648197071692521161
102,4162.66581775378946786417897822379306,4161.2,1.46581775378946786417897822379306
103,4244.66778346522359844986340370196685,4243.2,1.46778346522359844986340370196685
104,4327.46973015904473659014375772518658,4326.0,1.46973015904473659014375772518658
105,4411.07165819987010930996485423429156,4409.6,1.47165819987010930996485423429156
106,4495.47356794192714519724801191202807,4494.0,1.47356794192714519724801191202807
107,4580.67545972944461755271658485741644,4579.2,1.47545972944461755271658485741644
108,4666.67733389702554763313161275973758,4665.2,1.47733389702554763313161275973758
109,4753.47919077000287922713952242881878,4752.0,1.47919077000287922713952242881878
110,4841.08103066477887338280866707841918,4839.6,1.48103066477887338280866707841918
111,4929.48285388914910624473305361537287,4928.0,1.48285388914910624473305361537287
112,5018.68466074261190352494809235111699,5017.2,1.48466074261190352494809235111699
113,5108.68645151666398959610911303140673,5107.2,1.48645151666398959610911303140673
114,5199.48822649508308043762709076142456,5198.0,1.48822649508308043762709076142456
115,5291.08998595419810921695343722942593,5289.6,1.48998595419810921695343722942593
116,5383.49173016314772495655748036497959,5382.0,1.49173016314772495655748036497959
117,5476.69345938412767302413349243179538,5475.2,1.49345938412767302413349243179538
118,5570.69517387262762515246861106212845,5569.2,1.49517387262762515246861106212845
119,5665.49687387765799298168659789723141,5664.0,1.49687387765799298168659789723141
120,5761.09855964196723327434750984518491,5759.6,1.49855964196723327434750984518491
121,5857.50023140225011468663906132755485,5856.0,1.50023140225011468663906132755485
122,5954.70188938934739706576269655531151,5953.2,1.50188938934739706576269655531151
123,6052.70353382843734205068538717941260,6051.2,1.50353382843734205068538717941260
124,6151.50516493921945607361950774590895,6150.0,1.50516493921945607361950774590895
125,6251.10678293609083729333007199488490,6249.6,1.50678293609083729333007199488490
126,6351.50838802831548279407098829438986,6350.0,1.50838802831548279407098829438986
127,6452.70998042018689180606567078286777,6451.2,1.50998042018689180606567078286777
128,6554.71156031118427811625740310044313,6553.2,1.51156031118427811625740310044313
129,6657.51312789612269276481678099660652,6656.0,1.51312789612269276481678099660652
130,6761.11468336529733974102625507941588,6759.6,1.51468336529733974102625507941588
131,6865.51622690462235198804378712144841,6864.0,1.51622690462235198804378712144841
132,6970.71775869576428004884678808448624,6969.2,1.51775869576428004884678808448624
133,7076.71927891627053390407350604373331,7075.2,1.51927891627053390407350604373331
134,7183.52078773969300727652036312600260,7182.0,1.52078773969300727652036312600260
135,7291.12228533570709556871102324157551,7289.6,1.52228533570709556871102324157551
136,7399.52377187022631491242271804538033,7398.0,1.52377187022631491242271804538033
137,7508.72524750551271650111185969237210,7507.2,1.52524750551271650111185969237210
138,7618.72671240028327676419021125203464,7617.2,1.52671240028327676419021125203464
139,7729.52816670981244183619739746529572,7728.0,1.52816670981244183619739746529572
140,7841.12961058603098932794717762479107,7839.6,1.52961058603098932794717762479107
141,7953.53104417762136584923503937154405,7952.0,1.53104417762136584923503937154405
142,8066.73246763010965065942755342608600,8065.2,1.53246763010965065942755342608600
143,8180.73388108595428717208458565898508,8179.2,1.53388108595428717208458565898508
144,8295.53528468463171686012867784444702,8294.0,1.53528468463171686012867784444702
145,8411.13667856271904592031646820156433,8409.6,1.53667856271904592031646820156433
146,8527.53806285397386718701651713099421,8526.0,1.53806285397386718701651713099421
147,8644.73943768941135158233158097624031,8643.2,1.53943768941135158233158097624031
148,8762.74080319737872443157015477889087,8761.2,1.54080319737872443157015477889087
149,8881.54215950362722844499790120569916,8880.0,1.54215950362722844499790120569916
150,9001.14350673138167700672227280365740,8999.6,1.54350673138167700672227280365740
151,9121.54484500140769368493992808949752,9120.0,1.54484500140769368493992808949752
152,9242.74617443207672826269187190095594,9241.2,1.54617443207672826269187190095594
153,9364.74749513942893823879463205603703,9363.2,1.54749513942893823879463205603703
154,9487.54880723723401969816369694846846,9486.0,1.54880723723401969816369694846846
155,9611.15011083705006578749577186530958,9609.6,1.55011083705006578749577186530958
156,9735.55140604828053066264634355374221,9734.0,1.55140604828053066264634355374221
157,9860.75269297822936995427886087003548,9859.2,1.55269297822936995427886087003548
158,9986.75397173215442956985956703381852,9985.2,1.55397173215442956985956703381852
159,10113.5552424133191465048039272165572,10112.0,1.5552424133191465048039272165572
160,10241.1565051230426280002848306882339,10239.6,1.5565051230426280002848306882339
161,10369.5577599607481675437941481221042,10368.0,1.5577599607481675437941481221042
162,10498.7590070240102571735294857771618,10497.2,1.5590070240102571735294857771618
163,10628.7602464086001509398759614794780,10627.2,1.5602464086001509398759614794780
164,10759.5614782085300341605485872046626,10758.0,1.5614782085300341605485872046626
165,10891.1627025160958470695834001070483,10889.6,1.5627025160958470695834001070483
166,11023.5639194219188133757365021499000,11022.0,1.5639194219188133757365021499000
167,11156.7651290149857209625811121655016,11155.2,1.5651290149857209625811121655016
168,11290.7663313826879974191866101839925,11289.2,1.5663313826879974191866101839925
169,11425.5675266108596254634405732189457,11424.0,1.5675266108596254634405732189457
170,11561.1687147838139380011002406375361,11559.6,1.5687147838139380011002406375361
171,11697.5698959843793330150044322526238,11696.0,1.5698959843793330150044322526238
172,11834.7710702939339461510745167073915,11833.2,1.5710702939339461510745167073915
173,11972.7722377924393164034055670500248,11971.2,1.5722377924393164034055670500248
174,12111.5733985584730807419322141979017,12110.0,1.5733985584730807419322141979017
175,12251.1745526692607316675726498859255,12249.6,1.5745526692607316675726498859255
176,12391.5757002007064674011740052896528,12390.0,1.5757002007064674011740052896528
177,12532.7768412274231679667670330686587,12531.2,1.5768412274231679667670330686587
178,12674.7779758227615263234966922956798,12673.2,1.5779758227615263234966922956798
179,12817.5791040588383609911448118857515,12816.0,1.5791040588383609911448118857515
180,12961.1802260065641411156141295374557,12959.6,1.5802260065641411156141295374557
181,13105.5813417356697466229301901508072,13104.0,1.5813417356697466229301901508072
182,13250.7824513147324911571167798700266,13249.2,1.5824513147324911571167798700266
183,13396.7835548112014308511891165056622,13395.2,1.5835548112014308511891165056622
184,13543.5846522914219831727710110938619,13542.0,1.5846522914219831727710110938619
185,13691.1857438206598776524295231689601,13689.6,1.5857438206598776524295231689601
186,13839.5868294631244594633164533791279,13838.0,1.5868294631244594633164533791279
187,13988.7879092819913696525840900357295,13987.2,1.5879092819913696525840900357295
188,14138.7889833394246174608594426568736,14137.2,1.5889833394246174608594426568736
189,14289.5900516965980684608343740004611,14288.0,1.5900516965980684608343740004611
190,14441.1911144137163641660159582146451,14439.6,1.5911144137163641660159582146451
191,14593.5921715500352923321550758348076,14592.0,1.5921715500352923321550758348076
192,14746.7932231638816243335217989113142,14745.2,1.5932231638816243335217989113142
193,14900.7942693126724379178404901177812,14899.2,1.5942693126724379178404901177812
194,15055.5953100529339386806316016977501,15054.0,1.5953100529339386806316016977501
195,15211.1963454403197981912825736854500,15209.6,1.5963454403197981912825736854500
196,15367.5973755296290224627111352169659,15366.0,1.5973755296290224627111352169659
197,15524.7984003748233651399045908834841,15523.2,1.5984003748233651399045908834841
198,15682.7994200290442995692767311399130,15681.2,1.5994200290442995692767311399130
199,15841.6004345446295625826583570745692,15840.0,1.6004345446295625826583570745692
200,16001.2014439731292839360828429638466,15999.6,1.6014439731292839360828429638466
201,16161.6024483653217123797459461731612,16160.0,1.6024483653217123797459461731612
202,16322.8034477712285517352518194090221,16321.2,1.6034477712285517352518194090221
203,16484.8044422401299176348275400244386,16483.2,1.6044422401299176348275400244386
204,16647.6054318205789265373682855255188,16646.0,1.6054318205789265373682855255188
205,16811.2064165604159269866255764207846,16809.6,1.6064165604159269866255764207846
206,16975.6073965067823861302360339131244,16974.0,1.6073965067823861302360339131244
207,17140.8083717061344373702166560525615,17139.2,1.6083717061344373702166560525615
208,17306.8093422042561033663316809061298,17305.2,1.6093422042561033663316809061298
209,17473.6103080462722001351591627851668,17472.0,1.6103080462722001351591627851668
210,17641.2112692766609337404568052322208,17639.6,1.6112692766609337404568052322208
211,17809.6122259392661969337839361084281,17808.0,1.6122259392661969337839361084281
212,17978.8131780773095759725022609826483,17977.2,1.6131780773095759725022609826483
213,18148.8141257334020719930438566600866,18147.2,1.6141257334020719930438566600866
214,18319.6150689495555519151304100167143,18318.0,1.6150689495555519151304100167143
215,18491.2160077671939280831690026368764,18489.6,1.6160077671939280831690026368764
216,18663.6169422271640805992753855320192,18662.0,1.6169422271640805992753855320192
217,18836.8178723697465263069607106020177,18835.2,1.6178723697465263069607106020177
218,19010.8187982346658433979252034119914,19009.2,1.6187982346658433979252034119914
219,19185.6197198611008549148881114514766,19184.0,1.6197198611008549148881114514766
220,19361.2206372876945836585751383301958,19359.6,1.6206372876945836585751383301958
221,19537.6215505525639764011464004910300,19536.0,1.6215505525639764011464004910300
222,19714.8224596933094146034235585136509,19713.2,1.6224596933094146034235585136509
223,19892.8233647470240051967403865299055,19891.2,1.6233647470240051967403865299055
224,20071.6242657503026664887078446926003,20070.0,1.6242657503026664887078446926003
225,20251.2251627392510117494292112246502,20249.6,1.6251627392510117494292112246502
226,20431.6260557494940340160987155425907,20430.0,1.6260557494940340160987155425907
227,20612.8269448161846007588229143969180,20611.2,1.6269448161846007588229143969180
228,20794.8278299740117602178568667414167,20793.2,1.6278299740117602178568667414167
229,20977.6287112572088665643908767031740,20976.0,1.6287112572088665643908767031740
230,21161.2295886995615285711169355537080,21159.6,1.6295886995615285711169355537080
231,21345.6304623344153835818297911224471,21344.0,1.6304623344153835818297911224471
232,21530.8313321946837071889679229749892,21529.2,1.6313321946837071889679229749892
233,21716.8321983128548536045831578644682,21715.2,1.6321983128548536045831578644682
234,21903.6330607209995428707891010123262,21902.0,1.6330607209995428707891010123262
235,22091.2339194507779880807722637142750,22089.6,1.6339194507779880807722637142750
236,22279.6347745334468723091181937620290,22278.0,1.6347745334468723091181937620290
237,22468.8356259998661788715631609665149,22467.2,1.6356259998661788715631609665149
238,22658.8364738805058766451656566590016,22657.2,1.6364738805058766451656566590016
