Eigenstate,Energy,Kinetic Energy,Potential Energy
1,0.500000000023003227648712518103136918,0.0,0.500000000023003227648712518103136918
2,1.84623093780126762529451490829967256,1.2,0.64623093780126762529451490829967256
3,3.93633761014603746490421175364869460,3.2,0.73633761014603746490421175364869460
4,6.79966527873291893125359613956431412,6.0,0.79966527873291893125359613956431412
5,10.4480465768770250073912233610465148,9.6,0.8480465768770250073912233610465148
6,14.8870659993327077417085844217234583,14.0,0.8870659993327077417085844217234583
7,20.1197208275379899987585171115402145,19.2,0.9197208275379899987585171115402145
8,26.1477838478697437379776936927766036,25.2,0.9477838478697437379776936927766036
9,32.9723835593342085404692196399128858,32.0,0.9723835593342085404692196399128858
10,40.5942802160799333358545115852671061,39.6,0.9942802160799333358545115852671061
11,49.0140093882479426555655888376511007,48.0,1.0140093882479426555655888376511007
12,58.2319621711428566143847483080742864,57.2,1.0319621711428566143847483080742864
13,68.2484326948304763663729868242882450,67.2,1.0484326948304763663729868242882450
14,79.0636476569939419828608803251203710,78.0,1.0636476569939419828608803251203710
15,90.6777854387479151348516682833485660,89.6,1.0777854387479151348516682833485660
16,103.090988909509022841515718209073592,102.0,1.090988909509022841515718209073592
17,116.303374260457361048393790694615988,115.2,1.103374260457361048393790694615988
18,130.315037255542693669895945684236274,129.2,1.115037255542693669895945684236274
19,145.126057754588429984621062735469544,144.0,1.126057754588429984621062735469544
20,160.736503050925560966535745195148494,159.6,1.136503050925560966535745195148494
21,177.146430377474356412321476984342821,176.0,1.146430377474356412321476984342821
22,194.355888817903105056037096267876557,193.2,1.155888817903105056037096267876557
23,212.364920784564639222944930135901381,211.2,1.164920784564639222944930135901381
24,231.173563175896756996218407420433206,230.0,1.173563175896756996218407420433206
25,250.781848293218148620598000613282025,249.6,1.181848293218148620598000613282025
26,271.189804574535984267121870501274553,270.0,1.189804574535984267121870501274553
27,292.397457187508489883457808953760636,291.2,1.197457187508489883457808953760636
28,314.404828512803987046298319333583904,313.2,1.204828512803987046298319333583904
29,337.211938541302844911495347293230530,336.0,1.211938541302844911495347293230530
30,360.818805202939304788810999621487861,359.6,1.218805202939304788810999621487861
31,385.225444640834199368433154248817348,384.0,1.225444640834199368433154248817348
32,410.431871441291689041935154221396015,409.2,1.231871441291689041935154221396015
33,436.438098827923489956421521332560030,435.2,1.238098827923489956421521332560030
34,463.244138826413522174597855654582418,462.0,1.244138826413522174597855654582418
35,490.850002405096711247929280921810329,489.6,1.250002405096711247929280921810329
36,519.255699595492197631608589782697442,518.0,1.255699595492197631608589782697442
37,548.461239596127123821628488306387995,547.2,1.261239596127123821628488306387995
38,578.466630862356750351186374542068496,577.2,1.266630862356750351186374542068496
39,609.271881184388803134194392125232733,608.0,1.271881184388803134194392125232733
40,640.876997755324133860173632598022436,639.6,1.276997755324133860173632598022436
41,673.281987230709024871132729694958730,672.0,1.281987230709024871132729694958730
42,706.486855780839477349560756006386639,705.2,1.286855780839477349560756006386639
43,740.491609136851335301777191158732186,739.2,1.291609136851335301777191158732186
44,775.296252631462003805402066956494450,774.0,1.296252631462003805402066956494450
45,810.900791235091950420733030279998388,809.6,1.300791235091950420733030279998388
46,847.305229587981042383240089427277100,846.0,1.305229587981042383240089427277100
47,884.509572028821295582072213072490045,883.2,1.309572028821295582072213072490045
48,922.513822620350024965234456228776440,921.2,1.313822620350024965234456228776440
49,961.317985172282723468208462884846303,960.0,1.317985172282723468208462884846303
50,1000.92206326191087384914498709276465,999.6,1.32206326191087384914498709276465
51,1041.32606025264443085129221586152897,1040.0,1.32606025264443085129221586152897
52,1082.52997931074036589903073165198513,1081.2,1.32997931074036589903073165198513
53,1124.53382342042621641534539162445245,1123.2,1.33382342042621641534539162445245
54,1167.33759539760002071711290890868459,1166.0,1.33759539760002071711290890868459
55,1210.94129790226454395207599757679365,1209.6,1.34129790226454395207599757679365
56,1255.34493344983362597125315424306929,1254.0,1.34493344983362597125315424306929
57,1300.54850442143128306541699356678773,1299.2,1.34850442143128306541699356678773
58,1346.55201307328939830798560870952728,1345.2,1.35201307328939830798560870952728
59,1393.35546154533708129939835561655055,1392.0,1.35546154533708129939835561655055
60,1440.95885186906375360034706891009160,1439.6,1.35885186906375360034706891009160
61,1489.36218597472845191373068100398098,1488.0,1.36218597472845191373068100398098
62,1538.56546569797954007008913508139068,1537.2,1.36546569797954007008913508139068
63,1588.56869278594177898225307867275533,1587.2,1.36869278594177898225307867275533
64,1639.37186890282139125502476734949364,1638.0,1.37186890282139125502476734949364
65,1690.97499563507422229573366964367459,1689.6,1.37499563507422229573366964367459
66,1743.37807449617725243245692719940921,1742.0,1.37807449617725243245692719940921
67,1796.58110693103945225536969587324289,1795.2,1.38110693103945225536969587324289
68,1850.58409432008421723588239478864006,1849.2,1.38409432008421723588239478864006
69,1905.38703798303230500749560148648379,1904.0,1.38703798303230500749560148648379
70,1960.98993918241127042403973563007517,1959.6,1.38993918241127042403973563007517
71,2017.39279912681479480723589838571140,2016.0,1.39279912681479480723589838571140
72,2074.59561897393300755313473158039825,2073.2,1.39561897393300755313473158039825
73,2132.59839983337284526058693133931526,2131.2,1.39839983337284526058693133931526
74,2191.40114276928567469634650962005057,2190.0,1.40114276928567469634650962005057
75,2251.00384880281777481030509457489487,2249.6,1.40384880281777481030509457489487
76,2311.40651891439782345760044985897709,2310.0,1.40651891439782345760044985897709
77,2372.60915404587423208592445528110545,2371.2,1.40915404587423208592445528110545
78,2434.61175510251400584817568015663665,2433.2,1.41175510251400584817568015663665
79,2497.41432295487375978060956085825655,2496.0,1.41432295487375978060956085825655
80,2561.01685844055258356099480308994852,2559.6,1.41685844055258356099480308994852
81,2625.41936236583559801980809904044404,2624.0,1.41936236583559801980809904044404
82,2690.62183550723628512694578406216120,2689.2,1.42183550723628512694578406216120
83,2756.62427861294498444264144145695957,2755.2,1.42427861294498444264144145695957
84,2823.42669240419032472956235781243197,2822.0,1.42669240419032472956235781243197
85,2891.02907757651980014688408755553698,2889.6,1.42907757651980014688408755553698
86,2959.43143480100518458175307264489563,2958.0,1.43143480100518458175307264489563
87,3028.63376472537802020274743268297081,3027.2,1.43376472537802020274743268297081
88,3098.63606797509999294221032638764650,3097.2,1.43606797509999294221032638764650
89,3169.43834515437262411216882684243642,3168.0,1.43834515437262411216882684243642
90,3241.04059684709036414182195605159628,3239.6,1.44059684709036414182195605159628
91,3313.44282361774085297253086081051524,3312.0,1.44282361774085297253086081051524
92,3386.64502601225582334870497216809220,3385.2,1.44502601225582334870497216809220
93,3460.64720455881586098792236743663586,3459.2,1.44720455881586098792236743663586
94,3535.44935976861199268488445922722148,3534.0,1.44935976861199268488445922722148
95,3611.05149213656685224977611566552620,3609.6,1.45149213656685224977611566552620
96,3687.45360214201797235948589397900078,3686.0,1.45360214201797235948589397900078
97,3764.65569024936556605803147559410210,3763.2,1.45569024936556605803147559410210
98,3842.65775690868698876824065537594245,3841.2,1.45775690868698876824065537594245
99,3921.45980255631991820454914482374171,3920.0,1.45980255631991820454914482374171
100,4001.06182761541614323636035767588626,3999.6,1.46182761541614323636035767588626
101,4081.46383249646772344725786693580282,4080.0,1.46383249646772344725786693580282
102,4162.66581759780715556064016175161335,4161.2,1.46581759780715556064016175161335
103,4244.66778330608307498873441108548366,4243.2,1.46778330608307498873441108548366
104,4327.46972999671291349723559665506532,4326.0,1.46972999671291349723559665506532
105,4411.07165803431384090406039408442703,4409.6,1.47165803431384090406039408442703
106,4495.47356777311322796646153317945570,4494.0,1.47356777311322796646153317945570
107,4580.67545955733978952879292965996465,4579.2,1.47545955733978952879292965996465
108,4666.67733372159648776366147897779757,4665.2,1.47733372159648776366147897779757
109,4753.47919059121620674566729032493503,4752.0,1.47919059121620674566729032493503
110,4841.08103048260114717680901105540271,4839.6,1.48103048260114717680901105540271
111,4929.48285370354682422143242190255012,4928.0,1.48285370354682422143242190255012
112,5018.68466055355150197496699370708650,5017.2,1.48466055355150197496699370708650
113,5108.68645132411184255490100386389647,5107.2,1.48645132411184255490100386389647
114,5199.48822629900549904468950338787955,5198.0,1.48822629900549904468950338787955
115,5291.08998575456134107278681893401650,5289.6,1.48998575456134107278681893401650
116,5383.49172995991795347734708792635569,5382.0,1.49172995991795347734708792635569
117,5476.69345917727101679412952191560984,5475.2,1.49345917727101679412952191560984
118,5570.69517366211013727403956330164250,5569.2,1.49517366211013727403956330164250
119,5665.49687366344566042302077771266088,5664.0,1.49687366344566042302077771266088
120,5761.09855942402597621477734484148582,5759.6,1.49855942402597621477734484148582
121,5857.50023118054578585956280037685589,5856.0,1.50023118054578585956280037685589
122,5954.70188916384578109913787846801694,5953.2,1.50188916384578109913787846801694
123,6052.70353359910415480506831562662475,6051.2,1.50353359910415480506831562662475
124,6151.50516470602034397772480500863943,6150.0,1.50516470602034397772480500863943
125,6251.10678269899137667708420920162069,6249.6,1.50678269899137667708420920162069
126,6351.50838778728117921913355351005705,6350.0,1.50838778728117921913355351005705
127,6452.70998017518317939379193749542139,6451.2,1.50998017518317939379193749542139
128,6554.71156006217651887307562731369680,6553.2,1.51156006217651887307562731369680
129,6657.51312764307617590499345216245529,6656.0,1.51312764307617590499345216245529
130,6761.11468310817728100679239419723381,6759.6,1.51468310817728100679239419723381
131,6865.51622664339389296705518459548920,6864.0,1.51622664339389296705518459548920
132,6970.71775843039248748895090553815314,6969.2,1.51775843039248748895090553815314
133,7076.71927864672039902535563137681358,7075.2,1.51927864672039902535563137681358
134,7183.52078746592944508060134029272590,7182.0,1.52078746592944508060134029272590
135,7291.12228505769494414526879446973652,7289.6,1.52228505769494414526879446973652
136,7399.52377158793033474290971368773411,7398.0,1.52377158793033474290971368773411
137,7508.72524721889758975964004142343100,7507.2,1.52524721889758975964004142343100
138,7618.72671210931360661555545314737477,7617.2,1.52671210931360661555545314737477
139,7729.52816641445275173101464444933579,7728.0,1.52816641445275173101464444933579
140,7841.12961028624572229486771122265003,7839.6,1.52961028624572229486771122265003
141,7953.53104387337488378421691735376843,7952.0,1.53104387337488378421691735376843
142,8066.73246732136623361203012434834845,8065.2,1.53246732136623361203012434834845
143,8180.73388077267813262875782822485076,8179.2,1.53388077267813262875782822485076
144,8295.53528436678693902446782673323189,8294.0,1.53528436678693902446782673323189
145,8411.13667824026967499025231349412917,8409.6,1.53667824026967499025231349412917
146,8527.53806252688384862891144179943508,8526.0,1.53806252688384862891144179943508
147,8644.73943735764454540195128579411121,8643.2,1.53943735764454540195128579411121
148,8762.74080286089890444190081164581198,8761.2,1.54080286089890444190081164581198
149,8881.54215916239808153087822080389613,8880.0,1.54215916239808153087822080389613
150,9001.14350638536680238625979585388824,8999.6,1.54350638536680238625979585388824
151,9121.54484465057060216768065722706600,9120.0,1.54484465057060216768065722706600
152,9242.74617407638084150451211416871528,9241.2,1.54617407638084150451211416871528
153,9364.74749477883758799348373453722182,9363.2,1.54749477883758799348373453722182
154,9487.54880687171044706566614834671624,9486.0,1.54880687171044706566614834671624
155,9611.15011046655742045878089986345901,9609.6,1.55011046655742045878089986345901
156,9735.55140567278187016117360955879507,9734.0,1.55140567278187016117360955879507
157,9860.75269259768765887402658216697750,9859.2,1.55269259768765887402658216697750
158,9986.75397134653253880988462493532714,9985.2,1.55397134653253880988462493532714
159,10113.5552420225798525002998092863391,10112.0,1.5552420225798525002998092863391
160,10241.1565047271486119501051320315305,10239.6,1.5565047271486119501051320315305
161,10369.5577595596620146344083818270275,10368.0,1.5577595596620146344083818270275
162,10498.7590066176944557993778873313897,10497.2,1.5590066176944557993778873313897
163,10628.7602459970170919200897058097597,10627.2,1.5602459970170919200897058097597
164,10759.5614777916420099520015607886894,10758.0,1.5614777916420099520015607886894
165,10891.1627020938650509762414604778034,10889.6,1.5627020938650509762414604778034
166,11023.5639189943073387542699590046516,11022.0,1.5639189943073387542699590046516
167,11156.7651285819555604242058111634358,11155.2,1.5651285819555604242058111634358
168,11290.7663309442010420276988273113057,11289.2,1.5663309442010420276988273113057
169,11425.5675261668776639294107111122516,11424.0,1.5675261668776639294107111122516
170,11561.1687143342986558721898857896300,11559.6,1.5687143342986558721898857896300
171,11697.5698955292923118623713280680393,11696.0,1.5698955292923118623713280680393
172,11834.7710698332366627518295333544382,11833.2,1.5710698332366627518295333544382
173,11972.7722373260931419190856044299807,11971.2,1.5722373260931419190856044299807
174,12111.5733980864392798929526676223537,12110.0,1.5733980864392798929526676223537
175,12251.1745521915004619036227880809611,12249.6,1.5745521915004619036227880809611
176,12391.5756997171807780675183623143590,12390.0,1.5756997171807780675183623143590
177,12532.7768407380929994664156549252903,12531.2,1.5768407380929994664156549252903
178,12674.7779753275877092752067360432734,12673.2,1.5779753275877092752067360432734
179,12817.5791035577816153832158035833608,12816.0,1.5791035577816153832158035833608
180,12961.1802254995850754554388264414713,12959.6,1.5802254995850754554388264414713
181,13105.5813412227288570822627661296748,13104.0,1.5813412227288570822627661296748
182,13250.7824507957901607130197049035324,13249.2,1.5824507957901607130197049035324
183,13396.7835542862179284226198385316885,13395.2,1.5835542862179284226198385316885
184,13543.5846517603574627527693138895823,13542.0,1.5846517603574627527693138895823
185,13691.1857432834743774358660010330493,13689.6,1.5857432834743774358660010330493
186,13839.5868289197779009701623666572851,13838.0,1.5868289197779009701623666572851
187,13988.7879087324435568466624634073729,13987.2,1.5879087324435568466624634073729
188,14138.7889827836352358640370528762445,14137.2,1.5889827836352358640370528762445
189,14289.5900511345266842626139142981010,14288.0,1.5900511345266842626139142981010
190,14441.1911138453224233284872911942136,14439.6,1.5911138453224233284872911942136
191,14593.5921709752781196902643081187729,14592.0,1.5921709752781196902643081187729
192,14746.7932225827204226906164705973081,14745.2,1.5932225827204226906164705973081
193,14900.7942687250662871364488994243413,14899.2,1.5942687250662871364488994243413
194,15055.5953094588417947684339255475050,15054.0,1.5953094588417947684339255475050
195,15211.1963448397004923822311897067110,15209.6,1.5963448397004923822311897067110
196,15367.5973749224412602932570723498692,15366.0,1.5973749224412602932570723498692
197,15524.7983997610257255202868744122029,15523.2,1.5983997610257255202868744122029
198,15682.7994194085952338498308873663162,15681.2,1.5994194085952338498308873663162
199,15841.6004339174873936151001137697785,15840.0,1.6004339174873936151001137697785
200,16001.2014433392522051297226168411186,15999.6,1.6014433392522051297226168411186
201,16161.6024477246677867525894572850491,16160.0,1.6024477246677867525894572850491
202,16322.8034471237557109599417013426048,16321.2,1.6034471237557109599417013426048
203,16484.8044415857959610793805434159595,16483.2,1.6044415857959610793805434159595
204,16647.6054311593415203006622801412906,16646.0,1.6054311593415203006622801412906
205,16811.2064158922326029285901611526650,16809.6,1.6064158922326029285901611526650
206,16975.6073958316105408967002640629674,16974.0,1.6073958316105408967002640629674
207,17140.8083710239313314123669177034360,17139.2,1.6083710239313314123669177034360
208,17306.8093415149788599547324386119445,17305.2,1.6093415149788599547324386119445
209,17473.6103073498778043682889207247213,17472.0,1.6103073498778043682889207247213
210,17641.2112685731062315477111611865237,17639.6,1.6112685731062315477111611865237
211,17809.6122252285078940728973283945460,17808.0,1.6122252285078940728973283945460
212,17978.8131773593042370213395273384701,17977.2,1.6131773593042370213395273384701
213,18148.8141250081061193357123162433535,18147.2,1.6141250081061193357123162433535
214,18319.6150682169252647223628732259071,18318.0,1.6150682169252647223628732259071
215,18491.2160070271854412869275654575678,18489.6,1.6160070271854412869275654575678
216,18663.6169414797333838615255515860979,18662.0,1.6169414797333838615255515860979
217,18836.8178716148494629825649567725332,18835.2,1.6178716148494629825649567725332
218,19010.8187974722581094916046315633774,19009.2,1.6187974722581094916046315633774
219,19185.6197190911379980322004546710543,19184.0,1.6197190911379980322004546710543
220,19361.2206365101320019508569147379377,19359.6,1.6206365101320019508569147379377
221,19537.6215497673569175043666221505493,19536.0,1.6215497673569175043666221505493
222,19714.8224589004129745708959073288989,19713.2,1.6224589004129745708959073288989
223,19892.8233639463931274256403418405805,19891.2,1.6233639463931274256403418405805
224,20071.6242649418921406403408745833888,20070.0,1.6242649418921406403408745833888
225,20251.2251619230154726631955291167839,20249.6,1.6251619230154726631955291167839
226,20431.6260549253879606170997680561900,20430.0,1.6260549253879606170997680561900
227,20612.8269439841623149590542818698732,20611.2,1.6269439841623149590542818698732
228,20794.8278291340274258109317325290865,20793.2,1.6278291340274258109317325290865
229,20977.6287104092164881137378263592499,20976.0,1.6287104092164881137378263592499
230,21161.2295878435149502915952671717516,21159.6,1.6295878435149502915952671717516
231,21345.6304614702682882147051720540330,21344.0,1.6304614702682882147051720540330
232,21530.8313313223896148701906061853379,21529.2,1.6313313223896148701906061853379
233,21716.8321974323671207263105564849944,21715.2,1.6321974323671207263105564849944
234,21903.6330598322713609360939267547702,21902.0,1.6330598322713609360939267547702
235,22091.2339185537623825514770856893886,22089.6,1.6339185537623825514770856893886
236,22279.6347736280967014466966046754278,22278.0,1.6347736280967014466966046754278
237,22468.8356250861341325710473279396735,22467.2,1.6356250861341325710473279396735
238,22658.8364729583444752619994714661457,22657.2,1.6364729583444752619994714661457
