Eigenstate,Energy,Kinetic Energy,Potential Energy
1,0.500000000327767339517934653328812614,0.0,0.500000000327767339517934653328812614
2,1.84623093979063335881254047665090936,1.2,0.64623093979063335881254047665090936
3,3.93633761598975023353271701713851441,3.2,0.73633761598975023353271701713851441
4,6.79966529090502341080136461743579636,6.0,0.79966529090502341080136461743579636
5,10.4480465979623028526384354277577475,9.6,0.8480465979623028526384354277577475
6,14.8870660319616225250814131841978478,14.0,0.8870660319616225250814131841978478
7,20.1197208743627872680132652002911892,19.2,0.9197208743627872680132652002911892
8,26.1477839115545483024814797157300286,25.2,0.9477839115545483024814797157300286
9,32.9723836425504790484308184409566163,32.0,0.9723836425504790484308184409566163
10,40.5942803215042100070681116547016813,39.6,0.9942803215042100070681116547016813
11,49.0140095185606746350372613320955181,48.0,1.0140095185606746350372613320955181
12,58.2319623290277795936561836668826716,57.2,1.0319623290277795936561836668826716
13,68.2484328829742898837027912844612579,67.2,1.0484328829742898837027912844612579
14,79.0636478780861593020197482043549134,78.0,1.0636478780861593020197482043549134
15,90.6777856954808173521500763925412461,89.6,1.0777856954808173521500763925412461
16,103.090989204577678580455801157010698,102.0,1.090989204577678580455801157010698
17,116.303374596559688936436232506551131,115.2,1.103374596559688936436232506551131
18,130.315037635379553625637074801258227,129.2,1.115037635379553625637074801258227
19,145.126058180863734472136992801469793,144.0,1.126058180863734472136992801469793
20,160.736503526346400457322256496525082,159.6,1.136503526346400457322256496525082
21,177.146430904751135208004362880374308,176.0,1.146430904751135208004362880374308
22,194.355889399749684844837183243779002,193.2,1.155889399749684844837183243779002
23,212.364921423698488540378817864575422,211.2,1.164921423698488540378817864575422
24,231.173563875039105293732561635776617,230.0,1.173563875039105293732561635776617
25,250.781849055094144009665520213207383,249.6,1.181849055094144009665520213207383
26,271.189805401874854259217165361621548,270.0,1.189805401874854259217165361621548
27,292.397458083043704625091703245833213,291.2,1.197458083043704625091703245833213
28,314.404829479273424676643479806234991,313.2,1.204829479273424676643479806234991
29,337.211939581448958763606803521316282,336.0,1.211939581448958763606803521316282
30,360.818806319509292224430927708867417,359.6,1.218806319509292224430927708867417
31,385.225445836580172087909928840474932,384.0,1.225445836580172087909928840474932
32,410.431872718970844749739542168747540,409.2,1.231872718970844749739542168747540
33,436.438100190298285292501885174562497,435.2,1.238100190298285292501885174562497
34,463.244140276251846844783045029966214,462.0,1.244140276251846844783045029966214
35,490.850003945172063304485788083401229,489.6,1.250003945172063304485788083401229
36,519.255701228583859869133916108462630,518.0,1.255701228583859869133916108462630
37,548.461241325020341264632251497148088,547.2,1.261241325020341264632251497148088
38,578.466632689842908818648936050791668,577.2,1.266632689842908818648936050791668
39,609.271883113265608873606866999604651,608.0,1.271883113265608873606866999604651
40,640.876999788395794249433474362534746,639.6,1.276999788395794249433474362534746
41,673.281989370786430191484644113451146,672.0,1.281989370786430191484644113451146
42,706.486858030740383636756475332409082,705.2,1.286858030740383636756475332409082
43,740.491611499400548285949871540704517,739.2,1.291611499400548285949871540704517
44,775.296255109491563952944721579672866,774.0,1.296255109491563952944721579672866
45,810.900793831441319093840410302778509,809.6,1.300793831441319093840410302778509
46,847.305232305497289134801172950395665,846.0,1.305232305497289134801172950395665
47,884.509574870359286605350733201878311,883.2,1.309574870359286605350733201878311
48,922.513825588772612719300326452531193,921.2,1.313825588772612719300326452531193
49,961.317988270460937501423941953984035,960.0,1.317988270460937501423941953984035
50,1000.92206649272411284420027424375506,999.6,1.32206649272411284420027424375506
51,1041.32606361898065591635301171190327,1040.0,1.32606361898065591635301171190327
52,1082.52998281549629513052638957369447,1081.2,1.32998281549629513052638957369447
53,1124.53382706650752075880938580122047,1123.2,1.33382706650752075880938580122047
54,1167.33759918792152115330235885932963,1166.0,1.33759918792152115330235885932963
55,1210.94130183975041003635570332722719,1209.6,1.34130183975041003635570332722719
56,1255.34493753741757575494253603427950,1254.0,1.34493753741757575494253603427950
57,1300.54850866205678442847331882277404,1299.2,1.34850866205678442847331882277404
58,1346.55201746990987173304322448882360,1345.2,1.35201746990987173304322448882360
59,1393.35546610091610411780317710348842,1392.0,1.35546610091610411780317710348842
60,1440.95885658657526574142781775895170,1439.6,1.35885658657526574142781775895170
61,1489.36219085715696318913466686645220,1488.0,1.36219085715696318913466686645220
62,1538.56547074832033902558619948141859,1537.2,1.36547074832033902558619948141859
63,1588.56869800720114334997729247911001,1587.2,1.36869800720114334997729247911001
64,1639.37187429801680003968508499617975,1638.0,1.37187429801680003968508499617975
65,1690.97500120723456952888386244391700,1689.6,1.37500120723456952888386244391700
66,1743.37808024834306262947086660259383,1742.0,1.37808024834306262947086660259383
67,1796.58111286626309761032647259854059,1795.2,1.38111286626309761032647259854059
68,1850.58410044143013659012448258106459,1849.2,1.38410044143013659012448258106459
69,1905.38704429357722462818847562410656,1904.0,1.38704429357722462818847562410656
70,1960.98994568524442662962645568527231,1959.6,1.38994568524442662962645568527231
71,2017.39280582503815847725679130662092,2016.0,1.39280582503815847725679130662092
72,2074.59562587066151056046045995194929,2073.2,1.39562587066151056046045995194929
73,2132.59840693173460886470357080287314,2131.2,1.39840693173460886470357080287314
74,2191.40115007242223993692675531034221,2190.0,1.40115007242223993692675531034221
75,2251.00385631388433494090704291636010,2249.6,1.40385631388433494090704291636010
76,2311.40652663656345845995007733760779,2310.0,1.40652663656345845995007733760779
77,2372.60916198232214530586616349702520,2371.2,1.40916198232214530586616349702520
78,2434.61176325644176279501290489812708,2433.2,1.41176325644176279501290489812708
79,2497.41433132949352913220761475767382,2496.0,1.41433132949352913220761475767382
80,2561.01686703909138041767982765318449,2559.6,1.41686703909138041767982765318449
81,2625.41937119153552945077252443179475,2624.0,1.41937119153552945077252443179475
82,2690.62184456335479805355875837538108,2689.2,1.42184456335479805355875837538108
83,2756.62428790275511590376583774189001,2755.2,1.42428790275511590376583774189001
84,2823.42670193098095457469728197174936,2822.0,1.42670193098095457469728197174936
85,2891.02908734359590620368451116755511,2889.6,1.42908734359590620368451116755511
86,2959.43144481168810034522482930441174,2958.0,1.43144481168810034522482930441174
87,3028.63377498300569509418127034295359,3027.2,1.43377498300569509418127034295359
88,3098.63607848302725518669737491799481,3097.2,1.43607848302725518669737491799481
89,3169.43835591597144628433747693423600,3168.0,1.43835591597144628433747693423600
90,3241.04060786575013143024988133158003,3239.6,1.44060786575013143024988133158003
91,3313.44283489686863421411922489872049,3312.0,1.44283489686863421411922489872049
92,3386.64503755527664488515077362893294,3385.2,1.44503755527664488515077362893294
93,3460.64721636917298339729540646283273,3459.2,1.44721636917298339729540646283273
94,3535.44937184976719044220318363748097,3534.0,1.44937184976719044220318363748097
95,3611.05150449200069637138527828818316,3609.6,1.45150449200069637138527828818316
96,3687.45361477523011608696700878700120,3686.0,1.45361477523011608696700878700120
97,3764.65570316387503363832758315237790,3763.2,1.45570316387503363832758315237790
98,3842.65777010803246738764585116281396,3841.2,1.45777010803246738764585116281396
99,3921.45981604406005313520805788214501,3920.0,1.45981604406005313520805788214501
100,4001.06184139512983625493560771944024,3999.6,1.46184139512983625493560771944024
101,4081.46384657175443458646333877676995,4080.0,1.46384657175443458646333877676995
102,4162.66583197228720825539850046576420,4161.2,1.46583197228720825539850046576420
103,4244.66779798339796467980210258655832,4243.2,1.46779798339796467980210258655832
104,4327.46974498052561975625150620003697,4326.0,1.46974498052561975625150620003697
105,4411.07167332830914314510723962844399,4409.6,1.47167332830914314510723962844399
106,4495.47358338099802481039218904117154,4494.0,1.47358338099802481039218904117154
107,4580.67547548284342188776228335098212,4579.2,1.47547548284342188776228335098212
108,4666.67734996847106571451903914831167,4665.2,1.47734996847106571451903914831167
109,4753.47920716323694026211029855576517,4752.0,1.47920716323694026211029855576517
110,4841.08104738356668079146711291761180,4839.6,1.48104738356668079146711291761180
111,4929.48287093727957569035704467462168,4928.0,1.48287093727957569035704467462168
112,5018.68467812389800501833005426662408,5017.2,1.48467812389800501833005426662408
113,5108.68646923494309374906957089374214,5107.2,1.48646923494309374906957089374214
114,5199.48824455421730894223777780000736,5198.0,1.48824455421730894223777780000736
115,5291.09000435807468962843286977793198,5289.6,1.49000435807468962843286977793198
116,5383.49174891567934985926131330309255,5382.0,1.49174891567934985926131330309255
117,5476.69347848925286366155643602789610,5475.2,1.49347848925286366155643602789610
118,5570.69519333431109960370198464591143,5569.2,1.49519333431109960370198464591143
119,5665.49689369989103896834118108923927,5664.0,1.49689369989103896834118108923927
120,5761.09857982876808568355138220729818,5759.6,1.49857982876808568355138220729818
121,5857.50025195766433789735964171904191,5856.0,1.50025195766433789735964171904191
122,5954.70191031744827216738014561655855,5953.2,1.50191031744827216738014561655855
123,6052.70355513332625904446040315801695,6051.2,1.50355513332625904446040315801695
124,6151.50518662502631114945609020016585,6150.0,1.50518662502631114945609020016585
125,6251.10680500697443527603506149370879,6249.6,1.50680500697443527603506149370879
126,6351.50841048846394485515275805807818,6350.0,1.50841048846394485515275805807818
127,6452.71000327381806853900118716454039,6451.2,1.51000327381806853900118716454039
128,6554.71158356254616807508801973909040,6553.2,1.51158356254616807508801973909040
129,6657.51315154949386656791015710514764,6656.0,1.51315154949386656791015710514764
130,6761.11470742498736984386721955694185,6759.6,1.51470742498736984386721955694185
131,6865.51625137497224823098963426360422,6864.0,1.51625137497224823098963426360422
132,6970.71778358114693108790857433434371,6969.2,1.51778358114693108790857433434371
133,7076.71930422109115463495530337128410,7075.2,1.51930422109115463495530337128410
134,7183.52081346838959236438080903034802,7182.0,1.52081346838959236438080903034802
135,7291.12231149275087919839052433244325,7289.6,1.52231149275087919839052433244325
136,7399.52379846012223687621659442317800,7398.0,1.52379846012223687621659442317800
137,7508.72527453279989474356580403606849,7507.2,1.52527453279989474356580403606849
138,7618.72673986953548650584619116026950,7617.2,1.52673986953548650584619116026950
139,7729.52819462563860140073063129372038,7728.0,1.52819462563860140073063129372038
140,7841.12963895307565279971172584674480,7839.6,1.52963895307565279971172584674480
141,7953.53107300056522269087094641786035,7952.0,1.53107300056522269087094641786035
142,8066.73249691367003242188851629909288,8065.2,1.53249691367003242188851629909288
143,8180.73391083488568143221488966048679,8179.2,1.53391083488568143221488966048679
144,8295.53531490372628852375738269541567,8294.0,1.53531490372628852375738269541567
145,8411.13670925680716603174698456870383,8409.6,1.53670925680716603174698456870383
146,8527.53809402792464938877332753663777,8526.0,1.53809402792464938877332753663777
147,8644.73946934813319637208346070651405,8643.2,1.53946934813319637208346070651405
148,8762.74083534581987136628312311636943,8761.2,1.54083534581987136628312311636943
149,8881.54219214677631644558638356582317,8880.0,1.54219214677631644558638356582317
150,9001.14353987426831291975854368733672,8999.6,1.54353987426831291975854368733672
151,9121.54487864910302926136530787390840,9120.0,1.54487864910302926136530787390840
152,9242.74620858969404571693241420640495,9241.2,1.54620858969404571693241420640495
153,9364.74752981212424455523977299464055,9363.2,1.54752981212424455523977299464055
154,9487.54884243020664985560847283979493,9486.0,1.54884243020664985560847283979493
155,9611.15014655554329507588385174179088,9609.6,1.55014655554329507588385174179088
156,9735.55144229758219627028629613738292,9734.0,1.55144229758219627028629613738292
157,9860.75272976367250200763389136633104,9859.2,1.55272976367250200763389136633104
158,9986.75400905911789181204963547093553,9985.2,1.55400905911789181204963547093553
159,10113.5552802872282868030923775022342,10112.0,1.5552802872282868030923775022342
160,10241.1565435493699388770723853875951,10239.6,1.5565435493699388770723853875951
161,10369.5577989450139569299969498015141,10368.0,1.5577989450139569299969498015141
162,10498.7590465717833295876905378376955,10497.2,1.5590465717833295876905378376955
163,10628.7602865254984993009466011233464,10627.2,1.5602865254984993009466011233464
164,10759.5615189002215424469881484039203,10758.0,1.5615189002215424469881484039203
165,10891.1627437882990040422585191257257,10889.6,1.5627437882990040422585191257257
166,11023.5639612804034375870635061110288,11022.0,1.5639612804034375870635061110288
167,11156.7651714655736972794487186768542,11155.2,1.5651714655736972794487186768542
168,11290.7663744312540252924300598062035,11289.2,1.5663744312540252924300598062035
169,11425.5675702633319791820042849933535,11424.0,1.5675702633319791820042849933535
170,11561.1687590461752391745455681832709,11559.6,1.5687590461752391745455681832709
171,11697.5699408626673355336795302281423,11696.0,1.5699408626673355336795302281423
172,11834.7711157942423338790816837026204,11833.2,1.5711157942423338790816837026204
173,11972.7722839209185138654758451837483,11971.2,1.5722839209185138654758451837483
174,12111.5734453213310770714551044127585,12110.0,1.5734453213310770714551044127585
175,12251.1746000727639180893332551651470,12249.6,1.5746000727639180893332551651470
176,12391.5757482511804885288289245692141,12390.0,1.5757482511804885288289245692141
177,12532.7768899312537872017453668138445,12531.2,1.5768899312537872017453668138445
178,12674.7780251863955056488539342573151,12673.2,1.5780251863955056488539342573151
179,12817.5791540887843554609249770079612,12816.0,1.5791540887843554609249770079612
180,12961.1802767093936083475034704993760,12959.6,1.5802767093936083475034704993760
181,13105.5813931180178716094087016050864,13104.0,1.5813931180178716094087016050864
182,13250.7825033832991267179494644467482,13249.2,1.5825033832991267179494644467482
183,13396.7836075727520540579483473629437,13395.2,1.5836075727520540579483473629437
184,13543.5847057527886680841495528708027,13542.0,1.5847057527886680841495528708027
185,13691.1857979887422847074031662846207,13689.6,1.5857979887422847074031662846207
186,13839.5868843448908418877467554179689,13838.0,1.5868843448908418877467554179689
187,13988.7879648844795972436301525551649,13987.2,1.5879648844795972436301525551649
188,14138.7890396697432181225943114692658,14137.2,1.5890396697432181225943114692658
189,14289.5901087619272878737483266688125,14288.0,1.5901087619272878737483266688125
190,14441.1911722213092439826417799530089,14439.6,1.5911722213092439826417799530089
191,14593.5922301072187673008813270726095,14592.0,1.5922301072187673008813270726095
192,14746.7932824780576387627746191196626,14745.2,1.5932824780576387627746191196626
193,14900.7943293913190819032241013674104,14899.2,1.5943293913190819032241013674104
194,15055.5953709036066045283297463167472,15054.0,1.5953709036066045283297463167472
195,15211.1964070706523574820525574237931,15209.6,1.5964070706523574820525574237931
196,15367.5974379473350242121533048268278,15366.0,1.5974379473350242121533048268278
197,15524.7984635876972555223777031355648,15523.2,1.5984635876972555223777031355648
198,15682.7994840449626636848623348088215,15681.2,1.5994840449626636848623348088215
199,15841.6004993715523887589742176551455,15840.0,1.6004993715523887589742176551455
200,16001.2015096191012510695014729688081,15999.6,1.6015096191012510695014729688081
201,16161.6025148384735008337231988912386,16160.0,1.6025148384735008337231988912386
202,16322.8035150797781783270137681948864,16321.2,1.6035150797781783270137681948864
203,16484.8045103923840952556076032267142,16483.2,1.6045103923840952556076032267142
204,16647.6055008249344489657672185376184,16646.0,1.6055008249344489657672185376184
205,16811.2064864253610794694710833953376,16809.6,1.6064864253610794694710833953376
206,16975.6074672408983823205896029085993,16974.0,1.6074672408983823205896029085993
207,17140.8084433180968832279021436552828,17139.2,1.6084433180968832279021436552828
208,17306.8094147028364886425817090279916,17305.2,1.6094147028364886425817090279916
209,17473.6103814403394180796897856736716,17472.0,1.6103814403394180796897856736716
210,17641.2113435751828296865245722349917,17639.6,1.6113435751828296865245722349917
211,17809.6123011513111464345513353545996,17808.0,1.6123011513111464345513353545996
212,17978.8132542120480931803670775334235,17977.2,1.6132542120480931803670775334235
213,18148.8142028001084489925076343564299,18147.2,1.6142028001084489925076343564299
214,18319.6151469576095297392711673029055,18318.0,1.6151469576095297392711673029055
215,18491.2160867260824001639181214121638,18489.6,1.6160867260824001639181214121638
216,18663.6170221464828294224582712010495,18662.0,1.6170221464828294224582712010495
217,18836.8179532592019940644845273468192,18835.2,1.6179532592019940644845273468192
218,19010.8188801040769374516134133068230,19009.2,1.6188801040769374516134133068230
219,19185.6198027204007889092940247402814,19184.0,1.6198027204007889092940247402814
220,19361.2207211469327551436579212156122,19359.6,1.6207211469327551436579212156122
221,19537.6216354219078818500346500372886,19536.0,1.6216354219078818500346500372886
222,19714.8225455830466027356067011024808,19713.2,1.6225455830466027356067011024808
223,19892.8234516675640695429833319997098,19891.2,1.6234516675640695429833319997098
224,20071.6243537121792781607709027045394,20070.0,1.6243537121792781607709027045394
225,20251.2252517531239934053760559234554,20249.6,1.6252517531239934053760559234554
226,20431.6261458261514760405633381802163,20430.0,1.6261458261514760405633381802163
227,20612.8270359665450207071695186918524,20611.2,1.6270359665450207071695186918524
228,20794.8279222091263066037114119290770,20793.2,1.6279222091263066037114119290770
229,20977.6288045882635681015893325349350,20976.0,1.6288045882635681015893325349350
230,21161.2296831378795900137570845563446,21159.6,1.6296831378795900137570845563446
231,21345.6305578914595293398475898762148,21344.0,1.6305578914595293398475898762148
232,21530.8314288820585739315610673224348,21529.2,1.6314288820585739315610673224348
233,21716.8322961423094330998780687999880,21715.2,1.6322961423094330998780687999880
234,21903.6331597044296763474747237239842,21902.0,1.6331597044296763474747237239842
235,22091.2340196002289134360332926138754,22089.6,1.6340196002289134360332926138754
236,22279.6348758611158255271517814942111,22278.0,1.6348758611158255271517814942111
237,22468.8357285181050510582928361002223,22467.2,1.6357285181050510582928361002223
238,22658.8365776018239281275625889544861,22657.2,1.6365776018239281275625889544861
