Eigenstate,Energy,Kinetic Energy,Potential Energy
1,0.500000000089856778958047972141878295,0.0,0.500000000089856778958047972141878295
2,1.84623093823765418771899681613521815,1.2,0.64623093823765418771899681613521815
3,3.93633761142789425346562945292092044,3.2,0.73633761142789425346562945292092044
4,6.79966528140289872721912317463796606,6.0,0.79966528140289872721912317463796606
5,10.4480465815020171647397736325826209,9.6,0.8480465815020171647397736325826209
6,14.8870660064895486988249319734234093,14.0,0.8870660064895486988249319734234093
7,20.1197208378082016167514948851181920,19.2,0.9197208378082016167514948851181920
8,26.1477838618373420637853019116394540,25.2,0.9477838618373420637853019116394540
9,32.9723835775846877221503021705837686,32.0,0.9723835775846877221503021705837686
10,40.5942802391997525344764190863177105,39.6,0.9942802391997525344764190863177105
11,49.0140094168242497484020983561614894,48.0,1.0140094168242497484020983561614894
12,58.2319622057633325668259646983447620,57.2,1.0319622057633325668259646983447620
13,68.2484327360832452998024837239569738,67.2,1.0484327360832452998024837239569738
14,79.0636477054675190541709538039657733,78.0,1.0636477054675190541709538039657733
15,90.6777854950311772305618654800199583,89.6,1.0777854950311772305618654800199583
16,103.090988974191193606521233575007137,102.0,1.090988974191193606521233575007137
17,116.303374334128005242892494171407230,115.2,1.103374334128005242892494171407230
18,130.315037338791717785770445471791503,129.2,1.115037338791717785770445471791503
19,145.126057848006087177483627697557730,144.0,1.126057848006087177483627697557730
20,160.736503155102459036036030392603820,159.6,1.136503155102459036036030392603820
21,177.146430493001467982858974112355137,176.0,1.146430493001467982858974112355137
22,194.355888945371779377562448123538860,193.2,1.155888945371779377562448123538860
23,212.364920924566615186439804712376741,211.2,1.164920924566615186439804712376741
24,231.173563329024177075377707712607787,230.0,1.173563329024177075377707712607787
25,250.781848460063573531016565905972325,249.6,1.181848460063573531016565905972325
26,271.189804755692408189729197471989242,270.0,1.189804755692408189729197471989242
27,292.397457383569356138126844617867744,291.2,1.197457383569356138126844617867744
28,314.404828724363204129676313921611675,313.2,1.204828724363204129676313921611675
29,337.211938768954802833576443080975459,336.0,1.211938768954802833576443080975459
30,360.818805447278891657868858928283946,359.6,1.218805447278891657868858928283946
31,385.225444902456818185203283751756481,384.0,1.225444902456818185203283751756481
32,410.431871720793274672445584274292739,409.2,1.231871720793274672445584274292739
33,436.438099125900526259361678893313316,435.2,1.238099125900526259361678893313316
34,463.244139143463059264115601075680115,462.0,1.244139143463059264115601075680115
35,490.850002741816382876633014085721495,489.6,1.250002741816382876633014085721495
36,519.255699952480238681598608182316302,518.0,1.255699952480238681598608182316302
37,548.461239973982387893790262297111288,547.2,1.261239973982387893790262297111288
38,578.466631261678727444896169293783804,577.2,1.266631261678727444896169293783804
39,609.271881605777637411125778473473425,608.0,1.271881605777637411125778473473425
40,640.876998199380641487135447400229395,639.6,1.276998199380641487135447400229395
41,673.281987698034711937878218582412763,672.0,1.281987698034711937878218582412763
42,706.486856272036557858332874868475589,705.2,1.286856272036557858332874868475589
43,740.491609652522749226033725996570469,739.2,1.291609652522749226033725996570469
44,775.296253172211435215725421668158267,774.0,1.296253172211435215725421668158267
45,810.900791801523845676396190120749828,809.6,1.300791801523845676396190120749828
46,847.305230180700628388290422165525152,846.0,1.305230180700628388290422165525152
47,884.509572648434598105122248618197957,883.2,1.309572648434598105122248618197957
48,922.513823267463887022425479191400968,921.2,1.313823267463887022425479191400968
49,961.317985847504823769047290001733561,960.0,1.317985847504823769047290001733561
50,1000.92206396584974530511409092087972,999.6,1.32206396584974530511409092087972
51,1041.32606098590947914730463545482081,1040.0,1.32606098590947914730463545482081
52,1082.52998007394188812794827617309041,1081.2,1.32998007394188812794827617309041
53,1124.53382421417541977590574973344033,1123.2,1.33382421417541977590574973344033
54,1167.33759622250904127572168784893463,1166.0,1.33759622250904127572168784893463
55,1210.94129875894646546901584463755306,1209.6,1.34129875894646546901584463755306
56,1255.34493433890249879194639220447040,1254.0,1.34493433890249879194639220447040
57,1300.54850534350214307745218329203423,1299.2,1.34850534350214307745218329203423
58,1346.55201402897828596468425686358123,1345.2,1.35201402897828596468425686358123
59,1393.35546253526106071075583122672905,1392.0,1.35546253526106071075583122672905
60,1440.95885289384093169223395688611056,1439.6,1.35885289384093169223395688611056
61,1489.36218703497799765628725473775736,1488.0,1.36218703497799765628725473775736
62,1538.56546679432170377628774213485946,1537.2,1.36546679432170377628774213485946
63,1588.56869391899791167764114515433468,1587.2,1.36869391899791167764114515433468
64,1639.37187007321396411969573885988522,1638.0,1.37187007321396411969573885988522
65,1690.97499684342684617960505750687650,1689.6,1.37499684342684617960505750687650
66,1743.37807574311469744496367374265983,1742.0,1.37807574311469744496367374265983
67,1796.58110821718766743070803540151214,1795.2,1.38110821718766743070803540151214
68,1850.58409564607035027496450925347636,1849.2,1.38409564607035027496450925347636
69,1905.38703934948472209779895894705562,1904.0,1.38703934948472209779895894705562
70,1960.98994058995957613855662603218217,1959.6,1.38994058995957613855662603218217
71,2017.39280057608985208375000604586924,2016.0,1.39280057608985208375000604586924
72,2074.59562046556695775507079092409354,2073.2,1.39562046556695775507079092409354
73,2132.59840136799912832069878143443369,2131.2,1.39840136799912832069878143443369
74,2191.40114434753904934452653232617502,2190.0,1.40114434753904934452653232617502
75,2251.00385042533433888681568643645214,2249.6,1.40385042533433888681568643645214
76,2311.40652058181503431304457265794419,2310.0,1.40652058181503431304457265794419
77,2372.60915575883092706928883643527874,2371.2,1.40915575883092706928883643527874
78,2434.61175686165042288429600239930301,2433.2,1.41175686165042288429600239930301
79,2497.41432476083155803842245832271481,2496.0,1.41432476083155803842245832271481
80,2561.01686029397486421395649234840064,2559.6,1.41686029397486421395649234840064
81,2625.41936426736692509987464333755172,2624.0,1.41936426736692509987464333755172
82,2690.62183745752270647352458590452627,2689.2,1.42183745752270647352458590452627
83,2756.62428061263405274793805813455361,2755.2,1.42428061263405274793805813455361
84,2823.42669445393111868176126592472363,2822.0,1.42669445393111868176126592472363
85,2891.02907967696294567261638663685713,2889.6,1.42907967696294567261638663685713
86,2959.43143695280287618931822235008006,2958.0,1.43143695280287618931822235008006
87,3028.63376692918404242757060005812324,3027.2,1.43376692918404242757060005812324
88,3098.63607023156974189603104044562262,3097.2,1.43607023156974189603104044562262
89,3169.43834746416312913747086653524765,3168.0,1.43834746416312913747086653524765
90,3241.04059921086030957302861841381928,3239.6,1.44059921086030957302861841381928
91,3313.44282603615060000550438243311184,3312.0,1.44282603615060000550438243311184
92,3386.64502848596743202010279869025887,3385.2,1.44502848596743202010279869025887
93,3460.64720708849311226597794426167116,3459.2,1.44720708849311226597794426167116
94,3535.44936235492041067319437462943737,3534.0,1.44936235492041067319437462943737
95,3611.05149478017372650569038946602639,3609.6,1.45149478017372650569038946602639
96,3687.45360484359238032871277453095458,3686.0,1.45360484359238032871277453095458
97,3764.65569300957839562708329967785093,3763.2,1.45569300957839562708329967785093
98,3842.65775972821096093636205837769418,3841.2,1.45775972821096093636205837769418
99,3921.45980543582960987678452106220429,3920.0,1.45980543582960987678452106220429
100,4001.06183055558801013943250981057016,3999.6,1.46183055558801013943250981057016
101,4081.46383549798012316994551016947510,4080.0,1.46383549798012316994551016947510
102,4162.66582066134037072035768028601138,4161.2,1.46582066134037072035768028601138
103,4244.66778643231933652603286704453379,4243.2,1.46778643231933652603286704453379
104,4327.46973318633642409996072955830985,4326.0,1.46973318633642409996072955830985
105,4411.07166128801079856291896147986993,4409.6,1.47166128801079856291896147986993
106,4495.47357109157184966376426145732577,4494.0,1.47357109157184966376426145732577
107,4580.67546294125033506215883037901962,4579.2,1.47546294125033506215883037901962
108,4666.67733717165128370648538413773580,4665.2,1.47733717165128370648538413773580
109,4753.47919410810967054616953235658628,4752.0,1.47919410810967054616953235658628
110,4841.08103406702981139750348675608992,4839.6,1.48103406702981139750348675608992
111,4929.48285735620936092086695133538150,4928.0,1.48285735620936092086695133538150
112,5018.68466427514874723360780889728642,5017.2,1.48466427514874723360780889728642
113,5108.68645511534682114705114550090606,5107.2,1.48645511534682114705114550090606
114,5199.48823016058344925834934134352715,5198.0,1.48823016058344925834934134352715
115,5291.08998968718973967938353455311695,5289.6,1.48998968718973967938353455311695
116,5383.49173396430654085327871604863190,5382.0,1.49173396430654085327871604863190
117,5476.69346325413182219608840006338615,5475.2,1.49346325413182219608840006338615
118,5570.69517781215750427009933026726953,5569.2,1.49517781215750427009933026726953
119,5665.49687788739627248149070303371166,5664.0,1.49687788739627248149070303371166
120,5761.09856372259888245284799840498828,5759.6,1.49856372259888245284799840498828
121,5857.50023555446242695378695614946218,5856.0,1.50023555446242695378695614946218
122,5954.70189361383001535981125196236026,5953.2,1.50189361383001535981125196236026
123,6052.70353812588228441659559944160938,6051.2,1.50353812588228441659559944160938
124,6151.50516931032114140707742964933896,6150.0,1.50516931032114140707742964933896
125,6251.10678738154611125247788934092797,6249.6,1.50678738154611125247788934092797
126,6351.50839254882364388107532733715811,6350.0,1.50839254882364388107532733715811
127,6452.70998501644971762066835574672564,6451.2,1.50998501644971762066835574672564
128,6554.71156498390605178347637912917704,6553.2,1.51156498390605178347637912917704
129,6657.51313264601022953898728778309187,6656.0,1.51313264601022953898728778309187
130,6761.11468819306001378839504217125379,6759.6,1.51468819306001378839504217125379
131,6865.51623181097212335015267603210587,6864.0,1.51623181097212335015267603210587
132,6970.71776368141572178896549374432126,6969.2,1.51776368141572178896549374432126
133,7076.71928398194085943896485552557481,7075.2,1.51928398194085943896485552557481
134,7183.52079288610209789584617137172320,7182.0,1.52079288610209789584617137172320
135,7291.12229056357752814441102487536332,7289.6,1.52229056357752814441102487536332
136,7399.52377718028338980042366455265531,7398.0,1.52377718028338980042366455265531
137,7508.72525289848448563774987318277116,7507.2,1.52525289848448563774987318277116
138,7618.72671787690057195975464644483681,7617.2,1.52671787690057195975464644483681
139,7729.52817227080890326803079995157332,7728.0,1.52817227080890326803079995157332
140,7841.12961623214309423556238080605635,7839.6,1.52961623214309423556238080605635
141,7953.53104990958845743393708669198541,7952.0,1.53104990958845743393708669198541
142,8066.73247344867396719095564906376676,8065.2,1.53247344867396719095564906376676
143,8180.73388699186099130481694612318198,8179.2,1.53388699186099130481694612318198
144,8295.53529067862892516142090989898336,8294.0,1.53529067862892516142090989898336
145,8411.13668464555785861357292409904377,8409.6,1.53668464555785861357292409904377
146,8527.53806902640839811212279834856552,8526.0,1.53806902640839811212279834856552
147,8644.73944395219875837610584174201046,8643.2,1.53944395219875837610584174201046
148,8762.74080955127923893092035937230070,8761.2,1.54080955127923893092035937230070
149,8881.54216594940418731550287943044100,8880.0,1.54216594940418731550287943044100
150,9001.14351326980155259938426768175719,8999.6,1.54351326980155259938426768175719
151,9121.54485163324012512388856555985154,9120.0,1.54485163324012512388856555985154
152,9242.74618115809455276665009790192330,9241.2,1.54618115809455276665009790192330
153,9364.74750196040822267914969399765317,9363.2,1.54750196040822267914969399765317
154,9487.54881415395409239651850102760430,9486.0,1.54881415395409239651850102760430
155,9611.15011785029354855560922306535407,9609.6,1.55011785029354855560922306535407
156,9735.55141315883337108770489747111337,9734.0,1.55141315883337108770489747111337
157,9860.75270018688087393247490065254092,9859.2,1.55270018688087393247490065254092
158,9986.75397903969729409128746538777535,9985.2,1.55397903969729409128746538777535
159,10113.5552498205494926927190582158250,10112.0,1.5552498205494926927190582158250
160,10241.1565126307600344078069489472781,10239.6,1.5565126307600344078069489472781
161,10369.5577675697557037111721382562050,10368.0,1.5577675697557037111721382562050
162,10498.7590147351145174491215098028478,10497.2,1.5590147351145174491215098028478
163,10628.7602542226112885680356629162795,10627.2,1.5602542226112885680356629162795
164,10759.5614861262617956396464489467356,10758.0,1.5614861262617956396464489467356
165,10891.1627105383656067834302689270920,10889.6,1.5627105383656067834302689270920
166,11023.5639275495476085017150622779944,11022.0,1.5639275495476085017150622779944
167,11156.7651372487982866598306465905872,11155.2,1.5651372487982866598306465905872
168,11290.7663397235128023002269087570503,11289.2,1.5663397235128023002269087570503
169,11425.5675350595289073526605164944745,11424.0,1.5675350595289073526605164944745
170,11561.1687233411637399835790001618666,11559.6,1.5687233411637399835790001618666
171,11697.5699046512495397791742446084616,11696.0,1.5699046512495397791742446084616
172,11834.7710790711683206287770814759971,11833.2,1.5710790711683206287770814759971
173,11972.7722466808855367109367983137677,11971.2,1.5722466808855367109367983137677
174,12111.5734075589827774257144980652139,12110.0,1.5734075589827774257144980652139
175,12251.1745617826895252581377263855220,12249.6,1.5745617826895252581377263855220
176,12391.5757094279140062791851035986188,12390.0,1.5757094279140062791851035986188
177,12532.7768505692731665448546861504901,12531.2,1.5768505692731665448546861504901
178,12674.7779852801218035477288513166564,12673.2,1.5779852801218035477288513166564
179,12817.5791136325808791659997963179859,12816.0,1.5791136325808791659997963179859
180,12961.1802356975650450563725795105357,12959.6,1.5802356975650450563725795105357
181,13105.5813515448094031394507510788166,13104.0,1.5813515448094031394507510788166
182,13250.7824612428955288730098923306707,13249.2,1.5824612428955288730098923306707
183,13396.7835648592767803624537498445091,13395.2,1.5835648592767803624537498445091
184,13543.5846624603029175500094564238549,13542.0,1.5846624603029175500094564238549
185,13691.1857541112440532908086220258121,13689.6,1.5857541112440532908086220258121
186,13839.5868398763139572844937463049478,13838.0,1.5868398763139572844937463049478
187,13988.7879198186927366628734128661933,13987.2,1.5879198186927366628734128661933
188,14138.7889940005489086699629618053994,14137.2,1.5889940005489086699629618053994
189,14289.5900624830608891655237494695263,14288.0,1.5900624830608891655237494695263
190,14441.1911253264379126032007887738758,14439.6,1.5911253264379126032007887738758
191,14593.5921825899404027058344770432005,14592.0,1.5921825899404027058344770432005
192,14746.7932343318998102201713575531094,14745.2,1.5932343318998102201713575531094
193,14900.7942806097379360548462107083003,14899.2,1.5942806097379360548462107083003
194,15055.5953214799857531424415238008790,15054.0,1.5953214799857531424415238008790
195,15211.1963569983017449580074666135627,15209.6,1.5963569983017449580074666135627
196,15367.5973872194897743859663514087025,15366.0,1.5973872194897743859663514087025
197,15524.7984121975164973107481229837718,15523.2,1.5984121975164973107481229837718
198,15682.7994319855283350931610569166729,15681.2,1.5994319855283350931610569166729
199,15841.6004466358680187663787111540891,15840.0,1.6004466358680187663787111540891
200,16001.2014562000907188917690621588301,15999.6,1.6014562000907188917690621588301
201,16161.6024607289797720510109378898111,16160.0,1.6024607289797720510109378898111
202,16322.8034602725620173506787877265416,16321.2,1.6034602725620173506787877265416
203,16484.8044548801227535940440743387960,16483.2,1.6044548801227535940440743387960
204,16647.6054446002203287350266275771816,16646.0,1.6054446002203287350266275771816
205,16811.2064294807003715796779424368897,16809.6,1.6064294807003715796779424368897
206,16975.6074095687096787539659820592407,16974.0,1.6074095687096787539659820592407
207,17140.8083849107097628085601835257973,17139.2,1.6083849107097628085601835257973
208,17306.8093555524900756820951764206194,17305.2,1.6093555524900756820951764206194
209,17473.6103215391809132658172350709481,17472.0,1.6103215391809132658172350709481
210,17641.2112829152660125652888704536943,17639.6,1.6112829152660125652888704536943
211,17809.6122397245948488181854792175661,17808.0,1.6122397245948488181854792175661
212,17978.8131920103946427953862800032082,17977.2,1.6131920103946427953862800032082
213,18148.8141398152820826633278720794211,18147.2,1.6141398152820826633278720794211
214,18319.6150831812747753833849902663403,18318.0,1.6150831812747753833849902663403
215,18491.2160221498024268545868029178515,18489.6,1.6160221498024268545868029178515
216,18663.6169567617177647542042460134815,18662.0,1.6169567617177647542042460134815
217,18836.8178870573072080353283358376816,18835.2,1.6178870573072080353283358376816
218,19010.8188130763012920539702551785813,19009.2,1.6188130763012920539702551785813
219,19185.6197348578848525987011423405113,19184.0,1.6197348578848525987011423405113
220,19361.2206524407069813310412201217884,19359.6,1.6206524407069813310412201217884
221,19537.6215658628907505389725849651219,19536.0,1.6215658628907505389725849651219
222,19714.8224751620427244010272678513911,19713.2,1.6224751620427244010272678513911
223,19892.8233803752622503218677666914745,19891.2,1.6233803752622503218677666914745
224,20071.6242815391505453987470177066137,20070.0,1.6242815391505453987470177066137
225,20251.2251786898195805754805843481816,20249.6,1.6251786898195805754805843481816
226,20431.6260718629007660219630014290592,20430.0,1.6260718629007660219630014290592
227,20612.8269610935534463821665322214270,20611.2,1.6269610935534463821665322214270
228,20794.8278464164732077009181875026112,20793.2,1.6278464164732077009181875026112
229,20977.6287278659000031816929001409461,20976.0,1.6287278659000031816929001409461
230,21161.2296054756261024617570890295458,21159.6,1.6296054756261024617570890295458
231,21345.6304792790038661940256269575142,21344.0,1.6304792790038661940256269575142
232,21530.8313493089533563446449880074130,21529.2,1.6313493089533563446449880074130
233,21716.8322155979697771919025065270139,21715.2,1.6322155979697771919025065270139
234,21903.6330781781307631726240063959359,21902.0,1.6330781781307631726240063959359
235,22091.2339370811035067472579331495362,22089.6,1.6339370811035067472579331495362
236,22279.6347923381517359825142066886416,22278.0,1.6347923381517359825142066886416
237,22468.8356439801425454717866427724114,22467.2,1.6356439801425454717866427724114
238,22658.8364920375530823244733410693811,22657.2,1.6364920375530823244733410693811
