Eigenstate,Energy,Kinetic Energy,Potential Energy
1,0.500000000047923424651244699082027307,0.0,0.500000000047923424651244699082027307
2,1.84623093796393386347158875359832511,1.2,0.64623093796393386347158875359832511
3,3.93633761062385723036008613401939541,3.2,0.73633761062385723036008613401939541
4,6.79966527972816527295786649919335925,6.0,0.79966527972816527295786649919335925
5,10.4480465786010004774337597149485933,9.6,0.8480465786010004774337597149485933
6,14.8870660020004161957648031023682459,14.0,0.8870660020004161957648031023682459
7,20.1197208313661735895149411811494544,19.2,0.9197208313661735895149411811494544
8,26.1477838530760644321529873394784819,25.2,0.9477838530760644321529873394784819
9,32.9723835661368676813810139948275434,32.0,0.9723835661368676813810139948275434
10,40.5942802246974787001469448094613153,39.6,0.9942802246974787001469448094613153
11,49.0140093988991637738979555884785742,48.0,1.0140093988991637738979555884785742
12,58.2319621840467250703651759586310902,57.2,1.0319621840467250703651759586310902
13,68.2484327102061105820888418199486236,67.2,1.0484327102061105820888418199486236
14,79.0636476750605860967607010160108818,78.0,1.0636476750605860967607010160108818
15,90.6777854597249263815612745383551173,89.6,1.0777854597249263815612745383551173
16,103.090988933615864272448024434644357,102.0,1.090988933615864272448024434644357
17,116.303374287913597726787986546855258,115.2,1.103374287913597726787986546855258
18,130.315037286567991196220052711378870,129.2,1.115037286567991196220052711378870
19,145.126057789402554627595225770536866,144.0,1.126057789402554627595225770536866
20,160.736503089748380927161232437502056,159.6,1.136503089748380927161232437502056
21,177.146430420525843904685651145522503,176.0,1.146430420525843904685651145522503
22,194.355888865403338988391200341288987,193.2,1.155888865403338988391200341288987
23,212.364920836733808327747366463929227,211.2,1.164920836733808327747366463929227
24,231.173563232955163301422906251760519,230.0,1.173563232955163301422906251760519
25,250.781848355386211184202848932150131,249.6,1.181848355386211184202848932150131
26,271.189804642034243117661454675408518,270.0,1.189804642034243117661454675408518
27,292.397457260557610123722258191219177,291.2,1.197457260557610123722258191219177
28,314.404828591624763088048699691288791,313.2,1.204828591624763088048699691288791
29,337.211938626116204816571865677602987,336.0,1.211938626116204816571865677602987
30,360.818805293966314697658850266103919,359.6,1.218805293966314697658850266103919
31,385.225444738296068001271178017821602,384.0,1.225444738296068001271178017821602
32,410.431871545409772260963331771009656,409.2,1.231871545409772260963331771009656
33,436.438098938919295379882015788009860,435.2,1.238098938919295379882015788009860
34,463.244138944508713835367186055690951,462.0,1.244138944508713835367186055690951
35,490.850002530513114290767133654108516,489.6,1.250002530513114290767133654108516
36,519.255699728451803044323669477815495,518.0,1.255699728451803044323669477815495
37,548.461239736852093196318589790431757,547.2,1.261239736852093196318589790431757
38,578.466631011069420672423687051116411,577.2,1.266631011069420672423687051116411
39,609.271881341311691591599333089062340,608.0,1.271881341311691591599333089062340
40,640.876997920679942683282412239052352,639.6,1.276997920679942683282412239052352
41,673.281987404720646184838909565080868,672.0,1.281987404720646184838909565080868
42,706.486855963729998048717565348084902,705.2,1.286855963729998048717565348084902
43,740.491609328844041943799178163332434,739.2,1.291609328844041943799178163332434
44,775.296252832780387519912677193698990,774.0,1.296252832780387519912677193698990
45,810.900791445959711835477432244719211,809.6,1.300791445959711835477432244719211
46,847.305229808622096565626759202033628,846.0,1.305229808622096565626759202033628
47,884.509572259459776995827581091785134,883.2,1.309572259459776995827581091785134
48,922.513822861210292441756769605388232,921.2,1.313822861210292441756769605388232
49,961.317985423589365192293078471382823,960.0,1.317985423589365192293078471382823
50,1000.92206352388871235882644073455596,999.6,1.32206352388871235882644073455596
51,1041.32606052551852805161084321420826,1040.0,1.32606052551852805161084321420826
52,1082.52997959473602808958500194874643,1081.2,1.32997959473602808958500194874643
53,1124.53382371576899933153703473409330,1123.2,1.33382371576899933153703473409330
54,1167.33759570451573458503156391289653,1166.0,1.33759570451573458503156391289653
55,1210.94129822097925855700442095184421,1209.6,1.34129822097925855700442095184421
56,1255.34493378057367573980384639439837,1254.0,1.34493378057367573980384639439837
57,1300.54850476442327216133711464429197,1299.2,1.34850476442327216133711464429197
58,1346.55201342876020574168989245588419,1345.2,1.35201342876020574168989245588419
59,1393.35546191351386605130967206697625,1392.0,1.35546191351386605130967206697625
60,1440.95885225017395975814196534690041,1439.6,1.35885225017395975814196534690041
61,1489.36218636899981382360283546540794,1488.0,1.36218636899981382360283546540794
62,1538.56546610564008750215755832483046,1537.2,1.36546610564008750215755832483046
63,1588.56869320721984231025420183077247,1587.2,1.36869320721984231025420183077247
64,1639.37186933794560665043860286955640,1638.0,1.37186933794560665043860286955640
65,1690.97499608427353693650418877775217,1689.6,1.37499608427353693650418877775217
66,1743.37807495968092972647571162095469,1742.0,1.37807495968092972647571162095469
67,1796.58110740907707707889997728930511,1795.2,1.38110740907707707889997728930511
68,1850.58409481288570118710794095741645,1849.2,1.38409481288570118710794095741645
69,1905.38703849082789167538566217432054,1904.0,1.38703849082789167538566217432054
70,1960.98993970543154067272719448709863,1959.6,1.38993970543154067272719448709863
71,2017.39279966529067207611162016685798,2016.0,1.39279966529067207611162016685798
72,2074.59561952809576317286605851762166,2073.2,1.39561952809576317286605851762166
73,2132.59840040345410378527322792154109,2131.2,1.39840040345410378527322792154109
74,2191.40114335551741925202901353473170,2190.0,1.40114335551741925202901353473170
75,2251.00384940543235246005256730545805,2249.6,1.40384940543235246005256730545805
76,2311.40651953362795058339591547853209,2310.0,1.40651953362795058339591547853209
77,2372.60915468195299978758206160718590,2371.2,1.40915468195299978758206160718590
78,2434.61175575567488535952016219763838,2433.2,1.41175575567488535952016219763838
79,2497.41432362535060790315405940083540,2496.0,1.41432362535060790315405940083540
80,2561.01685912857964811535587924531112,2559.6,1.41685912857964811535587924531112
81,2625.41936307164752331509984301730191,2624.0,1.41936307164752331509984301730191
82,2690.62183623106811744839774204127902,2689.2,1.42183623106811744839774204127902
83,2756.62427935503217755768782558896649,2755.2,1.42427935503217755768782558896649
84,2823.42669316476874541265269187149883,2822.0,1.42669316476874541265269187149883
85,2891.02907835582573372326802774973193,2889.6,1.42907835582573372326802774973193
86,2959.43143559927534049049459577454386,2958.0,1.43143559927534049049459577454386
87,3028.63376554284953757922611109877636,3027.2,1.43376554284953757922611109877636
88,3098.63606881201044622036974816135574,3097.2,1.43606881201044622036974816135574
89,3169.43834601096002864677455913958284,3168.0,1.43834601096002864677455913958284
90,3241.04059772359318185099376701702261,3239.6,1.44059772359318185099376701702261
91,3313.44282451439799800081621031014300,3312.0,1.44282451439799800081621031014300
92,3386.64502692930666775096296344033344,3385.2,1.44502692930666775096296344033344
93,3460.64720549650024043428963345446408,3459.2,1.44720549650024043428963345446408
94,3535.44936072717021218709660178047603,3534.0,1.44936072717021218709660178047603
95,3611.05149311623969190912055406561344,3609.6,1.45149311623969190912055406561344
96,3687.45360314304669313666406766959794,3686.0,1.45360314304669313666406766959794
97,3764.65569127199191556521063674461042,3763.2,1.45569127199191556521063674461042
98,3842.65775795315320708357748719811271,3841.2,1.45775795315320708357748719811271
99,3921.45980362286874370946975487866988,3920.0,1.45980362286874370946975487866988
100,4001.06182870429081847588322441463164,3999.6,1.46182870429081847588322441463164
101,4081.46383360791200101364856865841430,4080.0,1.46383360791200101364856865841430
102,4162.66581873206530400068883349143815,4161.2,1.46581873206530400068883349143815
103,4244.66778446339988473494899957578021,4243.2,1.46778446339988473494899957578021
104,4327.46973117733370282324632546419793,4326.0,1.46973117733370282324632546419793
105,4411.07165923848446190453284409978200,4409.6,1.47165923848446190453284409978200
106,4495.47356900108007256181806772444358,4494.0,1.47356900108007256181806772444358
107,4580.67546080934979549504438716791726,4579.2,1.47546080934979549504438716791726
108,4666.67733499789714478765322089544846,4665.2,1.47733499789714478765322089544846
109,4753.47919189205556250604605001794806,4752.0,1.47919189205556250604605001794806
110,4841.08103180822781345101914997505542,4839.6,1.48103180822781345101914997505542
111,4929.48285505420998301905251891047452,4928.0,1.48285505420998301905251891047452
112,5018.68466192950091169770001966714804,5017.2,1.48466192950091169770001966714804
113,5108.68645272559784418353358358648373,5107.2,1.48645272559784418353358358648373
114,5199.48822772627902235333820179578094,5198.0,1.48822772627902235333820179578094
115,5291.08998720787391087075164339345176,5289.6,1.48998720787391087075164339345176
116,5383.49173143952169587889486811001791,5382.0,1.49173143952169587889486811001791
117,5476.69346068341866551653224581552693,5475.2,1.49346068341866551653224581552693
118,5570.69517519505503996419503106168607,5569.2,1.49517519505503996419503106168607
119,5665.49687522344178501298559952643660,5664.0,1.49687522344178501298559952643660
120,5761.09856101132791730654470231467574,5759.6,1.49856101132791730654470231467574
121,5857.50023279540877113941988068640711,5856.0,1.50023279540877113941988068640711
122,5954.70189080652567778194040591999837,5953.2,1.50189080652567778194040591999837
123,6052.70353526985747610877229092921252,6051.2,1.50353526985747610877229092921252
124,6151.50516640510425562851801072323628,6150.0,1.50516640510425562851801072323628
125,6251.10678442666370344546276440258798,6249.6,1.50678442666370344546276440258798
126,6351.50838954380041148727140698065163,6350.0,1.50838954380041148727140698065163
127,6452.70998196080847975455389241401521,6451.2,1.50998196080847975455389241401521
128,6554.71156187716772876102722237886821,6553.2,1.51156187716772876102722237886821
129,6657.51312948769382225976370259952561,6656.0,1.51312948769382225976370259952561
130,6761.11468498268258296914824856075449,6759.6,1.51468498268258296914824856075449
131,6865.51622854804876860804925454461103,6864.0,1.51622854804876860804925454461103
132,6970.71776036545956057250711747163680,6969.2,1.51776036545956057250711747163680
133,7076.71928061246300580465993359212842,7075.2,1.51928061246300580465993359212842
134,7183.52078946261164112866785271796103,7182.0,1.52078946261164112866785271796103
135,7291.12228708558151122005466048113788,7289.6,1.52228708558151122005466048113788
136,7399.52377364728678768735465417377868,7398.0,1.52377364728678768735465417377868
137,7508.72524930999018343700998719035847,7507.2,1.52524930999018343700998719035847
138,7618.72671423240934288047242105917205,7617.2,1.52671423240934288047242105917205
139,7729.52816856981938643655818544864938,7728.0,1.52816856981938643655818544864938
140,7841.12961247415177233613647579610446,7839.6,1.52961247415177233613647579610446
141,7953.53104609408963417874184385231932,7952.0,1.53104609408963417874184385231932
142,8066.73246957515974461743420559041488,8065.2,1.53246957515974461743420559041488
143,8180.73388305982124689806039152206784,8179.2,1.53388305982124689806039152206784
144,8295.53528668755128879943477745918881,8294.0,1.53528668755128879943477745918881
145,8411.13668059492768933319693297539171,8409.6,1.53668059492768933319693297539171
146,8527.53806491570876069335376607997710,8526.0,1.53806491570876069335376607997710
147,8644.73943978091039974254754652451795,8643.2,1.53943978091039974254754652451795
148,8762.74080531888056436405768353770795,8761.2,1.54080531888056436405768353770795
149,8881.54216165537123648047034484827132,8880.0,1.54216165537123648047034484827132
150,9001.14350891360797537987221549354681,8999.6,1.54350891360797537987221549354681
151,9121.54484721435715726380190037351326,9120.0,1.54484721435715726380190037351326
152,9242.74617667599099131610670534150280,9241.2,1.54617667599099131610670534150280
153,9364.74749741455040124237697058187421,9363.2,1.54749741455040124237697058187421
154,9487.54880954380585617917741287516046,9486.0,1.54880954380585617917741287516046
155,9611.15011317531622920904565825177069,9609.6,1.55011317531622920904565825177069
156,9735.55140841848576134759817094078094,9734.0,1.55140841848576134759817094078094
157,9860.75269538061920204932314395187896,9859.2,1.55269538061920204932314395187896
158,9986.75397416697519805013836915487065,9985.2,1.55397416697519805013836915487065
159,10113.5552448808179942195235643753111,10112.0,1.5552448808179942195235643753111
160,10241.1565076234675127597411179935578,10239.6,1.5565076234675127597411179935578
161,10369.5577624943478692482406994375237,10368.0,1.5577624943478692482406994375237
162,10498.7590095910343849843232791525035,10497.2,1.5590095910343849843232791525035
163,10628.7602490092991504933383119316093,10627.2,1.5602490092991504933383119316093
164,10759.5614808431551948249836977547467,10758.0,1.5614808431551948249836977547467
165,10891.1627051848993092459005986712139,10889.6,1.5627051848993092459005986712139
166,11023.5639221251535758421261907533852,11022.0,1.5639221251535758421261907533852
167,11156.7651317529056482636986228484349,11155.2,1.5651317529056482636986228484349
168,11290.7663341555478273003024305793385,11289.2,1.5663341555478273003024305793385
169,11425.5675294189149763500192372555763,11424.0,1.5675294189149763500192372555763
170,11561.1687176273213165242747958811611,11559.6,1.5687176273213165242747958811611
171,11697.5698988635961415834174096509078,11696.0,1.5698988635961415834174096509078
172,11834.7710732091184905695608616057376,11833.2,1.5710732091184905695608616057376
173,11972.7722407438508135389971312682212,11971.2,1.5722407438508135389971312682212
174,12111.5734015463716662376681477646654,12110.0,1.5734015463716662376681477646654
175,12251.1745556939074677046042573207940,12249.6,1.5745556939074677046042573207940
176,12391.5757032623633505096574844648190,12390.0,1.5757032623633505096574844648190
177,12532.7768443263531368860417910649732,12531.2,1.5768443263531368860417910649732
178,12674.7779789592284699120518698414642,12673.2,1.5779789592284699120518698414642
179,12817.5791072331071261868811795351085,12816.0,1.5791072331071261868811795351085
180,12961.1802292189005409469135054998165,12959.6,1.5802292189005409469135054998165
181,13105.5813449863405682710491833588957,13104.0,1.5813449863405682710491833588957
182,13250.7824546040055040704266100449183,13249.2,1.5824546040055040704266100449183
183,13396.7835581393453949117883067856969,13395.2,1.5835581393453949117883067856969
184,13543.5846556587066569160027007782897,13542.0,1.5846556587066569160027007782897
185,13691.1857472273560265398403566269197,13689.6,1.5857472273560265398403566269197
186,13839.5868329095038642095988164326284,13838.0,1.5868329095038642095988164326284
187,13988.7879127683268346070491041570859,13987.2,1.5879127683268346070491041570859
188,14138.7889868659899790439931349966671,14137.2,1.5889868659899790439931349966671
189,14289.5900552636682036564947948940688,14288.0,1.5900552636682036564947948940688
190,14441.1911180215671990698346575808920,14439.6,1.5911180215671990698346575808920
191,14593.5921751989438107567113926438601,14592.0,1.5921751989438107567113926438601
192,14746.7932268541258764708645130817561,14745.2,1.5932268541258764708645130817561
193,14900.7942730445315490599364564802715,14899.2,1.5942730445315490599364564802715
194,15055.5953138266881179983270784607808,15054.0,1.5953138266881179983270784607808
195,15211.1963492562503475723684523701703,15209.6,1.5963492562503475723684523701703
196,15367.5973793880183454096891709959174,15366.0,1.5973793880183454096891709959174
197,15524.7984042759549757280577970311418,15523.2,1.5984042759549757280577970311418
198,15682.7994239732028314656527098986060,15681.2,1.5994239732028314656527098986060
199,15841.6004385321007781265808092826106,15840.0,1.6004385321007781265808092826106
200,16001.2014480042000832818122710501783,15999.6,1.6014480042000832818122710501783
201,16161.6024524402801427019168142729024,16160.0,1.6024524402801427019168142729024
202,16322.8034518903638164977200443752421,16321.2,1.6034518903638164977200443752421
203,16484.8044464037323859235679699238482,16483.2,1.6044464037323859235679699238482
204,16647.6054360289401424580687780576601,16646.0,1.6054360289401424580687780576601
205,16811.2064208138286191276304096306023,16809.6,1.6064208138286191276304096306023
206,16975.6074008055404770914982758038100,16974.0,1.6074008055404770914982758038100
207,17140.8083760505330533589255160467044,17139.2,1.6083760505330533589255160467044
208,17306.8093465945915838598878162710472,17305.2,1.6093465945915838598878162710472
209,17473.6103124828421076121777278088382,17472.0,1.6103124828421076121777278088382
210,17641.2112737597640634804848823064023,17639.6,1.6112737597640634804848823064023
211,17809.6122304692025868864260417977310,17808.0,1.6122304692025868864260417977310
212,17978.8131826543805166966546581921494,17977.2,1.6131826543805166966546581921494
213,18148.8141303579101166669457946403835,18147.2,1.6141303579101166669457946403835
214,18319.6150736218045264179473687748680,18318.0,1.6150736218045264179473687748680
215,18491.2160124874889411488307572245168,18489.6,1.6160124874889411488307572245168
216,18663.6169469958115340432989355697919,18662.0,1.6169469958115340432989355697919
217,18836.8178771870541253269955842658404,18835.2,1.6178771870541253269955842658404
218,19010.8188031009426069487665630391076,19009.2,1.6188031009426069487665630391076
219,19185.6197247766571261587108765514216,19184.0,1.6197247766571261587108765514216
220,19361.2206422528420404911497039116608,19359.6,1.6206422528420404911497039116608
221,19537.6215555676156420548050877072905,19536.0,1.6215555676156420548050877072905
222,19714.8224647585796683275545956575355,19713.2,1.6224647585796683275545956575355
223,19892.8233698628285930165943912950279,19891.2,1.6233698628285930165943912950279
224,20071.6242709169587120433103087694444,20070.0,1.6242709169587120433103087694444
225,20251.2251679570770272094004982601686,20249.6,1.6251679570770272094004982601686
226,20431.6260610188099310821918051986440,20430.0,1.6260610188099310821918051986440
227,20612.8269501373117017419974402756725,20611.2,1.6269501373117017419974402756725
228,20794.8278353472728092017170471748279,20793.2,1.6278353472728092017170471748279
229,20977.6287166829280406508234073521041,20976.0,1.6287166829280406508234073521041
230,21161.2295941780644492099739087616260,21159.6,1.6295941780644492099739087616260
231,21345.6304678660291279855108547056384,21344.0,1.6304678660291279855108547056384
232,21530.8313377797368198327647537018874,21529.2,1.6313377797368198327647537018874
233,21716.8322039516773578136588723580088,21715.2,1.6322039516773578136588723580088
234,21903.6330664139229524946743934904662,21902.0,1.6330664139229524946743934904662
235,22091.2339251981353192562696567407216,22089.6,1.6339251981353192562696567407216
236,22279.6347803355726553125153219119752,22278.0,1.6347803355726553125153219119752
237,22468.8356318570964700610657406418917,22467.2,1.6356318570964700610657406418917
238,22658.8364797931782704944709427794276,22657.2,1.6364797931782704944709427794276
