Eigenstate,Energy,Kinetic Energy,Potential Energy
1,0.500000000015458988149343928446690006,0.0,0.500000000015458988149343928446690006
2,1.84623093775202280790964988679624597,1.2,0.64623093775202280790964988679624597
3,3.93633761000138499938570492020914675,3.2,0.73633761000138499938570492020914675
4,6.79966527843162496743718679457826814,6.0,0.79966527843162496743718679457826814
5,10.4480465763551235412065587414303420,9.6,0.8480465763551235412065587414303420
6,14.8870659985251141351799093594886900,14.0,0.8870659985251141351799093594886900
7,20.1197208263790957355522925295732036,19.2,0.9197208263790957355522925295732036
8,26.1477838462936646909529095623326547,25.2,0.9477838462936646909529095623326547
9,32.9723835572749006275151714156340673,32.0,0.9723835572749006275151714156340673
10,40.5942802134712514149098900352217407,39.6,0.9942802134712514149098900352217407
11,49.0140093850236726993625852377032527,48.0,1.0140093850236726993625852377032527
12,58.2319621672367342690672978805107799,57.2,1.0319621672367342690672978805107799
13,68.2484326901761980975631594860981248,67.2,1.0484326901761980975631594860981248
14,79.0636476515251719559064856847486878,78.0,1.0636476515251719559064856847486878
15,90.6777854323982895217008415275255328,89.6,1.0777854323982895217008415275255328
16,103.090988902212152511237631256283448,102.0,1.090988902212152511237631256283448
17,116.303374252146833206391332703591196,115.2,1.103374252146833206391332703591196
18,130.315037246152072792191960755277425,129.2,1.115037246152072792191960755277425
19,145.126057744051258266656522119821814,144.0,1.126057744051258266656522119821814
20,160.736503039175358429590918452533892,159.6,1.136503039175358429590918452533892
21,177.146430364444620763328316230191375,176.0,1.146430364444620763328316230191375
22,194.355888803527311366360697702155615,193.2,1.155888803527311366360697702155615
23,212.364920768776239471975191262392133,211.2,1.164920768776239471975191262392133
24,231.173563158629179512418045822630240,230.0,1.173563158629179512418045822630240
25,250.781848274404797443650971160345017,249.6,1.181848274404797443650971160345017
26,271.189804554110238448570383223228936,270.0,1.189804554110238448570383223228936
27,292.397457165403702738795033972169073,291.2,1.197457165403702738795033972169073
28,314.404828488953485368310869437101094,313.2,1.204828488953485368310869437101094
29,337.211938515639928152339920074486220,336.0,1.211938515639928152339920074486220
30,360.818805175397244216606167147288400,359.6,1.218805175397244216606167147288400
31,385.225444611346237202875786803506233,384.0,1.225444611346237202875786803506233
32,410.431871409791037572491173392388307,409.2,1.231871409791037572491173392388307
33,436.438098794343330645908598540756040,435.2,1.238098794343330645908598540756040
34,463.244138790687004750413845374198567,462.0,1.244138790687004750413845374198567
35,490.850002367156952782741982603405391,489.6,1.250002367156952782741982603405391
36,519.255699555272281614978990502768328,518.0,1.255699555272281614978990502768328
37,548.461239553560099223768290465813038,547.2,1.261239553560099223768290465813038
38,578.466630817375630679834644648053685,577.2,1.266630817375630679834644648053685
39,609.271881136926565485425058911927284,608.0,1.271881136926565485425058911927284
40,640.876997705313717963805866105539592,639.6,1.276997705313717963805866105539592
41,673.281987178083332131302830489912917,672.0,1.281987178083332131302830489912917
42,706.486855725531369880921543246670747,705.2,1.286855725531369880921543246670747
43,740.491609078793634961714787897091624,739.2,1.291609078793634961714787897091624
44,775.296252570587491222597167605891820,774.0,1.296252570587491222597167605891820
45,810.900791171333364020341584230354902,809.6,1.300791171333364020341584230354902
46,847.305229521271077408924854387972894,846.0,1.305229521271077408924854387972894
47,884.509571959092603115080212719606144,883.2,1.309571959092603115080212719606144
48,922.513822547535210940684711351127377,921.2,1.313822547535210940684711351127377
49,961.317985096314347688728478910765519,960.0,1.317985096314347688728478910765519
50,1000.92206318272144899597250806605292,999.6,1.32206318272144899597250806605292
51,1041.32606017016642149294003405452213,1040.0,1.32606017016642149294003405452213
52,1082.52997922490618749759635085429242,1081.2,1.32997922490618749759635085429242
53,1124.53382333116823433053363099329395,1123.2,1.33382333116823433053363099329395
54,1167.33759530485054920802770624799839,1166.0,1.33759530485054920802770624799839
55,1210.94129780595584517682748511996564,1209.6,1.34129780595584517682748511996564
56,1255.34493334989790898441723032842138,1254.0,1.34493334989790898441723032842138
57,1300.54850431780070281337695241990402,1299.2,1.34850431780070281337695241990402
58,1346.55201296589605462217865763770885,1345.2,1.35201296589605462217865763770885
59,1393.35546143411301788748403855830009,1392.0,1.35546143411301788748403855830009
60,1440.95885175394095703530944991495544,1439.6,1.35885175394095703530944991495544
61,1489.36218585563885062092164569231925,1488.0,1.36218585563885062092164569231925
62,1538.56546557485500331221617382047378,1537.2,1.36546557485500331221617382047378
63,1588.56869265871411584231140431141440,1587.2,1.36869265871411584231140431141440
64,1639.37186877142234961717051415860382,1638.0,1.37186877142234961717051415860382
65,1690.97499549943548782409211304097153,1689.6,1.37499549943548782409211304097153
66,1743.37807435623044754785723224542945,1742.0,1.37807435623044754785723224542945
67,1796.58110678671613510999546817675510,1795.2,1.38110678671613510999546817675510
68,1850.58409417131588068582535268926317,1849.2,1.38409417131588068582535268926317
69,1905.38703782975037558319787287064625,1904.0,1.38703782975037558319787287064625
70,1960.98993902454710729860874852887082,1959.6,1.38993902454710729860874852887082
71,2017.39279896429968876261431666722721,2016.0,1.39279896429968876261431666722721
72,2074.59561880669817994410664782235863,2073.2,1.39561880669817994410664782235863
73,2132.59839966134944697660029438946668,2131.2,1.39839966134944697660029438946668
74,2191.40114259240478512113071742994704,2190.0,1.40114259240478512113071742994704
75,2251.00384862101040077926167465498895,2249.6,1.40384862101040077926167465498895
76,2311.40651872759489821294387275122190,2310.0,1.40651872759489821294387275122190
77,2372.60915385400661422954928452886242,2371.2,1.40915385400661422954928452886242
78,2434.61175490551247829222551626017913,2433.2,1.41175490551247829222551626017913
79,2497.41432275266902869572251815288773,2496.0,1.41432275266902869572251815288773
80,2561.01685823307527732219962967007906,2559.6,1.41685823307527732219962967007906
81,2625.41936215301626615004444041250422,2624.0,1.41936215301626615004444041250422
82,2690.62183528900539723818153419553612,2689.2,1.42183528900539723818153419553612
83,2756.62427838923292917455960054004461,2755.2,1.42427838923292917455960054004461
84,2823.42669217492740868578933752770424,2822.0,1.42669217492740868578933752770424
85,2891.02907734163624682873092903674802,2889.6,1.42907734163624682873092903674802
86,2959.43143456043113331944064123760782,2958.0,1.43143456043113331944064123760782
87,3028.63376447904352508408621436748317,3027.2,1.43376447904352508408621436748317
88,3098.63606772293502173870508478405826,3097.2,1.43606772293502173870508478405826
89,3169.43834489630705720251801313099063,3168.0,1.43834489630705720251801313099063
90,3241.04059658305399343278141581333384,3239.6,1.44059658305399343278141581333384
91,3313.44282334766338081711104330048605,3312.0,1.44282334766338081711104330048605
92,3386.64502573606686146167053425570463,3385.2,1.44502573606686146167053425570463
93,3460.64720427644492935856276461432248,3459.2,1.44720427644492935856276461432248
94,3535.44935947998851848702381237659355,3534.0,1.44935947998851848702381237659355
95,3611.05149184162016874899035827004465,3609.6,1.45149184162016874899035827004465
96,3687.45360184067731781749494794508804,3686.0,1.45360184067731781749494794508804
97,3764.65568994156008263423390098859859,3763.2,1.45568994156008263423390098859859
98,3842.65775659434572141835800938727955,3841.2,1.45775659434572141835800938727955
99,3921.45980223537181357634698359450225,3920.0,1.45980223537181357634698359450225
100,4001.06182728779004856241260284846679,3999.6,1.46182728779004856241260284846679
101,4081.46383216209238543472099809450864,4080.0,1.46383216209238543472099809450864
102,4162.66581725661121927800346227887572,4161.2,1.46581725661121927800346227887572
103,4244.66778295799508274951228535230035,4243.2,1.46778295799508274951228535230035
104,4327.46972964166130374056769141116873,4326.0,1.46972964166130374056769141116873
105,4411.07165767222694707218509035425028,4409.6,1.47165767222694707218509035425028
106,4495.47356740391927737902811842945861,4494.0,1.47356740391927737902811842945861
107,4580.67545918096690225397754081044434,4579.2,1.47545918096690225397754081044434
108,4666.67733333797267548605170917505422,4665.2,1.47733333797267548605170917505422
109,4753.47919020026937163088009296389185,4752.0,1.47919020026937163088009296389185
110,4841.08103008425908073280636184090047,4839.6,1.48103008425908073280636184090047
111,4929.48285329773720615649895630307854,4928.0,1.48285329773720615649895630307854
112,5018.68466014020189905231362905538366,5017.2,1.48466014020189905231362905538366
113,5108.68645090314970744385835652446444,5107.2,1.48645090314970744385835652446444
114,5199.48822587035816916845467070207479,5198.0,1.48822587035816916845467070207479
115,5291.08998531815603745268690526943845,5289.6,1.48998531815603745268690526943845
116,5383.49172951568177957358262500982374,5382.0,1.49172951568177957358262500982374
117,5476.69345872513095734296073550045732,5475.2,1.49345872513095734296073550045732
118,5570.69517320199305712137821092532486,5569.2,1.49517320199305712137821092532486
119,5665.49687319527830335439007416512887,5664.0,1.49687319527830335439007416512887
120,5761.09855894773496378160227974636290,5759.6,1.49855894773496378160227974636290
121,5857.50023069605761620175293019475851,5856.0,1.50023069605761620175293019475851
122,5954.70188867108682776392446382981748,5953.2,1.50188867108682776392446382981748
123,6052.70353309800066556205745456439752,6051.2,1.50353309800066556205745456439752
124,6151.50516419649843963012800112345488,6150.0,1.50516419649843963012800112345488
125,6251.10678218097704986908758666636901,6249.6,1.50678218097704986908758666636901
126,6351.50838726070029323936671393634399,6350.0,1.50838726070029323936671393634399
127,6452.70997963996146697485723431234166,6451.2,1.50997963996146697485723431234166
128,6554.71155951823958098709839769209839,6553.2,1.51155951823958098709839769209839
129,6657.51312709034948055515354352308855,6656.0,1.51312709034948055515354352308855
130,6761.11468254658616201479708397434031,6759.6,1.51468254658616201479708397434031
131,6865.51622607286354875651336079318124,6864.0,1.51622607286354875651336079318124
132,6970.71775785084797986460812728823656,6969.2,1.51775785084797986460812728823656
133,7076.71927805808665194814953568385333,7075.2,1.51927805808665194814953568385333
134,7183.52078686813124343849652847493011,7182.0,1.52078686813124343849652847493011
135,7291.12228445065693251983013255384079,7289.6,1.52228445065693251983013255384079
136,7399.52377097157701617157280365969568,7398.0,1.52377097157701617157280365969568
137,7508.72524659315332449363729313945992,7507.2,1.52524659315332449363729313945992
138,7618.72671147410261087345598435415387,7617.2,1.52671147410261087345598435415387
139,7729.52816576969909644783601598007190,7728.0,1.52816576969909644783601598007190
140,7841.12960963187333186671720902983743,7839.6,1.52960963187333186671720902983743
141,7953.53104320930753480841991148689273,7952.0,1.53104320930753480841991148689273
142,8066.73246664752755362270271746681793,8065.2,1.53246664752755362270271746681793
143,8180.73388008899159882778082813196280,8179.2,1.53388008899159882778082813196280
144,8295.53528367317587700781870500256298,8294.0,1.53528367317587700781870500256298
145,8411.13667753665725746965172578939027,8409.6,1.53667753665725746965172578939027
146,8527.53806181319309414874048315233150,8526.0,1.53806181319309414874048315233150
147,8644.73943663379831705139544898195281,8643.2,1.53943663379831705139544898195281
148,8762.74080212681990856227637900799012,8761.2,1.54080212681990856227637900799012
149,8881.54215841800886641809649261956744,8880.0,1.54215841800886641809649261956744
150,9001.14350563058975698838436904264001,8999.6,1.54350563058975698838436904264001
151,9121.54484388532795477753260752372360,9120.0,1.54484388532795477753260752372360
152,9242.74617330059465844727775025941600,9241.2,1.54617330059465844727775025941600
153,9364.74749399242977230927922335990820,9363.2,1.54749399242977230927922335990820
154,9487.54880607460273718701315144989366,9486.0,1.54880607460273718701315144989366
155,9611.15010965867138888294697235470166,9609.6,1.55010965867138888294697235470166
156,9735.55140485403892211733085866544370,9734.0,1.55140485403892211733085866544370
157,9860.75269176800903098518184756355047,9859.2,1.55269176800903098518184756355047
158,9986.75397050583929774953408565442232,9985.2,1.55397050583929774953408565442232
159,10113.5552411707928936437606630644755,10112.0,1.5552411707928936437606630644755
160,10241.1565038641886580204767099593772,10239.6,1.5565038641886580204767099593772
161,10369.5577586854496143431147436104198,10368.0,1.5577586854496143431147436104198
162,10498.7590057321499824812436265340888,10497.2,1.5590057321499824812436265340888
163,10628.7602451000607421629004487934295,10627.2,1.5602451000607421629004487934295
164,10759.5614768831938022205002776596752,10758.0,1.5614768831938022205002776596752
165,10891.1627011738448242305114041045292,10889.6,1.5627011738448242305114041045292
166,11023.5639180626347510624547790889506,11022.0,1.5639180626347510624547790889506
167,11156.7651276385500875695170531400103,11155.2,1.5651276385500875695170531400103
168,11290.7663299889819761096606565069986,11289.2,1.5663299889819761096606565069986
169,11425.5675251997641119592914873098072,11424.0,1.5675251997641119592914873098072
170,11561.1687133552095383625697786454105,11559.6,1.5687133552095383625697786454105
171,11697.5698945381463614107949085532805,11696.0,1.5698945381463614107949085532805
172,11834.7710688299524226184919173973143,11833.2,1.5710688299524226184919173973143
173,11972.7722363105889645985004044635949,11971.2,1.5722363105889645985004044635949
174,12111.5733970586333256795496469527330,12110.0,1.5733970586333256795496469527330
175,12251.1745511513106974512227865471141,12249.6,1.5745511513106974512227865471141
176,12391.5756986645249749426327437871151,12390.0,1.5756986645249749426327437871151
177,12532.7768396728887326953171165418875,12531.2,1.5768396728887326953171165418875
178,12674.7779742497523558847180406992763,12673.2,1.5779742497523558847180406992763
179,12817.5791024672323529351625740856020,12816.0,1.5791024672323529351625740856020
180,12961.1802243962388805747122437876352,12959.6,1.5802243962388805747122437876352
181,13105.5813401065025039784375979783969,13104.0,1.5813401065025039784375979783969
182,13250.7824496666002196954727785349403,13249.2,1.5824496666002196954727785349403
183,13396.7835531439807644090936811837716,13395.2,1.5835531439807644090936811837716
184,13543.5846506049892337713252621858754,13542.0,1.5846506049892337713252621858754
185,13691.1857421148910331201707857263591,13689.6,1.5857421148910331201707857263591
186,13839.5868277378951810480517681603563,13838.0,1.5868277378951810480517681603563
187,13988.7879075371769896219252487037698,13987.2,1.5879075371769896219252487037698
188,14138.7889815749001366913619973348783,14137.2,1.5889815749001366913619973348783
189,14289.5900499122381540156423315631403,14288.0,1.5900499122381540156423315631403
190,14441.1911126093953468609131572732866,14439.6,1.5911126093953468609131572732866
191,14593.5921697256271642899235552908605,14592.0,1.5921697256271642899235552908605
192,14746.7932213192600365265067390716907,14745.2,1.5932213192600365265067390716907
193,14900.7942674477106976986205548460467,14899.2,1.5942674477106976986205548460467
194,15055.5953081675050073006927432499192,15054.0,1.5953081675050073006927432499192
195,15211.1963435342962883075927511595648,15209.6,1.5963435342962883075927511595648
196,15367.5973736028831956320924483649348,15366.0,1.5973736028831956320924483649348
197,15524.7983984272271293010987142565229,15523.2,1.5983984272271293010987142565229
198,15682.7994180604692065125987405387824,15681.2,1.5994180604692065125987405387824
199,15841.6004325549468054071332082219251,15840.0,1.6004325549468054071332082219251
200,16001.2014419622096944939580059269567,15999.6,1.6014419622096944939580059269567
201,16161.6024463330357587082729888321722,16160.0,1.6024463330357587082729888321722
202,16322.8034457174463354756287342481998,16321.2,1.6034457174463354756287342481998
203,16484.8044401647211714381930332915337,16483.2,1.6044401647211714381930332915337
204,16647.6054297234130114577382388215784,16646.0,1.6054297234130114577382388215784
205,16811.2064144413618298606612271833935,16809.6,1.6064144413618298606612271833935
206,16975.6073943657087169437324660786928,16974.0,1.6073943657087169437324660786928
207,17140.8083695429094266111993687024935,17139.2,1.6083695429094266111993687024935
208,17306.8093400187475993646482279632506,17305.2,1.6093400187475993646482279632506
209,17473.6103058383476663884519046746957,17472.0,1.6103058383476663884519046746957
210,17641.2112670461874462264019955375440,17639.6,1.6112670461874462264019955375440
211,17809.6122236861104414084815048751340,17808.0,1.6122236861104414084815048751340
212,17978.8131758013378452548997385689218,17977.2,1.6131758013378452548997385689218
213,18148.8141234344802632352769607412992,18147.2,1.6141234344802632352769607412992
214,18319.6150666275491638586620246862844,18318.0,1.6150666275491638586620246862844
215,18491.2160054219680583006072066010723,18489.6,1.6160054219680583006072066010723
216,18663.6169398585834227217503931326838,18662.0,1.6169398585834227217503931326838
217,18836.8178699776753672369396345968535,18835.2,1.6178699776753672369396345968535
218,19010.8187958189680605073425440571807,19009.2,1.6187958189680605073425440571807
219,19185.6197174216399132284690115945503,19184.0,1.6197174216399132284690115945503
220,19361.2206348243335330222274145266016,19359.6,1.6206348243335330222274145266016
221,19537.6215480651654486352964169733703,19536.0,1.6215480651654486352964169733703
222,19714.8224571817356206411700593884860,19713.2,1.6224571817356206411700593884860
223,19892.8233622111367322066993462555333,19891.2,1.6233622111367322066993462555333
224,20071.6242631899632749824205183428264,20070.0,1.6242631899632749824205183428264
225,20251.2251601543204326732043663024400,20249.6,1.6251601543204326732043663024400
226,20431.6260531398327658271591734525740,20430.0,1.6260531398327658271591734525740
227,20612.8269421816527064856254889685165,20611.2,1.6269421816527064856254889685165
228,20794.8278273144688645044535839484286,20793.2,1.6278273144688645044535839484286
229,20977.6287085725141526986985420038190,20976.0,1.6287085725141526986985420038190
230,21161.2295859895737354969608494754702,21159.6,1.6295859895737354969608494754702
231,21345.6304595989928028946264881753036,21344.0,1.6304595989928028946264881753036
232,21530.8313294336841801149106310488391,21529.2,1.6313294336841801149106310488391
233,21716.8321955261357679631926426302377,21715.2,1.6321955261357679631926426302377
234,21903.6330579084178300206913414894341,21902.0,1.6330579084178300206913414894341
235,22091.2339166121901198485634826171302,22089.6,1.6339166121901198485634826171302
236,22279.6347716687088579011764799556241,22278.0,1.6347716687088579011764799556241
237,22468.8356231088335617686647875217392,22467.2,1.6356231088335617686647875217392
238,22658.8364709630337314797631637422236,22657.2,1.6364709630337314797631637422236
