Eigenstate,Energy,Kinetic Energy,Potential Energy
1,0.500000000012818403989514529713795515,0.0,0.500000000012818403989514529713795515
2,1.84623093773478647992212117800963114,1.2,0.64623093773478647992212117800963114
3,3.93633760995075481035172078853493431,3.2,0.73633760995075481035172078853493431
4,6.79966527832616844613690688594042663,6.0,0.79966527832616844613690688594042663
5,10.4480465761724521076037498763282459,9.6,0.8480465761724521076037498763282459
6,14.8870659982424479163250767324260692,14.0,0.8870659982424479163250767324260692
7,20.1197208259734718004288107597773095,19.2,0.9197208259734718004288107597773095
8,26.1477838457420240099662723884696019,25.2,0.9477838457420240099662723884696019
9,32.9723835565541286161657952412219730,32.0,0.9723835565541286161657952412219730
10,40.5942802125581986104675076807764369,39.6,0.9942802125581986104675076807764369
11,49.0140093838951660851300890784353978,48.0,1.0140093838951660851300890784353978
12,58.2319621658695838328600630330207246,57.2,1.0319621658695838328600630330207246
13,68.2484326885472007957379300562498619,67.2,1.0484326885472007957379300562498619
14,79.0636476496111141843396939546840601,78.0,1.0636476496111141843396939546840601
15,90.6777854301759486860968595173950171,89.6,1.0777854301759486860968595173950171
16,103.090988899658298031738718431826123,102.0,1.090988899658298031738718431826123
17,116.303374249238227154265428609206974,115.2,1.103374249238227154265428609206974
18,130.315037242865470279839254649148058,129.2,1.115037242865470279839254649148058
19,145.126057740363407667744051002931877,144.0,1.126057740363407667744051002931877
20,160.736503035063001479408967158148873,159.6,1.136503035063001479408967158148873
21,177.146430359884492572891840963649473,176.0,1.146430359884492572891840963649473
22,194.355888798496140373212025927338501,193.2,1.155888798496140373212025927338501
23,212.364920763250747343736171857545792,211.2,1.164920763250747343736171857545792
24,231.173563152586081014521452855512223,230.0,1.173563152586081014521452855512223
25,250.781848267820800279530125799372776,249.6,1.181848267820800279530125799372776
26,271.189804546962043078396360187122277,270.0,1.189804546962043078396360187122277
27,292.397457157668002181303388359875478,291.2,1.197457157668002181303388359875478
28,314.404828480606964989149248898095930,313.2,1.204828480606964989149248898095930
29,337.211938506659265441559512754125959,336.0,1.211938506659265441559512754125959
30,360.818805165759108557323741727715864,359.6,1.218805165759108557323741727715864
31,385.225444601027289632688049677535654,384.0,1.225444601027289632688049677535654
32,410.431871398767930538887241454168915,409.2,1.231871398767930538887241454168915
33,436.438098782592707756670160913825540,435.2,1.238098782592707756670160913825540
34,463.244138778185500519795249453384127,462.0,1.244138778185500519795249453384127
35,490.850002353881192374069118376098817,489.6,1.250002353881192374069118376098817
36,519.255699541198880580185646591751537,518.0,1.255699541198880580185646591751537
37,548.461239538665663240293690789420736,547.2,1.261239538665663240293690789420736
38,578.466630801636755285230293457772124,577.2,1.266630801636755285230293457772124
39,609.271881120319835809958439945999221,608.0,1.271881120319835809958439945999221
40,640.876997687815708461299658019295533,639.6,1.276997687815708461299658019295533
41,673.281987159670606308408617518907569,672.0,1.281987159670606308408617518907569
42,706.486855706180480024994583118208957,705.2,1.286855706180480024994583118208957
43,740.491609058481121867429779421068431,739.2,1.291609058481121867429779421068431
44,775.296252549289883917422982934201208,774.0,1.296252549289883917422982934201208
45,810.900791149027179488974687768882108,809.6,1.300791149027179488974687768882108
46,847.305229497932820316765923261074932,846.0,1.305229497932820316765923261074932
47,884.509571934698765530825734637347660,883.2,1.309571934698765530825734637347660
48,922.513822522062272058094617134356121,921.2,1.313822522062272058094617134356121
49,961.317985069738773547621814567567391,960.0,1.317985069738773547621814567567391
50,1000.92206315501969220249547146452506,999.6,1.32206315501969220249547146452506
51,1041.32606014131492093914416149042729,1040.0,1.32606014131492093914416149042729
52,1082.52997919488136808035905399740016,1081.2,1.32997919488136808035905399740016
53,1124.53382329994650666984849338775342,1123.2,1.33382329994650666984849338775342
54,1167.33759527240830936468782696136843,1166.0,1.33759527240830936468782696136843
55,1210.94129777226947436952159684724675,1209.6,1.34129777226947436952159684724675
56,1255.34493331494377330625524145306052,1254.0,1.34493331494377330625524145306052
57,1300.54850428155515294785888710372529,1299.2,1.34850428155515294785888710372529
58,1346.55201292833542555861863029104939,1345.2,1.35201292833542555861863029104939
59,1393.35546139521362863589887356410143,1392.0,1.35546139521362863589887356410143
60,1440.95885171367911034077976577883507,1439.6,1.35885171367911034077976577883507
61,1489.36218581399083267743166363022692,1488.0,1.36218581399083267743166363022692
62,1538.56546553179708347597712144753944,1537.2,1.36546553179708347597712144753944
63,1588.56869261422254634457217894818873,1587.2,1.36869261422254634457217894818873
64,1639.37186872547336527651818886528756,1638.0,1.37186872547336527651818886528756
65,1690.97499545200530575824390686081566,1689.6,1.37499545200530575824390686081566
66,1743.37807430729526688494472392338734,1742.0,1.37807430729526688494472392338734
67,1796.58110673625213669934107578126457,1795.2,1.38110673625213669934107578126457
68,1850.58409411929922680821041868295692,1849.2,1.38409411929922680821041868295692
69,1905.38703777615720966062108950695495,1904.0,1.38703777615720966062108950695495
70,1960.98993896935355360353312215725806,1959.6,1.38993896935355360353312215725806
71,2017.39279890748185212670036900454741,2016.0,1.39279890748185212670036900454741
72,2074.59561874823214546642912534803562,2073.2,1.39561874823214546642912534803562
73,2132.59839960121127973134524376684614,2131.2,1.39839960121127973134524376684614
74,2191.40114253057052986476943919613144,2190.0,1.40114253057052986476943919613144
75,2251.00384855745608165719772423868546,2249.6,1.40384855745608165719772423868546
76,2311.40651866229651846562899890954788,2310.0,1.40651866229651846562899890954788
77,2372.60915378694015589806390983833846,2371.2,1.40915378694015589806390983833846
78,2434.61175483665390192331912368888822,2433.2,1.41175483665390192331912368888822
79,2497.41432268199427304630907229614761,2496.0,1.41432268199427304630907229614761
80,2561.01685816056025906330297342638225,2559.6,1.41685816056025906330297342638225
81,2625.41936207863687957018839456090439,2624.0,1.41936207863687957018839456090439
82,2690.62183521273751394621925665872745,2689.2,1.42183521273751394621925665872745
83,2756.62427831105239780193660925793105,2755.2,1.42427831105239780193660925793105
84,2823.42669209481005458823444079491281,2822.0,1.42669209481005458823444079491281
85,2891.02907725955787178736917008238192,2889.6,1.42907725955787178736917008238192
86,2959.43143447636751524132223799636997,2958.0,1.43143447636751524132223799636997
87,3028.63376439297041770212533875035720,3027.2,1.43376439297041770212533875035720
88,3098.63606763482815431102223157212820,3097.2,1.43606763482815431102223157212820
89,3169.43834480614213421117958827427223,3168.0,1.43834480614213421117958827427223
90,3241.04059649080669428193008118351916,3239.6,1.44059649080669428193008118351916
91,3313.44282325330935953048025691397934,3312.0,1.44282325330935953048025691397934
92,3386.64502563958174637947663980638448,3385.2,1.44502563958174637947663980638448
93,3460.64720417780432283376789408331317,3459.2,1.44720417780432283376789408331317
94,3535.44935937916799658096278855750299,3534.0,1.44935937916799658096278855750299
95,3611.05149173859528092635471176508155,3609.6,1.45149173859528092635471176508155
96,3687.45360173542358664066708671795638,3686.0,1.45360173542358664066708671795638
97,3764.65568983405300345696439678589866,3763.2,1.45568983405300345696439678589866
98,3842.65775648456076207877891097127994,3841.2,1.45775648456076207877891097127994
99,3921.45980212328441408931398564441878,3920.0,1.45980212328441408931398564441878
100,4001.06182717337562081116885708256107,3999.6,1.46182717337562081116885708256107
101,4081.46383204532631286187527881352908,4080.0,1.46383204532631286187527881352908
102,4162.66581713746885657581534595550990,4161.2,1.46581713746885657581534595550990
103,4244.66778283645175554947695824825057,4243.2,1.46778283645175554947695824825057
104,4327.46972951769230830229291768007909,4326.0,1.46972951769230830229291768007909
105,4411.07165754580754997155285405949789,4409.6,1.47165754580754997155285405949789
106,4495.47356727502471519563337932589788,4494.0,1.47356727502471519563337932589788
107,4580.67545904957238125783649670654163,4579.2,1.47545904957238125783649670654163
108,4666.67733320405337132357191955063067,4665.2,1.47733320405337132357191955063067
109,4753.47919006380042901008475429307755,4752.0,1.47919006380042901008475429307755
110,4841.08102994521561310780498541614376,4839.6,1.48102994521561310780498541614376
111,4929.48285315609429541119666210257667,4928.0,1.48285315609429541119666210257667
112,5018.68465999593459518335120042026079,5017.2,1.48465999593459518335120042026079
113,5108.68645075623302824277517644171636,5107.2,1.48645075623302824277517644171636
114,5199.48822572076709990306660417532791,5198.0,1.48822572076709990306660417532791
115,5291.08998516586553054767114987462800,5289.6,1.48998516586553054767114987462800
116,5383.49172936066675429026150984428183,5382.0,1.49172936066675429026150984428183
117,5476.69345856736629945827640489741705,5475.2,1.49345856736629945827640489741705
118,5570.69517304145361860605007515509143,5569.2,1.49517304145361860605007515509143
119,5665.49687303193890205024688831166454,5664.0,1.49687303193890205024688831166454
120,5761.09855878157038307808064439382126,5759.6,1.49855878157038307808064439382126
121,5857.50023052704260471155398192905779,5856.0,1.50023052704260471155398192905779
122,5954.70188849919609899782046817396014,5953.2,1.50188849919609899782046817396014
123,6052.70353292320889760283998146919986,6051.2,1.50353292320889760283998146919986
124,6151.50516401878027480568931976525736,6150.0,1.50516401878027480568931976525736
125,6251.10678200030709442462686205749674,6249.6,1.50678200030709442462686205749674
126,6351.50838707705311700871255696717582,6350.0,1.50838707705311700871255696717582
127,6452.70997945331160305089811082132946,6451.2,1.50997945331160305089811082132946
128,6554.71155932856152539131235436301753,6553.2,1.51155932856152539131235436301753
129,6657.51312689761769190622867218707153,6656.0,1.51312689761769190622867218707153
130,6761.11468235077506119633410314368115,6759.6,1.51468235077506119633410314368115
131,6865.51622587394751858380164320967846,6864.0,1.51622587394751858380164320967846
132,6970.71775764880136475046645790652152,6969.2,1.51775764880136475046645790652152
133,7076.71927785288375756782285566233096,7075.2,1.51927785288375756782285566233096
134,7183.52078665974633639359986126503087,7182.0,1.52078665974633639359986126503087
135,7291.12228423906424000133084485516107,7289.6,1.52228423906424000133084485516107
136,7399.52377075675072562180233134018349,7398.0,1.52377075675072562180233134018349
137,7508.72524637506758326732338025097828,7507.2,1.52524637506758326732338025097828
138,7618.72671125273152589776647696886840,7617.2,1.52671125273152589776647696886840
139,7729.52816554501673388142518248769018,7728.0,1.52816554501673388142518248769018
140,7841.12960940385371675776551535035719,7839.6,1.52960940385371675776551535035719
141,7953.53104297792465075165815613496911,7952.0,1.53104297792465075165815613496911
142,8066.73246641275534241541135930678843,8065.2,1.53246641275534241541135930678843
143,8180.73387985080396012475529987190636,8179.2,1.53387985080396012475529987190636
144,8295.53528343154666797529147097994467,8294.0,1.53528343154666797529147097994467
145,8411.13667729156029243816178839530183,8409.6,1.53667729156029243816178839530183
146,8527.53806156460214426494099129610748,8526.0,1.53806156460214426494099129610748
147,8644.73943638168710992879001649518368,8643.2,1.53943638168710992879001649518368
148,8762.74080187116212793087468002198424,8761.2,1.54080187116212793087468002198424
149,8881.54215815877815177297963773200905,8880.0,1.54215815877815177297963773200905
150,9001.14350536775970323717054617609450,8999.6,1.54350536775970323717054617609450
151,9121.54484361887211188673338092977310,9120.0,1.54484361887211188673338092977310
152,9242.74617303048653108753540029931444,9241.2,1.54617303048653108753540029931444
153,9364.74749371864281949947544024032118,9363.2,1.54749371864281949947544024032118
154,9487.54880579711037193723934785906543,9486.0,1.54880579711037193723934785906543
155,9611.15010937744697783632643694501784,9609.6,1.55010937744697783632643694501784
156,9735.55140456905578519068290876754114,9734.0,1.55140456905578519068290876754114
157,9860.75269147924044100851810442828659,9859.2,1.55269147924044100851810442828659
158,9986.75397021325848010437693190356090,9985.2,1.55397021325848010437693190356090
159,10113.5552408743730259002738809084003,10112.0,1.5552408743730259002738809084003
160,10241.1565035639028695733982897484803,10239.6,1.5565035639028695733982897484803
161,10369.5577583812709860464817467200643,10368.0,1.5577583812709860464817467200643
162,10498.7590054240515462818989322148692,10497.2,1.5590054240515462818989322148692
163,10628.7602447880154807327712270493233,10627.2,1.5602447880154807327712270493233
164,10759.5614765671746485876379241735071,10758.0,1.5614765671746485876379241735071
165,10891.1627008538246614088825768734277,10889.6,1.5627008538246614088825768734277
166,11023.5639177385864116804732322122231,11022.0,1.5639177385864116804732322122231
167,11156.7651273104463534973058339238669,11155.2,1.5651273104463534973058339238669
168,11290.7663296567955780850341375351054,11289.2,1.5663296567955780850341375351054
169,11425.5675248634677292124467570770969,11424.0,1.5675248634677292124467570770969
170,11561.1687130147757982394767671297308,11559.6,1.5687130147757982394767671297308
171,11697.5698941935478389952746072638215,11696.0,1.5698941935478389952746072638215
172,11834.7710684811616403529719811595517,11833.2,1.5710684811616403529719811595517
173,11972.7722359575783919034373680802561,11971.2,1.5722359575783919034373680802561
174,12111.5733967013753785715069355137067,12110.0,1.5733967013753785715069355137067
175,12251.1745507897777381595936259082618,12249.6,1.5745507897777381595936259082618
176,12391.5756982986893115249970252097692,12390.0,1.5756982986893115249970252097692
177,12532.7768393027226186514212032409674,12531.2,1.5768393027226186514212032409674
178,12674.7779738752279897690664627360278,12673.2,1.5779738752279897690664627360278
179,12817.5791020883218779682104632921759,12816.0,1.5791020883218779682104632921759
180,12961.1802240129143842526473237076353,12959.6,1.5802240129143842526473237076353
181,13105.5813397187360176815404667522281,13104.0,1.5813397187360176815404667522281
182,13250.7824492743637182950441771075206,13249.2,1.5824492743637182950441771075206
183,13396.7835527472461658729373414354228,13395.2,1.5835527472461658729373414354228
184,13543.5846502037283987677749073328187,13542.0,1.5846502037283987677749073328187
185,13691.1857417090757646206497472560516,13689.6,1.5857417090757646206497472560516
186,13839.5868273274972239281536627080999,13838.0,1.5868273274972239281536627080999
187,13988.7879071221680302610040419745817,13987.2,1.5879071221680302610040419745817
188,14138.7889811552518025706197597642618,14137.2,1.5889811552518025706197597642618
189,14289.5900494879220133147029055215088,14288.0,1.5900494879220133147029055215088
190,14441.1911121803829080528698665984877,14439.6,1.5911121803829080528698665984877
191,14593.5921692918898757348490672647968,14592.0,1.5921692918898757348490672647968
192,14746.7932208807692860634130502958089,14745.2,1.5932208807692860634130502958089
193,14900.7942670044378122358570881696291,14899.2,1.5942670044378122358570881696291
194,15055.5953077194212524047703960642182,15054.0,1.5953077194212524047703960642182
195,15211.1963430813728677904217042304548,15209.6,1.5963430813728677904217042304548
196,15367.5973731450912511366214649782787,15366.0,1.5973731450912511366214649782787
197,15524.7983979645377398853435826033393,15523.2,1.5983979645377398853435826033393
198,15682.7994175928533882320474419386139,15681.2,1.5994175928533882320474419386139
199,15841.6004320823755108955153180435122,15840.0,1.6004320823755108955153180435122
200,16001.2014414846538125423657557342665,15999.6,1.6014414846538125423657557342665
201,16161.6024458504661138426213720865392,16160.0,1.6024458504661138426213720865392
202,16322.8034452298336875324419091742450,16321.2,1.6034452298336875324419091742450
203,16484.8044396720362151387042314850972,16483.2,1.6044396720362151387042314850972
204,16647.6054292256263759802903371867174,16646.0,1.6054292256263759802903371867174
205,16811.2064139384440784113949971371881,16809.6,1.6064139384440784113949971371881
206,16975.6073938576303463255494940254693,16974.0,1.6073938576303463255494940254693
207,17140.8083690296408667909865554969161,17139.2,1.6083690296408667909865554969161
208,17306.8093395002592130387506388926589,17305.2,1.6093395002592130387506388926589
209,17473.6103053146097485463807369680811,17472.0,1.6103053146097485463807369680811
210,17641.2112665171702237127643059197643,17639.6,1.6112665171702237127643059197643
211,17809.6122231517840724831182497054384,17808.0,1.6122231517840724831182497054384
212,17978.8131752616724191512186510455509,17977.2,1.6131752616724191512186510455509
213,18148.8141228894457997167666268137440,18147.2,1.6141228894457997167666268137440
214,18319.6150660771156127735735024754029,18318.0,1.6150660771156127735735024754029
215,18491.2160048661052991347894165851425,18489.6,1.6160048661052991347894165851425
216,18663.6169392972612641496254207670695,18662.0,1.6169392972612641496254207670695
217,18836.8178694108635466706040071058647,18835.2,1.6178694108635466706040071058647
218,19010.8187952466362436437804782927023,19009.2,1.6187952466362436437804782927023
219,19185.6197168437576935948634904976741,19184.0,1.6197168437576935948634904976741
220,19361.2206342408704315193548898342730,19359.6,1.6206342408704315193548898342730
221,19537.6215474760909130789908793140059,19536.0,1.6215474760909130789908793140059
222,19714.8224565870190253018420473139411,19713.2,1.6224565870190253018420473139411
223,19892.8233616107473773468954600958965,19891.2,1.6233616107473773468954600958965
224,20071.6242625838703863924088501562570,20070.0,1.6242625838703863924088501562570
225,20251.2251595424931612045711899650447,20249.6,1.6251595424931612045711899650447
226,20431.6260525222401869244021599704976,20430.0,1.6260525222401869244021599704976
227,20612.8269415582638197157285699227619,20611.2,1.6269415582638197157285699227619
228,20794.8278266852525930844285530231622,20793.2,1.6278266852525930844285530231622
229,20977.6287079374393430210783347968015,20976.0,1.6287079374393430210783347968015
230,21161.2295853486091566532293808635288,21159.6,1.6295853486091566532293808635288
231,21345.6304589521071461965698020713814,21344.0,1.6304589521071461965698020713814
232,21530.8313287808460586138740474250090,21529.2,1.6313287808460586138740474250090
233,21716.8321948673137159672284527776369,21715.2,1.6321948673137159672284527776369
234,21903.6330572435803026095815327913067,21902.0,1.6330572435803026095815327913067
235,22091.2339159413054923867018616184097,22089.6,1.6339159413054923867018616184097
236,22279.6347709917454255482944529562192,22278.0,1.6347709917454255482944529562192
237,22468.8356224257595389883849529675748,22467.2,1.6356224257595389883849529675748
238,22658.8364702738172515459648143200842,22657.2,1.6364702738172515459648143200842
