Eigenstate,Energy,Kinetic Energy,Potential Energy
1,0.500000000101124411018275049933543449,0.0,0.500000000101124411018275049933543449
2,1.84623093831120392526262298602774396,1.2,0.64623093831120392526262298602774396
3,3.93633761164394298712648037273237323,3.2,0.73633761164394298712648037273237323
4,6.79966528185291017444231657231972527,6.0,0.79966528185291017444231657231972527
5,10.4480465822815436577508706387121754,9.6,0.8480465822815436577508706387121754
6,14.8870660076958240915131700341311426,14.0,0.8870660076958240915131700341311426
7,20.1197208395392557610896124358551274,19.2,0.9197208395392557610896124358551274
8,26.1477838641916327833908190146980683,25.2,0.9477838641916327833908190146980683
9,32.9723835806609308499604045829269494,32.0,0.9723835806609308499604045829269494
10,40.5942802430968367281125932798351543,39.6,0.9942802430968367281125932798351543
11,49.0140094216411912165155461418182018,48.0,1.0140094216411912165155461418182018
12,58.2319622115992501349844160526279023,57.2,1.0319622115992501349844160526279023
13,68.2484327430373465508215716875400589,67.2,1.0484327430373465508215716875400589
14,79.0636477136390928433455051896797996,78.0,1.0636477136390928433455051896797996
15,90.6777855045195900483140902254331315,89.6,1.0777855045195900483140902254331315
16,103.090988985095888359389216404207012,102.0,1.090988985095888359389216404207012
17,116.303374346548501609222372372072827,115.2,1.103374346548501609222372372072827
18,130.315037352827613629068259435714591,129.2,1.115037352827613629068259435714591
19,145.126057863757060689984141498216570,144.0,1.126057863757060689984141498216570
20,160.736503172668271399048738418675684,159.6,1.136503172668271399048738418675684
21,177.146430512481966401163928159521757,176.0,1.146430512481966401163928159521757
22,194.355888966866900390222295436686946,193.2,1.155888966866900390222295436686946
23,212.364920948176388185874782481263847,211.2,1.164920948176388185874782481263847
24,231.173563354848727986259930033246792,230.0,1.173563354848727986259930033246792
25,250.781848488203128613987104360789052,249.6,1.181848488203128613987104360789052
26,271.189804786247297944286758813495394,270.0,1.189804786247297944286758813495394
27,292.397457416640019285641792151101880,291.2,1.197457416640019285641792151101880
28,314.404828760050191662224521432654072,313.2,1.204828760050191662224521432654072
29,337.211938807358782117738829398164433,336.0,1.211938807358782117738829398164433
30,360.818805488500650585188188463669398,359.6,1.218805488500650585188188463669398
31,385.225444946597269362890510849823514,384.0,1.225444946597269362890510849823514
32,410.431871767953459649363177445369983,409.2,1.231871767953459649363177445369983
33,436.438099176181619783406401137015722,435.2,1.238099176181619783406401137015722
34,463.244139196966373567967015692150136,462.0,1.244139196966373567967015692150136
35,490.850002798643371989490143845612212,489.6,1.250002798643371989490143845612212
36,519.255700012732502765041880750471269,518.0,1.255700012732502765041880750471269
37,548.461240037761677600312909647537338,547.2,1.261240037761677600312909647537338
38,578.466631329086948297973608829127808,577.2,1.266631329086948297973608829127808
39,609.271881676916854205951928091807027,608.0,1.271881676916854205951928091807027
40,640.876998274353082711365452251449717,639.6,1.276998274353082711365452251449717
41,673.281987776942774211888389089944727,672.0,1.281987776942774211888389089944727
42,706.486856354982810394648997561310012,705.2,1.286856354982810394648997561310012
43,740.491609739609938307694589362194790,739.2,1.291609739609938307694589362194790
44,775.296253263542488693444309558938029,774.0,1.296253263542488693444309558938029
45,810.900791897201877484463143846161998,809.6,1.300791897201877484463143846161998
46,847.305230280828943079225213723997000,846.0,1.305230280828943079225213723997000
47,884.509572753116695403144618684779851,883.2,1.309572753116695403144618684779851
48,922.513823376803466395857370413712731,921.2,1.313823376803466395857370413712731
49,961.317985961605789021802778189003075,960.0,1.317985961605789021802778189003075
50,1000.92206408481620918746799975518249,999.6,1.32206408481620918746799975518249
51,1041.32606110984576798616125033047580,1040.0,1.32606110984576798616125033047580
52,1082.52998020295254647685798406948389,1081.2,1.32998020295254647685798406948389
53,1124.53382434836521508510054434044806,1123.2,1.33382434836521508510054434044806
54,1167.33759636198296858246078343566767,1166.0,1.33759636198296858246078343566767
55,1210.94129890380975210855060696042943,1209.6,1.34129890380975210855060696042943
56,1255.34493448926060912942977035897304,1254.0,1.34493448926060912942977035897304
57,1300.54850549946078326113214174986877,1299.2,1.34850549946078326113214174986877
58,1346.55201419064340870073367251024079,1345.2,1.35201419064340870073367251024079
59,1393.35546270273887006010299666047695,1392.0,1.35546270273887006010299666047695
60,1440.95885306723788788976853223195438,1439.6,1.35885306723788788976853223195438
61,1489.36218721440082195282641414563519,1488.0,1.36218721440082195282641414563519
62,1538.56546697987738330369636024194628,1537.2,1.36546697987738330369636024194628
63,1588.56869411079370433750836693649313,1587.2,1.36869411079370433750836693649313
64,1639.37187027135740349597824383409341,1638.0,1.37187027135740349597824383409341
65,1690.97499704802574647565488463925028,1689.6,1.37499704802574647565488463925028
66,1743.37807595427715844536558731249432,1742.0,1.37807595427715844536558731249432
67,1796.58110843502207948835825772916201,1795.2,1.38110843502207948835825772916201
68,1850.58409587068539932382917125686060,1849.2,1.38409587068539932382917125686060
69,1905.38703958098939469179700316921617,1904.0,1.38703958098939469179700316921617
70,1960.98994082846316451701794414037280,1959.6,1.38994082846316451701794414037280
71,2017.39280082170195926390565747023764,2016.0,1.39280082170195926390565747023764
72,2074.59562071839750265203792658241520,2073.2,1.39562071839750265203792658241520
73,2132.59840162815835089542868468727110,2131.2,1.39840162815835089542868468727110
74,2191.40114461513751578018983318877939,2190.0,1.40114461513751578018983318877939
75,2251.00385070048294679410442301339411,2249.6,1.40385070048294679410442301339411
76,2311.40652086462501796487628661580334,2310.0,1.40652086462501796487628661580334
77,2372.60915604941386266540345684121607,2371.2,1.40915604941386266540345684121607
78,2434.61175716011823384624176008833418,2433.2,1.41175716011823384624176008833418
79,2497.41432506729652033543259103745274,2496.0,1.41432506729652033543259103745274
80,2561.01686060854961172022394496213312,2559.6,1.41686060854961172022394496213312
81,2625.41936459016445498373759702059876,2624.0,1.41936459016445498373759702059876
82,2690.62183778865638461908108999591604,2689.2,1.42183778865638461908108999591604
83,2756.62428095221761920961366745368212,2755.2,1.42428095221761920961366745368212
84,2823.42669480207869317235920931846473,2822.0,1.42669480207869317235920931846473
85,2891.02908003378903308538542371501646,2889.6,1.42908003378903308538542371501646
86,2959.43143731842237215457904130494407,2958.0,1.43143731842237215457904130494407
87,3028.63376730371223890444747592774987,3027.2,1.43376730371223890444747592774987
88,3098.63607061512233279984116135597408,3097.2,1.43607061512233279984116135597408
89,3169.43834785685621600332971187930433,3168.0,1.43834785685621600332971187930433
90,3241.04059961281040725623574772226930,3239.6,1.44059961281040725623574772226930
91,3313.44282644747464241927995894104623,3312.0,1.44282644747464241927995894104623
92,3386.64502890678277791125138396227981,3385.2,1.44502890678277791125138396227981
93,3460.64720751891755102906218527021910,3459.2,1.44720751891755102906218527021910
94,3535.44936279507216820380762796417970,3534.0,1.44936279507216820380762796417970
95,3611.05149523017147109342354449618324,3609.6,1.45149523017147109342354449618324
96,3687.45360530355522859041709651314692,3686.0,1.45360530355522859041709651314692
97,3764.65569347962591848103767984642898,3763.2,1.45569347962591848103767984642898
98,3842.65776020846318961795963016871581,3841.2,1.45776020846318961795963016871581
99,3921.45980592640704199636043409612874,3920.0,1.45980592640704199636043409612874
100,4001.06183105661161578286138311216326,3999.6,1.46183105661161578286138311216326
101,4081.46383600957135104264429276918945,4080.0,1.46383600957135104264429276918945
102,4162.66582118362115433533643953537966,4161.2,1.46582118362115433533643953537966
103,4244.66778696541210043664331360023066,4243.2,1.46778696541210043664331360023066
104,4327.46973373036409017799968065556004,4326.0,1.46973373036409017799968065556004
105,4411.07166184309679232275115844873404,4409.6,1.47166184309679232275115844873404
106,4495.47357165784010663313660067311900,4494.0,1.47357165784010663313660067311900
107,4580.67546351882530720038573932742184,4579.2,1.47546351882530720038573932742184
108,4666.67733776065794587069268936489548,4665.2,1.47733776065794587069268936489548
109,4753.47919470867352700629219195347697,4752.0,1.47919470867352700629219195347697
110,4841.08103467927690240074060434392178,4839.6,1.48103467927690240074060434392178
111,4929.48285798026626930630541531144591,4928.0,1.48285798026626930630541531144591
112,5018.68466491114260509773447972259746,5017.2,1.48466491114260509773447972259746
113,5108.68645576340531656088165759401159,5107.2,1.48645576340531656088165759401159
114,5199.48823082083483303691038041046635,5198.0,1.48823082083483303691038041046635
115,5291.08999035976283220429383023339899,5289.6,1.48999035976283220429383023339899
116,5383.49173464933073894918325931053597,5382.0,1.49173464933073894918325931053597
117,5476.69346395173710606170883257987429,5475.2,1.49346395173710606170883257987429
118,5570.69517852247444446467310835878852,5569.2,1.49517852247444446467310835878852
119,5665.49687861055603696738050074228177,5664.0,1.49687861055603696738050074228177
120,5761.09856445873324369511245417545379,5759.6,1.49856445873324369511245417545379
121,5857.50023630370376907751339864792451,5856.0,1.50023630370376907751339864792451
122,5954.70189437631134136602076612400635,5953.2,1.50189437631134136602076612400635
123,6052.70353890173722345754069961508774,6051.2,1.50353890173722345754069961508774
124,6151.50517009968395612176256547003860,6150.0,1.50517009968395612176256547003860
125,6251.10678818455170516324352622019207,6249.6,1.50678818455170516324352622019207
126,6351.50839336560756885209634439788978,6350.0,1.50839336560756885209634439788978
127,6452.70998584714818137922836651126758,6451.2,1.50998584714818137922836651126758
128,6554.71156582865592550489019705959581,6553.2,1.51156582865592550489019705959581
129,6657.51313350494905549605464656449157,6656.0,1.51313350494905549605464656449157
130,6761.11468906632601306627992584484719,6759.6,1.51468906632601306627992584484719
131,6865.51623269870420362759371291081705,6864.0,1.51623269870420362759371291081705
132,6970.71776458375348518673441402790840,6969.2,1.51776458375348518673441402790840
133,7076.71928489902461043650172667058083,7075.2,1.51928489902461043650172667058083
134,7183.52079381807285131701184178046974,7182.0,1.52079381807285131701184178046974
135,7291.12229151057701721330941255436145,7289.6,1.52229151057701721330941255436145
136,7399.52377814245407426825860578692898,7398.0,1.52377814245407426825860578692898
137,7508.72525387596955998169382408836709,7507.2,1.52525387596955998169382408836709
138,7618.72671886984397365481915324355080,7617.2,1.52671886984397365481915324355080
139,7729.52817327935532113294143706700994,7728.0,1.52817327935532113294143706700994
140,7841.12961725643797685365407461589406,7839.6,1.52961725643797685365407461589406
141,7953.53105094977802165009889802673480,7952.0,1.53105094977802165009889802673480
142,8066.73247450490520668566775459247622,8065.2,1.53247450490520668566775459247622
143,8180.73388806428168524633606092897229,8179.2,1.53388806428168524633606092897229
144,8295.53529176738764693718476895046948,8294.0,1.53529176738764693718476895046948
145,8411.13668575080398464190818602682043,8409.6,1.53668575080398464190818602682043
146,8527.53807014829211673535544992966510,8526.0,1.53807014829211673535544992966510
147,8644.73944509087107883618783823477846,8643.2,1.53944509087107883618783823477846
148,8762.74081070689200042870112831679146,8761.2,1.54081070689200042870112831679146
149,8881.54216712211006815478947466598104,8880.0,1.54216712211006815478947466598104
150,9001.14351445975407941694933028576768,8999.6,1.54351445975407941694933028576768
151,9121.54485284059368220660124364932730,9120.0,1.54485284059368220660124364932730
152,9242.74618238300439145692054106978699,9241.2,1.54618238300439145692054106978699
153,9364.74750320303047086989439033297029,9363.2,1.54750320303047086989439033297029
154,9487.54881541444576411687006526866037,9486.0,1.54881541444576411687006526866037
155,9611.15011912881255364861089111939656,9609.6,1.55011912881255364861089111939656
156,9735.55141445553852498124729571596128,9734.0,1.55141445553852498124729571596128
157,9860.75270150193190750474971039534132,9859.2,1.55270150193190750474971039534132
158,9986.75398037325486363205051847235361,9985.2,1.55398037325486363205051847235361
159,10113.5552511727751899616730881298868,10112.0,1.5552511727751899616730881298868
160,10241.1565140018163967914325787855838,10239.6,1.5565140018163967914325787855838
161,10369.5577689598062244793543174766757,10368.0,1.5577689598062244793543174766757
162,10498.7590161443236561129372843318124,10497.2,1.5590161443236561129372843318124
163,10628.7602556511444813400883994898541,10627.2,1.5602556511444813400883994898541
164,10759.5614875742854659983512344296260,10758.0,1.5614875742854659983512344296260
165,10891.1627120060471761426749789969768,10889.6,1.5627120060471761426749789969768
166,11023.5639290370555069873416360359232,11022.0,1.5639290370555069873416360359232
167,11156.7651387563019639944019791949402,11155.2,1.5651387563019639944019791949402
168,11290.7663412511827387975650214213506,11289.2,1.5663412511827387975650214213506
169,11425.5675366075366250236637717513721,11424.0,1.5675366075366250236637717513721
170,11561.1687249096818137548468107847352,11559.6,1.5687249096818137548468107847352
171,11697.5699062404516088259903162341956,11696.0,1.5699062404516088259903162341956
172,11834.7710806812290998240241638745280,11833.2,1.5710806812290998240241638745280
173,11972.7722483119808281915388991134813,11971.2,1.5722483119808281915388991134813
174,12111.5734092112894822782256031234323,12110.0,1.5734092112894822782256031234323
175,12251.1745634563856553251193796185994,12249.6,1.5745634563856553251193796185994
176,12391.5757111231786960880393787992624,12390.0,1.5757111231786960880393787992624
177,12532.7768522862866853608030053385879,12531.2,1.5768522862866853608030053385879
178,12674.7779870190655675526524421804370,12673.2,1.5779870190655675526524421804370
179,12817.5791153936374637648821452523317,12816.0,1.5791153936374637648821452523317
180,12961.1802374809181973131103563509567,12959.6,1.5802374809181973131103563509567
181,13105.5813533506440543438254093547704,13104.0,1.5813533506440543438254093547704
182,13250.7824630713978072406385917377375,13249.2,1.5824630713978072406385917377375
183,13396.7835667106340238695657102564630,13395.2,1.5835667106340238695657102564630
184,13543.5846643347036869049207084629614,13542.0,1.5846643347036869049207084629614
185,13691.1857560088781450439963976476183,13689.6,1.5857560088781450439963976476183
186,13839.5868417973724170792001784750881,13838.0,1.5868417973724170792001784750881
187,13988.7879217633678726281968795174017,13987.2,1.5879217633678726281968795174017
188,14138.7889959690343049584248926574935,14137.2,1.5889959690343049584248926574935
189,14289.5900644755514196371289879435860,14288.0,1.5900644755514196371289879435860
190,14441.1911273431297546580396017506599,14439.6,1.5911273431297546580396017506599
191,14593.5921846310310512673055718731258,14592.0,1.5921846310310512673055718731258
192,14746.7932363975880918709365222892178,14745.2,1.5932363975880918709365222892178
193,14900.7942827002240233276600629637127,14899.2,1.5942827002240233276600629637127
194,15055.5953235954711789680312984916726,15054.0,1.5953235954711789680312984916726
195,15211.1963591389894172722123775267215,15209.6,1.5963591389894172722123775267215
196,15367.5973893855839908983788656763972,15366.0,1.5973893855839908983788656763972
197,15524.7984143892229604371342886685233,15523.2,1.5984143892229604371342886685233
198,15682.7994342030541670539724193524002,15681.2,1.5994342030541670539724193524002
199,15841.6004488794217768537036434217791,15840.0,1.6004488794217768537036434217791
200,16001.2014584698824109071077138361834,15999.6,1.6014584698824109071077138361834
201,16161.6024630252208719162951663947514,16160.0,1.6024630252208719162951663947514
202,16322.8034625954654808949959617401330,16321.2,1.6034625954654808949959617401330
203,16484.8044572299030345185619702955227,16483.2,1.6044572299030345185619702955227
204,16647.6054469770933947586559962805144,16646.0,1.6054469770933947586559962805144
205,16811.2064318848837207680482690826822,16809.6,1.6064318848837207680482690826822
206,16975.6074120004223560343313658426085,16974.0,1.6074120004223560343313658426085
207,17140.8083873701723766732925539086259,17139.2,1.6083873701723766732925539086259
208,17306.8093580399248150834647955179681,17305.2,1.6093580399248150834647955179681
209,17473.6103240548115647048027508064124,17472.0,1.6103240548115647048027508064124
210,17641.2112854593179773772023251679958,17639.6,1.6112854593179773772023251679958
211,17809.6122422972951606579426006427210,17808.0,1.6122422972951606579426006427210
212,17978.8131946119719853252971739679732,17977.2,1.6131946119719853252971739679732
213,18148.8141424459668074463289820831210,18147.2,1.6141424459668074463289820831210
214,18319.6150858412989199846800281978670,18318.0,1.6150858412989199846800281978670
215,18491.2160248393997331547124148105712,18489.6,1.6160248393997331547124148105712
216,18663.6169594811236974765838037220578,18662.0,1.6169594811236974765838037220578
217,18836.8178898067589734914274896465817,18835.2,1.6178898067589734914274896465817
218,19010.8188158560378571092175399796987,19009.2,1.6188158560378571092175399796987
219,19185.6197376681469638623888641300982,19184.0,1.6197376681469638623888641300982
220,19361.2206552817371845734730502322389,19359.6,1.6206552817371845734730502322389
221,19537.6215687349334103391785532792736,19536.0,1.6215687349334103391785532792736
222,19714.8224780653440440284201733049976,19713.2,1.6224780653440440284201733049976
223,19892.8233833100702918552705361825028,19891.2,1.6233833100702918552705361825028
224,20071.6242845057152500862769201758501,20070.0,1.6242845057152500862769201758501
225,20251.2251816883927894388330889463290,20249.6,1.6251816883927894388330889463290
226,20431.6260748937362407086967049923994,20430.0,1.6260748937362407086967049923994
227,20612.8269641569068902696495056301495,20611.2,1.6269641569068902696495056301495
228,20794.8278495126022872556577907315918,20793.2,1.6278495126022872556577907315918
229,20977.6287309950643695778315498405737,20976.0,1.6287309950643695778315498405737
230,21161.2296086380874134625798528316336,21159.6,1.6296086380874134625798528316336
231,21345.6304824750258083003899580902423,21344.0,1.6304824750258083003899580902423
232,21530.8313525388016672143078058367983,21529.2,1.6313525388016672143078058367983
233,21716.8322188619122683337859331602151,21715.2,1.6322188619122683337859331602151
234,21903.6330814764373429201304220802897,21902.0,1.6330814764373429201304220802897
235,22091.2339404140462035148121405247870,22089.6,1.6339404140462035148121405247870
236,22279.6347957060047218095823824589803,22278.0,1.6347957060047218095823824589803
237,22468.8356473831821598586930849671744,22467.2,1.6356473831821598586930849671744
238,22658.8364954760578563644092100032599,22657.2,1.6364954760578563644092100032599
