Eigenstate,Energy,Kinetic Energy,Potential Energy
1,0.500000000013911140618931628191393085,0.0,0.500000000013911140618931628191393085
2,1.84623093774191928217579017527099886,1.2,0.64623093774191928217579017527099886
3,3.93633760997170678215020161304146423,3.2,0.73633760997170678215020161304146423
4,6.79966527836980884187512938869859579,6.0,0.79966527836980884187512938869859579
5,10.4480465762480458301450746446426355,9.6,0.8480465762480458301450746446426355
6,14.8870659983594217785476617071667692,14.0,0.8870659983594217785476617071667692
7,20.1197208261413283485045640127499071,19.2,0.9197208261413283485045640127499071
8,26.1477838459703055332682736204290627,25.2,0.9477838459703055332682736204290627
9,32.9723835568524003651433209767049935,32.0,0.9723835568524003651433209767049935
10,40.5942802129360402359555766584903787,39.6,0.9942802129360402359555766584903787
11,49.0140093843621669479067504192549690,48.0,1.0140093843621669479067504192549690
12,58.2319621664353402853963685398406210,57.2,1.0319621664353402853963685398406210
13,68.2484326892213145375908027158815337,67.2,1.0484326892213145375908027158815337
14,79.0636476504031912354021182709275423,78.0,1.0636476504031912354021182709275423
15,90.6777854310955987325641256930661276,89.6,1.0777854310955987325641256930661276
16,103.090988900715134006171294887051805,102.0,1.090988900715134006171294887051805
17,116.303374250441864967903834128966562,115.2,1.103374250441864967903834128966562
18,130.315037244225528656998385461930545,129.2,1.115037244225528656998385461930545
19,145.126057741889508050501297117536785,144.0,1.126057741889508050501297117536785
20,160.736503036764767981855946947739588,159.6,1.136503036764767981855946947739588
21,177.146430361771551971076867540092394,176.0,1.146430361771551971076867540092394
22,194.355888800578122121273278163122740,193.2,1.155888800578122121273278163122740
23,212.364920765537283609584268001639056,211.2,1.164920765537283609584268001639056
24,231.173563155086806730341313313392326,230.0,1.173563155086806730341313313392326
25,250.781848270545353203675903163552492,249.6,1.181848270545353203675903163552492
26,271.189804549920063866159319650485045,270.0,1.189804549920063866159319650485045
27,292.397457160869134462672984942516717,291.2,1.197457160869134462672984942516717
28,314.404828484060855452147226711807710,313.2,1.204828484060855452147226711807710
29,337.211938510375563920061392461133972,336.0,1.211938510375563920061392461133972
30,360.818805169747468122528779964704809,359.6,1.218805169747468122528779964704809
31,385.225444605297366687582918931872704,384.0,1.225444605297366687582918931872704
32,410.431871403329384915187691741821517,409.2,1.231871403329384915187691741821517
33,436.438098787455202813830956563530998,435.2,1.238098787455202813830956563530998
34,463.244138783358703245760336355541551,462.0,1.244138783358703245760336355541551
35,490.850002359374773487497441577905548,489.6,1.250002359374773487497441577905548
36,519.255699547022514633937778788623318,518.0,1.255699547022514633937778788623318
37,548.461239544829028726003731335150241,547.2,1.261239544829028726003731335150241
38,578.466630808149534738818772391219736,577.2,1.266630808149534738818772391219736
39,609.271881127191715917967033321932896,608.0,1.271881127191715917967033321932896
40,640.876997695056380167948748457466639,639.6,1.276997695056380167948748457466639
41,673.281987167289764923295154923475610,672.0,1.281987167289764923295154923475610
42,706.486855714187825331361115984242019,705.2,1.286855714187825331361115984242019
43,740.491609066886358230946540408520035,739.2,1.291609066886358230946540408520035
44,775.296252558102720395434008750784544,774.0,1.296252558102720395434008750784544
45,810.900791158257329940166502568695808,809.6,1.300791158257329940166502568695808
46,847.305229507590003511223604321822490,846.0,1.305229507590003511223604321822490
47,884.509571944792705260446452697972760,883.2,1.309571944792705260446452697972760
48,922.513822532602697247333178710037983,921.2,1.313822532602697247333178710037983
49,961.317985080735418364546478081770031,960.0,1.317985080735418364546478081770031
50,1000.92206316648229617013548667087680,999.6,1.32206316648229617013548667087680
51,1041.32606015325322904711318850249098,1040.0,1.32606015325322904711318850249098
52,1082.52997920730513089674092761839945,1081.2,1.32997920730513089674092761839945
53,1124.53382331286548045333378071111606,1123.2,1.33382331286548045333378071111606
54,1167.33759528583225617695133179781214,1166.0,1.33759528583225617695133179781214
55,1210.94129778620816218783243681562055,1209.6,1.34129778620816218783243681562055
56,1255.34493332940697613631239651422909,1254.0,1.34493332940697613631239651422909
57,1300.54850429655265093684622473111285,1299.2,1.34850429655265093684622473111285
58,1346.55201294387700510847438008286901,1345.2,1.35201294387700510847438008286901
59,1393.35546141130908251679536037354873,1392.0,1.35546141130908251679536037354873
60,1440.95885173033823780480995143065415,1439.6,1.35885173033823780480995143065415
61,1489.36218583122343957249969449325961,1488.0,1.36218583122343957249969449325961
62,1538.56546554961298235989064711598576,1537.2,1.36546554961298235989064711598576
63,1588.56869263263155659933471295520562,1587.2,1.36869263263155659933471295520562
64,1639.37186874448531322282022433705104,1638.0,1.37186874448531322282022433705104
65,1690.97499547163002477015189823038174,1689.6,1.37499547163002477015189823038174
66,1743.37807432754259750478739529461647,1742.0,1.37807432754259750478739529461647
67,1796.58110675713192675279282683587961,1795.2,1.38110675713192675279282683587961
68,1850.58409414082133151957188088968001,1849.2,1.38409414082133151957188088968001
69,1905.38703779833149176829713723135022,1904.0,1.38703779833149176829713723135022
70,1960.98993899218988347570886263427183,1959.6,1.38993899218988347570886263427183
71,2017.39279893099010787721583893313966,2016.0,1.39279893099010787721583893313966
72,2074.59561877242221307085360259832440,2073.2,1.39561877242221307085360259832440
73,2132.59839962609305314325225093187401,2131.2,1.39839962609305314325225093187401
74,2191.40114255615391113221365556932113,2190.0,1.40114255615391113221365556932113
75,2251.00384858375098103939516758641594,2249.6,1.40384858375098103939516758641594
76,2311.40651868931285454984194855001568,2310.0,1.40651868931285454984194855001568
77,2372.60915381468785571669216648805826,2371.2,1.40915381468785571669216648805826
78,2434.61175486514290107119929247526415,2433.2,1.41175486514290107119929247526415
79,2497.41432271123451579822365630451768,2496.0,1.41432271123451579822365630451768
80,2561.01685819056169849170114229851633,2559.6,1.41685819056169849170114229851633
81,2625.41936210940947766312037905517082,2624.0,1.41936210940947766312037905517082
82,2690.62183524429124172548638512348340,2689.2,1.42183524429124172548638512348340
83,2756.62427834339723544145907188718413,2755.2,1.42427834339723544145907188718413
84,2823.42669212795599153263893097249691,2822.0,1.42669212795599153263893097249691
85,2891.02907729351490687079860360472147,2889.6,1.42907729351490687079860360472147
86,2959.43143451114565680646980375637573,2958.0,1.43143451114565680646980375637573
87,3028.63376442857968371949519254442024,3027.2,1.43376442857968371949519254442024
88,3098.63606767127857249841918130555581,3097.2,1.43606767127857249841918130555581
89,3169.43834484344374215343016566461148,3168.0,1.43834484344374215343016566461148
90,3241.04059652896953955083743370197691,3239.6,1.44059652896953955083743370197691
91,3313.44282329234349980501533394910637,3312.0,1.44282329234349980501533394910637
92,3386.64502567949724956620817992181969,3385.2,1.44502567949724956620817992181969
93,3460.64720421861126718753375617461044,3459.2,1.44720421861126718753375617461044
94,3535.44935942087647082578520371059764,3534.0,1.44935942087647082578520371059764
95,3611.05149178121538437660205476346176,3609.6,1.45149178121538437660205476346176
96,3687.45360177896542932246480469627367,3686.0,1.45360177896542932246480469627367
97,3764.65568987852670622985775107973110,3763.2,1.45568987852670622985775107973110
98,3842.65775652997645675765022533038267,3841.2,1.45775652997645675765022533038267
99,3921.45980216965224356655710834260360,3920.0,1.45980216965224356655710834260360
100,4001.06182722070573917912357432587841,3999.6,1.46182722070573917912357432587841
101,4081.46383209362888553552444069046192,4080.0,1.46383209362888553552444069046192
102,4162.66581718675406041574748435648275,4161.2,1.46581718675406041574748435648275
103,4244.66778288672977898511720059720351,4243.2,1.46778288672977898511720059720351
104,4327.46972956897335145540502709424149,4326.0,1.46972956897335145540502709424149
105,4411.07165759810182478001523430333599,4409.6,1.47165759810182478001523430333599
106,4495.47356732834244553749191323422168,4494.0,1.47356732834244553749191323422168
107,4580.67545910392380307563710440152676,4579.2,1.47545910392380307563710440152676
108,4666.67733325944873274897573527185269,4665.2,1.47733325944873274897573527185269
109,4753.47919012024999048876884820807004,4752.0,1.47919012024999048876884820807004
110,4841.08103000272964752465157263106190,4839.6,1.48103000272964752465157263106190
111,4929.48285321468308821577375395721313,4928.0,1.48285321468308821577375395721313
112,5018.68466005560844451568767491028225,5017.2,1.48466005560844451568767491028225
113,5108.68645081700224505943326003953956,5107.2,1.48645081700224505943326003953956
114,5199.48822578264200810351478003024271,5198.0,1.48822578264200810351478003024271
115,5291.08998522885646710096051506137423,5289.6,1.48998522885646710096051506137423
116,5383.49172942478406936200862893212797,5382.0,1.49172942478406936200862893212797
117,5476.69345863262035653795571998090147,5475.2,1.49345863262035653795571998090147
118,5570.69517310785479463459894947332553,5569.2,1.49517310785479463459894947332553
119,5665.49687309949758754798637498317790,5664.0,1.49687309949758754798637498317790
120,5761.09855885029698227295509567336627,5759.6,1.49855885029698227295509567336627
121,5857.50023059694753566769261989431661,5856.0,1.50023059694753566769261989431661
122,5954.70188857028979374442406116486422,5953.2,1.50188857028979374442406116486422
123,6052.70353299550180226339578360319177,6051.2,1.50353299550180226339578360319177
124,6151.50516409228284972751745027103835,6150.0,1.50516409228284972751745027103835
125,6251.10678207502981430876131059496060,6249.6,1.50678207502981430876131059496060
126,6351.50838715300647104012002300991714,6350.0,1.50838715300647104012002300991714
127,6452.70997953050609502903790101125411,6451.2,1.50997953050609502903790101125411
128,6554.71155940700767386104057337222433,6553.2,1.51155940700767386104057337222433
129,6657.51312697732603028904996521609861,6656.0,1.51312697732603028904996521609861
130,6761.11468243175613792200421502671951,6759.6,1.51468243175613792200421502671951
131,6865.51622595621189722228408058152680,6864.0,1.51622595621189722228408058152680
132,6970.71775773235962414424656440950530,6969.2,1.51775773235962414424656440950530
133,7076.71927793774649196458261043657856,7075.2,1.51927793774649196458261043657856
134,7183.52078674592415557925673652701506,7182.0,1.52078674592415557925673652701506
135,7291.12228432656776943344408172007688,7289.6,1.52228432656776943344408172007688
136,7399.52377084559060656334998826394561,7398.0,1.52377084559060656334998826394561
137,7508.72524646525447292085354754922008,7507.2,1.52524646525447292085354754922008
138,7618.72671134427609753992605566695670,7617.2,1.52671134427609753992605566695670
139,7729.52816563792967699786964172762400,7728.0,1.52816563792967699786964172762400
140,7841.12960949814573717845306776339085,7839.6,1.52960949814573717845306776339085
141,7953.53104307360647078653179310004255,7952.0,1.53104307360647078653179310004255
142,8066.73246650983770099047221852261772,8065.2,1.53246650983770099047221852261772
143,8180.73387994929761291853085039703097,8179.2,1.53387994929761291853085039703097
144,8295.53528353146238755570201755495712,8294.0,1.53528353146238755570201755495712
145,8411.13667739290886839978880735231625,8409.6,1.53667739290886839978880735231625
146,8527.53806166739438336670084042721453,8526.0,1.53806166739438336670084042721453
147,8644.73943648593383623201656748278860,8643.2,1.53943648593383623201656748278860
148,8762.74080197687418293781444876421303,8761.2,1.54080197687418293781444876421303
149,8881.54215826596639456570300244144352,8880.0,1.54215826596639456570300244144352
150,9001.14350547643501061690264769058713,8999.6,1.54350547643501061690264769058713
151,9121.54484372904537851360834553266101,9120.0,1.54484372904537851360834553266101
152,9242.74617314216866962077751548694916,9241.2,1.54617314216866962077751548694916
153,9364.74749383184476073801095052418495,9363.2,1.54749383184476073801095052418495
154,9487.54880591184306496074254740448503,9486.0,1.54880591184306496074254740448503
155,9611.15010949372139014670375829533447,9609.6,1.55010949372139014670375829533447
156,9735.55140468688290285399871982817394,9734.0,1.55140468688290285399871982817394
157,9860.75269159863126879736594746897248,9859.2,1.55269159863126879736594746897248
158,9986.75397033422404164069997164904154,9985.2,1.55397033422404164069997164904154
159,10113.5552409969243637986383182362507,10112.0,1.5552409969243637986383182362507
160,10241.1565036880510455847235391837899,10239.6,1.5565036880510455847235391837899
161,10369.5577585070270812022311953650575,10368.0,1.5577585070270812022311953650575
162,10498.7590055514266610387351028442740,10497.2,1.5590055514266610387351028442740
163,10628.7602449170207351176792049281114,10627.2,1.5602449170207351176792049281114
164,10759.5614766978211823435208981415216,10758.0,1.5614766978211823435208981415216
165,10891.1627009861236341406334223467276,10889.6,1.5627009861236341406334223467276
166,11023.5639178725490030015260190460278,11022.0,1.5639178725490030015260190460278
167,11156.7651274460837631766711751517457,11155.2,1.5651274460837631766711751517457
168,11290.7663297941190261948223915333834,11289.2,1.5663297941190261948223915333834
169,11425.5675250024884562758829904825979,11424.0,1.5675250024884562758829904825979
170,11561.1687131555050653794115125323528,11559.6,1.5687131555050653794115125323528
171,11697.5698943359969280831944154932259,11696.0,1.5698943359969280831944154932259
172,11834.7710686253418541585138049688336,11833.2,1.5710686253418541585138049688336
173,11972.7722361035010542444108394875525,11971.2,1.5722361035010542444108394875525
174,12111.5733968490518344644286128729445,12110.0,1.5733968490518344644286128729445
175,12251.1745509392193539707373137956942,12249.6,1.5745509392193539707373137956942
176,12391.5756984499074751219642884230313,12390.0,1.5756984499074751219642884230313
177,12532.7768394557287395552362249424206,12531.2,1.5768394557287395552362249424206
178,12674.7779740300334993067994044614315,12673.2,1.5779740300334993067994044614315
179,12817.5791022449382294261335353572678,12816.0,1.5791022449382294261335353572678
180,12961.1802241713530530299277614216907,12959.6,1.5802241713530530299277614216907
181,13105.5813398790085014444746511053547,13104.0,1.5813398790085014444746511053547
182,13250.7824494364815371318371728618647,13249.2,1.5824494364815371318371728618647
183,13396.7835529112208624490321237570738,13395.2,1.5835529112208624490321237570738
184,13543.5846503695715384817355797442455,13542.0,1.5846503695715384817355797442455
185,13691.1857418767989357606030986906025,13689.6,1.5857418767989357606030986906025
186,13839.5868274971120378287933972824600,13838.0,1.5868274971120378287933972824600
187,13988.7879072936861214611620757993857,13987.2,1.5879072936861214611620757993857
188,14138.7889813286848289714089786467882,14137.2,1.5889813286848289714089786467882
189,14289.5900496632816563382358145427845,14288.0,1.5900496632816563382358145427845
190,14441.1911123576808728015575883548055,14439.6,1.5911123576808728015575883548055
191,14593.5921694711378911512851486335580,14592.0,1.5921694711378911512851486335580
192,14746.7932210619791050908466142223585,14745.2,1.5932210619791050908466142223585
193,14900.7942671876212119792598171837658,14899.2,1.5942671876212119792598171837658
194,15055.5953079045900342925019382235225,15054.0,1.5953079045900342925019382235225
195,15211.1963432685388577364980502121938,15209.6,1.5963432685388577364980502121938
196,15367.5973733342662997035909328279486,15366.0,1.5973733342662997035909328279486
197,15524.7983981557337224477750199148131,15523.2,1.5983981557337224477750199148131
198,15682.7994177860822051406353183752700,15681.2,1.5994177860822051406353183752700
199,15841.6004322776490876418063760406602,15840.0,1.6004322776490876418063760406602
200,16001.2014416819840999241119651695538,15999.6,1.6014416819840999241119651695538
201,16161.6024460498650881297638823061005,16160.0,1.6024460498650881297638823061005
202,16322.8034454313133506337308128025456,16321.2,1.6034454313133506337308128025456
203,16484.8044398756085947689589163515291,16483.2,1.6044398756085947689589163515291
204,16647.6054294313035258283052365072114,16646.0,1.6054294313035258283052365072114
205,16811.2064141462380783084956187681981,16809.6,1.6064141462380783084956187681981
206,16975.6073940675533024148035848042745,16974.0,1.6073940675533024148035848042745
207,17140.8083692417049116970753219942754,17139.2,1.6083692417049116970753219942754
208,17306.8093397144765060385049600695717,17305.2,1.6093397144765060385049600695717
209,17473.6103055309924757399873371307464,17472.0,1.6103055309924757399873371307464
210,17641.2112667357305981956468917963744,17639.6,1.6112667357305981956468917963744
211,17809.6122233725343345184986248515494,17808.0,1.6122233725343345184986248515494
212,17978.8131754846248363433628699560470,17977.2,1.6131754846248363433628699560470
213,18148.8141231146126671849212874577066,18147.2,1.6141231146126671849212874577066
214,18319.6150663045092533265972804815498,18318.0,1.6150663045092533265972804815498
215,18491.2160050957380634464849911164118,18489.6,1.6160050957380634464849911164118
216,18663.6169395291455309347769873346986,18662.0,1.6169395291455309347769873346986
217,18836.8178696450117228617255743854602,18835.2,1.6178696450117228617255743854602
218,19010.8187954830607645685801876212919,19009.2,1.6187954830607645685801876212919
219,19185.6197170824710231544292449553164,19184.0,1.6197170824710231544292449553164
220,19361.2206344818850623670665974557311,19359.6,1.6206344818850623670665974557311
221,19537.6215477194193668001646449384692,19536.0,1.6215477194193668001646449384692
222,19714.8224568326738525941116944820466,19713.2,1.6224568326738525941116944820466
223,19892.8233618587411582013367729074570,19891.2,1.6233618587411582013367729074570
224,20071.6242628342157302754119892748783,20070.0,1.6242628342157302754119892748783
225,20251.2251597952027072404667406168789,20249.6,1.6251597952027072404667406168789
226,20431.6260527773266040788463354588181,20430.0,1.6260527773266040788463354588181
227,20612.8269418157398069798530946474013,20611.2,1.6269418157398069798530946474013
228,20794.8278269451308796597608076589579,20793.2,1.6278269451308796597608076589579
229,20977.6287081997326885052373666456425,20976.0,1.6287081997326885052373666456425
230,21161.2295856133303512264034371428633,21159.6,1.6295856133303512264034371428633
231,21345.6304592192690108087810495405813,21344.0,1.6304592192690108087810495405813
232,21530.8313290504614451730362028454790,21529.2,1.6313290504614451730362028454790
233,21716.8321951393955075280030794550429,21715.2,1.6321951393955075280030794550429
234,21903.6330575181414135630387774680390,21902.0,1.6330575181414135630387774680390
235,22091.2339162183588686507914737137251,22089.6,1.6339162183588686507914737137251
236,22279.6347712713040447591329235363787,22278.0,1.6347712713040447591329235363787
237,22468.8356227078364106923647092276754,22467.2,1.6356227078364106923647092276754
238,22658.8364705584254173926913676398643,22657.2,1.6364705584254173926913676398643
