Eigenstate,Energy,Kinetic Energy,Potential Energy
1,0.500000000126900084477368009805747824,0.0,0.500000000126900084477368009805747824
2,1.84623093847945550096763984579584056,1.2,0.64623093847945550096763984579584056
3,3.93633761213817485463902773706678083,3.2,0.73633761213817485463902773706678083
4,6.79966528288235709884134161752067212,6.0,0.79966528288235709884134161752067212
5,10.4480465840647969584150919201626788,9.6,0.8480465840647969584150919201626788
6,14.8870660104553264153303560760983395,14.0,0.8870660104553264153303560760983395
7,20.1197208434992765779068329983455240,19.2,0.9197208434992765779068329983455240
8,26.1477838695774277022443469271731841,25.2,0.9477838695774277022443469271731841
9,32.9723835876983540257552587062066912,32.0,0.9723835876983540257552587062066912
10,40.5942802520121472064376597252558371,39.6,0.9942802520121472064376597252558371
11,49.0140094326609505802700734039205034,48.0,1.0140094326609505802700734039205034
12,58.2319622249502666816171077166786215,57.2,1.0319622249502666816171077166786215
13,68.2484327589466448056467615301999633,67.2,1.0484327589466448056467615301999633
14,79.0636477323338976585078823534408740,78.0,1.0636477323338976585078823534408740
15,90.6777855262273195057611104315312376,89.6,1.0777855262273195057611104315312376
16,103.090989010044152208916641827538471,102.0,1.090989010044152208916641827538471
17,116.303374374965103311907961184476590,115.2,1.103374374965103311907961184476590
18,130.315037384940554823521317239983146,129.2,1.115037384940554823521317239983146
19,145.126057899794547332571100332765995,144.0,1.126057899794547332571100332765995
20,160.736503212858721090048991131699975,159.6,1.136503212858721090048991131699975
21,177.146430557054016570573066635019119,176.0,1.146430557054016570573066635019119
22,194.355889016049417120077662545152982,193.2,1.155889016049417120077662545152982
23,212.364921002198475513418827325803857,211.2,1.164921002198475513418827325803857
24,231.173563413939737577345850679585193,230.0,1.173563413939737577345850679585193
25,250.781848552592669726894353317013465,249.6,1.181848552592669726894353317013465
26,271.189804856165247625493660194618208,270.0,1.189804856165247625493660194618208
27,292.397457492316532754213371050109932,291.2,1.197457492316532754213371050109932
28,314.404828841715712850319994710434941,313.2,1.204828841715712850319994710434941
29,337.211938895244054342639919750849394,336.0,1.211938895244054342639919750849394
30,360.818805582836727334074556171283669,359.6,1.218805582836727334074556171283669
31,385.225445047615525175938134174192207,384.0,1.225445047615525175938134174192207
32,410.431871875885601090026078939058179,409.2,1.231871875885601090026078939058179
33,436.438099291259696487248742390494980,435.2,1.238099291259696487248742390494980
34,463.244139319422789363344461880603512,462.0,1.244139319422789363344461880603512
35,490.850002928710896084882125253345967,489.6,1.250002928710896084882125253345967
36,519.255700150644280999015512301956168,518.0,1.255700150644280999015512301956168
37,548.461240183751243751032243554672486,547.2,1.261240183751243751032243554672486
38,578.466631483388235449911761923943004,577.2,1.266631483388235449911761923943004
39,609.271881839764206172061225982043817,608.0,1.271881839764206172061225982043817
40,640.876998445981265509444265788807290,639.6,1.276998445981265509444265788807290
41,673.281987957586987594277269519890599,672.0,1.281987957586987594277269519890599
42,706.486856544878699430711865130132314,705.2,1.286856544878699430711865130132314
43,740.491609938993605018807450486650488,739.2,1.291609938993605018807450486650488
44,775.296253472650503740435569842999013,774.0,1.296253472650503740435569842999013
45,810.900792116271291907634928295293732,809.6,1.300792116271291907634928295293732
46,847.305230510097300091240974498381255,846.0,1.305230510097300091240974498381255
47,884.509572992822042235200282786842576,883.2,1.309572992822042235200282786842576
48,922.513823627184366197665713498601436,921.2,1.313823627184366197665713498601436
49,961.317986222901332816017117760671806,960.0,1.317986222901332816017117760671806
50,1000.92206435726602787925443973662643,999.6,1.32206435726602787925443973662643
51,1041.32606139369004442870097436178429,1040.0,1.32606139369004442870097436178429
52,1082.52998049843202759362425709251170,1081.2,1.32998049843202759362425709251170
53,1124.53382465572122404981061832989071,1123.2,1.33382465572122404981061832989071
54,1167.33759668145741705765223601270701,1166.0,1.33759668145741705765223601270701
55,1210.94129923564515254377559013759296,1209.6,1.34129923564515254377559013759296
56,1255.34493483370008712010020157201365,1254.0,1.34493483370008712010020157201365
57,1300.54850585674808996908465156171319,1299.2,1.34850585674808996908465156171319
58,1346.55201456102293333761583215506007,1345.2,1.35201456102293333761583215506007
59,1393.35546308645565243471229254200156,1392.0,1.35546308645565243471229254200156
60,1440.95885346453763102050338240075678,1439.6,1.35885346453763102050338240075678
61,1489.36218762552990474643433800968205,1488.0,1.36218762552990474643433800968205
62,1538.56546740508287330152877775482328,1537.2,1.36546740508287330152877775482328
63,1588.56869455032337053051440649939239,1587.2,1.36869455032337053051440649939239
64,1639.37187072545972920969169747398515,1638.0,1.37187072545972920969169747398515
65,1690.97499751694994232644948280347121,1689.6,1.37499751694994232644948280347121
66,1743.37807643827317536927369549015855,1742.0,1.37807643827317536927369549015855
67,1796.58110893434062184376759967724015,1795.2,1.38110893434062184376759967724015
68,1850.58409638557793806939107128265011,1849.2,1.38409638557793806939107128265011
69,1905.38704011170818064089816954337889,1904.0,1.38704011170818064089816954337889
70,1960.98994137526124167018577229427587,1959.6,1.38994137526124167018577229427587
71,2017.39280138483317822053508712869620,2016.0,1.39280138483317822053508712869620
72,2074.59562129811653410284532728997315,2073.2,1.39562129811653410284532728997315
73,2132.59840222472069919705588217420901,2131.2,1.39840222472069919705588217420901
74,2191.40114522879953261339874714394923,2190.0,1.40114522879953261339874714394923
75,2251.00385133150184490702013304153602,2249.6,1.40385133150184490702013304153602
76,2311.40652151325888500275368360277639,2310.0,1.40652151325888500275368360277639
77,2372.60915671592167508841003592446999,2371.2,1.40915671592167508841003592446999
78,2434.61175784475987093676653100240739,2433.2,1.41175784475987093676653100240739
79,2497.41432577033277829644867260083145,2496.0,1.41432577033277829644867260083145
80,2561.01686133024221786624985998376294,2559.6,1.41686133024221786624985998376294
81,2625.41936533077608202596039962214245,2624.0,1.41936533077608202596039962214245
82,2690.62183854845066504622199281594969,2689.2,1.42183854845066504622199281594969
83,2756.62428173145915976613533038639093,2755.2,1.42428173145915976613533038639093
84,2823.42669560103308943563190899081800,2822.0,1.42669560103308943563190899081800
85,2891.02908085272288414344800519814722,2889.6,1.42908085272288414344800519814722
86,2959.43143815760329538614924333486256,2958.0,1.43143815760329538614924333486256
87,3028.63376816340888486285531050665034,3027.2,1.43376816340888486285531050665034
88,3098.63607149560440020257823347601798,3097.2,1.43607149560440020257823347601798
89,3169.43834875839446682892689937095484,3168.0,1.43834875839446682892689937095484
90,3241.04060053567668195020149824338261,3239.6,1.44060053567668195020149824338261
91,3313.44282739194187521085168967892158,3312.0,1.44282739194187521085168967892158
92,3386.64502987312501224273268854087119,3385.2,1.44502987312501224273268854087119
93,3460.64720850740995509953942699750829,3459.2,1.44720850740995509953942699750829
94,3535.44936380599105062906054875574084,3534.0,1.44936380599105062906054875574084
95,3611.05149626379429668386593930370875,3609.6,1.45149626379429668386593930370875
96,3687.45360636016063424892517486181405,3686.0,1.45360636016063424892517486181405
97,3764.65569455949372922254621378566495,3763.2,1.45569455949372922254621378566495
98,3842.65776131187443471272790761368523,3841.2,1.45776131187443471272790761368523
99,3921.45980705364397123883345377100508,3920.0,1.45980705364397123883345377100508
100,4001.06183220795771588807450124211435,3999.6,1.46183220795771588807450124211435
101,4081.46383718531136217214339439718517,4080.0,1.46383718531136217214339439718517
102,4162.66582238404108675460948299122341,4161.2,1.46582238404108675460948299122341
103,4244.66778819079925130608381858583177,4243.2,1.46778819079925130608381858583177
104,4327.46973498100706047944727900307587,4326.0,1.46973498100706047944727900307587
105,4411.07166311928550392367967129928474,4409.6,1.47166311928550392367967129928474
106,4495.47357295986581949058584506182044,4494.0,1.47357295986581949058584506182044
107,4580.67546484698063670675934448817885,4579.2,1.47546484698063670675934448817885
108,4666.67733911523688034357075880290316,4665.2,1.47733911523688034357075880290316
109,4753.47919608997144532443477470475661,4752.0,1.47919608997144532443477470475661
110,4841.08103608759059178848529571415980,4839.6,1.48103608759059178848529571415980
111,4929.48285941589394326859045346421018,4928.0,1.48285941589394326859045346421018
112,5018.68466637438392150800732470742949,5017.2,1.48466637438392150800732470742949
113,5108.68645725456139590418175839809210,5107.2,1.48645725456139590418175839809210
114,5199.48823234020827681044433078636923,5198.0,1.48823234020827681044433078636923
115,5291.08999190765774147785136555649769,5289.6,1.48999190765774147785136555649769
116,5383.49173622605273308777269626816401,5382.0,1.49173622605273308777269626816401
117,5476.69346555759334161282181266550880,5475.2,1.49346555759334161282181266550880
118,5570.69518015777363421261999314987480,5569.2,1.49518015777363421261999314987480
119,5665.49688027560846915716988604233951,5664.0,1.49688027560846915716988604233951
120,5761.09856615385080142838105950090851,5759.6,1.49856615385080142838105950090851
121,5857.50023802919994988304583105266691,5856.0,1.50023802919994988304583105266691
122,5954.70189613250127694743233873487616,5953.2,1.50189613250127694743233873487616
123,6052.70354068893769962073112036233550,6051.2,1.50354068893769962073112036233550
124,6151.50517191821343288478346721937544,6150.0,1.50517191821343288478346721937544
125,6251.10679003473033705125795329893783,6249.6,1.50679003473033705125795329893783
126,6351.50839524775722538014528483326676,6350.0,1.50839524775722538014528483326676
127,6452.70998776159246772555593278328652,6451.2,1.50998776159246772555593278328652
128,6554.71156777572020337761663563631326,6553.2,1.51156777572020337761663563631326
129,6657.51313548496046419602481535170833,6656.0,1.51313548496046419602481535170833
130,6761.11469107961349074895359627224980,6759.6,1.51469107961349074895359627224980
131,6865.51623474559850876688384144918135,6864.0,1.51623474559850876688384144918135
132,6970.71776666458721824373973051584127,6969.2,1.51776666458721824373973051584127
133,7076.71928701413223573612084995808351,7075.2,1.51928701413223573612084995808351
134,7183.52079596779071913546826786772419,7182.0,1.52079596779071913546826786772419
135,7291.12229369524338607965891187397540,7289.6,1.52229369524338607965891187397540
136,7399.52378036240913348299372252637965,7398.0,1.52378036240913348299372252637965
137,7508.72525613155545235560451527338933,7507.2,1.52525613155545235560451527338933
138,7618.72672116140481847131316890444506,7617.2,1.52672116140481847131316890444506
139,7729.52817560723723733707344929039022,7728.0,1.52817560723723733707344929039022
140,7841.12961962098910647115957334162830,7839.6,1.52961962098910647115957334162830
141,7953.53105335134855343977523772665837,7952.0,1.53105335134855343977523772665837
142,8066.73247694384740002849349556237383,8065.2,1.53247694384740002849349556237383
143,8180.73389054094989427476829676054377,8179.2,1.53389054094989427476829676054377
144,8295.53529428213834490812416363654453,8294.0,1.53529428213834490812416363654453
145,8411.13668830399578855687171171750670,8409.6,1.53668830399578855687171171750670
146,8527.53807274028581221144898184591014,8526.0,1.53807274028581221144898184591014
147,8644.73944772202964523152292916928916,8643.2,1.53944772202964523152292916928916
148,8762.74081337758063622595349825701341,8761.2,1.54081337758063622595349825701341
149,8881.54216983269621660665181263958635,8880.0,1.54216983269621660665181263958635
150,9001.14351721060745445728578794368380,8999.6,1.54351721060745445728578794368380
151,9121.54485563208629463116774544764515,9120.0,1.54485563208629463116774544764515
152,9242.74618521551057537757220103342914,9241.2,1.54618521551057537757220103342914
153,9364.74750607692691044626009998106559,9363.2,1.54750607692691044626009998106559
154,9487.54881833011152056953335226525411,9486.0,1.54881833011152056953335226525411
155,9611.15012208662909255789707190155488,9609.6,1.55012208662909255789707190155488
156,9735.55141745588974387577832256120179,9734.0,1.55141745588974387577832256120179
157,9860.75270454520416374399148784004434,9859.2,1.55270454520416374399148784004434
158,9986.75398345983700258714063982932988,9985.2,1.55398345983700258714063982932988
159,10113.5552543030585734988822739546225,10112.0,1.5552543030585734988822739546225
160,10241.1565171761949320626797929806277,10239.6,1.5565171761949320626797929806277
161,10369.5577721786763930242623797226380,10368.0,1.5577721786763930242623797226380
162,10498.7590194080845432769849361358193,10497.2,1.5590194080845432769849361358193
163,10628.7602589601978060134846345203987,10627.2,1.5602589601978060134846345203987
164,10759.5614909290356106803288231753859,10758.0,1.5614909290356106803288231753859
165,10891.1627154069012173359727979935309,10889.6,1.5627154069012173359727979935309
166,11023.5639324844232459277196580917219,11022.0,1.5639324844232459277196580917219
167,11156.7651422505959577201068723471634,11155.2,1.5651422505959577201068723471634
168,11290.7663447928183315637425200811056,11289.2,1.5663447928183315637425200811056
169,11425.5675401969319800667906941181810,11424.0,1.5675401969319800667906941181810
170,11561.1687285472579454123358274686120,11559.6,1.5687285472579454123358274686120
171,11697.5699099266324150162013837636341,11696.0,1.5699099266324150162013837636341
172,11834.7710844164413948919987329770859,11833.2,1.5710844164413948919987329770859
173,11972.7722520966543761258573663641104,11971.2,1.5722520966543761258573663641104
174,12111.5734130458570303044737690929042,12110.0,1.5734130458570303044737690929042
175,12251.1745673412829678815369485987601,12249.6,1.5745673412829678815369485987601
176,12391.5757150588445891890122008583085,12390.0,1.5757150588445891890122008583085
177,12532.7768562731630613539516961910930,12531.2,1.5768562731630613539516961910930
178,12674.7779910575974502753608145555176,12673.2,1.5779910575974502753608145555176
179,12817.5791194842730341062046650051806,12816.0,1.5791194842730341062046650051806
180,12961.1802416241088291870917798192449,12959.6,1.5802416241088291870917798192449
181,13105.5813575468443510803638363481449,13104.0,1.5813575468443510803638363481449
182,13250.7824673210656384001229339631394,13249.2,1.5824673210656384001229339631394
183,13396.7835710142305624876186400586973,13395.2,1.5835710142305624876186400586973
184,13543.5846686926934471736818657284157,13542.0,1.5846686926934471736818657284157
185,13691.1857604217290204364859535347573,13689.6,1.5857604217290204364859535347573
186,13839.5868462655557189234087653559661,13838.0,1.5868462655557189234087653559661
187,13988.7879262873583691376579100027867,13987.2,1.5879262873583691376579100027867
188,14138.7890005493102607261361033936436,14137.2,1.5890005493102607261361033936436
189,14289.5900691125946355998030391691216,14288.0,1.5900691125946355998030391691216
190,14441.1911320374256085377792991629798,14439.6,1.5911320374256085377792991629798
191,14593.5921893830685384979164738953978,14592.0,1.5921893830685384979164738953978
192,14746.7932412078598670162104509302897,14745.2,1.5932412078598670162104509302897
193,14900.7942875692264419990838562611612,14899.2,1.5942875692264419990838562611612
194,15055.5953285237043402495010042707687,15054.0,1.5953285237043402495010042707687
195,15211.1963641269572066594589083828067,15209.6,1.5963641269572066594589083828067
196,15367.5973944337941237609414501360163,15366.0,1.5973944337941237609414501360163
197,15524.7984194981870260108496562633569,15523.2,1.5984194981870260108496562633569
198,15682.7994393732876729720815283029647,15681.2,1.5994393732876729720815283029647
199,15841.6004541114441942248160742479837,15840.0,1.6004541114441942248160742479837
200,16001.2014637642172199484022755971283,15999.6,1.6014637642172199484022755971283
201,16161.6024683823956081504787647667724,16160.0,1.6024683823956081504787647667724
202,16322.8034680160117819196878034996212,16321.2,1.6034680160117819196878034996212
203,16484.8044627143566873569179519174794,16483.2,1.6044627143566873569179519174794
204,16647.6054525259943838001998105588558,16646.0,1.6054525259943838001998105588558
205,16811.2064374987762763088290190414026,16809.6,1.6064374987762763088290190414026
206,16975.6074176798550034256853106380424,16974.0,1.6074176798550034256853106380424
207,17140.8083931156979860886467035582981,17139.2,1.6083931156979860886467035582981
208,17306.8093638521006519127827696002465,17305.2,1.6093638521006519127827696002465
209,17473.6103299341993405864409387760412,17472.0,1.6103299341993405864409387760412
210,17641.2112914064839018771133204856060,17639.6,1.6112914064839018771133204856060
211,17809.6122483128099936063372885835522,17808.0,1.6122483128099936063372885835522
212,17978.8132006964110898210522590276648,17977.2,1.6132006964110898210522590276648
213,18148.8141485999102035396088253438441,18147.2,1.6141485999102035396088253438441
214,18319.6150920653313390484242489886904,18318.0,1.6150920653313390484242489886904
215,18491.2160311341106729558288033872603,18489.6,1.6160311341106729558288033872603
216,18663.6169658471074779578780027995561,18662.0,1.6169658471074779578780027995561
217,18836.8178962446147932754955799049215,18835.2,1.6178962446147932754955799049215
218,19010.8188223663698507357271838380387,19009.2,1.6188223663698507357271838380387
219,19185.6197442515642597703786075145318,19184.0,1.6197442515642597703786075145318
220,19361.2206619388539638405060165790514,19359.6,1.6206619388539638405060165790514
221,19537.6215754663689661893987847852143,19536.0,1.6215754663689661893987847852143
222,19714.8224848717228421217762893233415,19713.2,1.6224848717228421217762893233415
223,19892.8233901920220313703914058498705,19891.2,1.6233901920220313703914058498705
224,20071.6242914638749256097094885346584,20070.0,1.6242914638749256097094885346584
225,20251.2251887234007536735814770350239,20249.6,1.6251887234007536735814770350239
226,20431.6260820062382680152371621696469,20430.0,1.6260820062382680152371621696469
227,20612.8269713475542410528340177326953,20611.2,1.6269713475542410528340177326953
228,20794.8278567820517732111637717936495,20793.2,1.6278567820517732111637717936495
229,20977.6287383439784198120645920142010,20976.0,1.6287383439784198120645920142010
230,21161.2296160671341415001907418884343,21159.6,1.6296160671341415001907418884343
231,21345.6304899848790799938265380473160,21344.0,1.6304899848790799938265380473160
232,21530.8313601301411695700883175754489,21529.2,1.6313601301411695700883175754489
233,21716.8322265354235792704508464944434,21715.2,1.6322265354235792704508464944434
234,21903.6330892328120019731059083868508,21902.0,1.6330892328120019731059083868508
235,22091.2339482539817835037014571904101,22089.6,1.6339482539817835037014571904101
236,22279.6348036302049014836889791127007,22278.0,1.6348036302049014836889791127007
237,22468.8356553923567975368740314825328,22467.2,1.6356553923567975368740314825328
238,22658.8365035709230645856579810128635,22657.2,1.6365035709230645856579810128635
