Eigenstate,Energy,Kinetic Energy,Potential Energy
1,0.500000000189523209917151578288247474,0.0,0.500000000189523209917151578288247474
2,1.84623093888823139269819028641604764,1.2,0.64623093888823139269819028641604764
3,3.93633761333894278121328373846436762,3.2,0.73633761333894278121328373846436762
4,6.79966528538348158810156656353653127,6.0,0.79966528538348158810156656353653127
5,10.4480465883973932639960179908302068,9.6,0.8480465883973932639960179908302068
6,14.8870660171598917248233197076551523,14.0,0.8870660171598917248233197076551523
7,20.1197208531207777972534445469714360,19.2,0.9197208531207777972534445469714360
8,26.1477838826632653948491238260607703,25.2,0.9477838826632653948491238260607703
9,32.9723836047974271656972738211429244,32.0,0.9723836047974271656972738211429244
10,40.5942802736743891245766272454315432,39.6,0.9942802736743891245766272454315432
11,49.0140094594370867446501899612320534,48.0,1.0140094594370867446501899612320534
12,58.2319622573916855395817016507220624,57.2,1.0319622573916855395817016507220624
13,68.2484327976053301957280755868772630,67.2,1.0484327976053301957280755868772630
14,79.0636477777623966746531355093633500,78.0,1.0636477777623966746531355093633500
15,90.6777855789787317684006017600742978,89.6,1.0777855789787317684006017600742978
16,103.090989070672132602150859062871398,102.0,1.090989070672132602150859062871398
17,116.303374444023873499886699441090360,115.2,1.103374444023873499886699441090360
18,130.315037462984920674254297957203205,129.2,1.115037462984920674254297957203205
19,145.126057987379920431200411252369262,144.0,1.126057987379920431200411252369262
20,160.736503310541143157240052410779142,159.6,1.136503310541143157240052410779142
21,177.146430665390185994704597554275940,176.0,1.146430665390185994704597554275940
22,194.355889135596717062549805189056399,193.2,1.155889135596717062549805189056399
23,212.364921133515003210259960445924884,211.2,1.164921133515003210259960445924884
24,231.173563557584334569855252455255853,230.0,1.173563557584334569855252455255853
25,250.781848709124952828808883727579210,249.6,1.181848709124952828808883727579210
26,271.189805026145640486120057432975680,270.0,1.189805026145640486120057432975680
27,292.397457676306297913690865862556803,291.2,1.197457676306297913690865862556803
28,314.404829040276984209540309753089525,313.2,1.204829040276984209540309753089525
29,337.211939108939869989548054853335457,336.0,1.211939108939869989548054853335457
30,360.818805812231062682237294521233945,359.6,1.218805812231062682237294521233945
31,385.225445293273326381846022870773937,384.0,1.225445293273326381846022870773937
32,410.431872138372818723586324252234216,409.2,1.231872138372818723586324252234216
33,436.438099571143319436028526777452568,435.2,1.238099571143319436028526777452568
34,463.244139617270878955830177681887685,462.0,1.244139617270878955830177681887685
35,490.850003245092620421683761128894856,489.6,1.250003245092620421683761128894856
36,519.255700486129949483823375476697530,518.0,1.255700486129949483823375476697530
37,548.461240538912341815413444497179624,547.2,1.261240538912341815413444497179624
38,578.466631858797459467855089656582240,577.2,1.266631858797459467855089656582240
39,609.271882235995498561645478645473293,608.0,1.271882235995498561645478645473293
40,640.876998863609850020194752868623355,639.6,1.276998863609850020194752868623355
41,673.281988397189404779747699748039071,672.0,1.281988397189404779747699748039071
42,706.486857007032842306629655584114110,705.2,1.286857007032842306629655584114110
43,740.491610424278754907784972547611039,739.2,1.291610424278754907784972547611039
44,775.296253981647366304804943868053338,774.0,1.296253981647366304804943868053338
45,810.900792649562033372431501250358811,809.6,1.300792649562033372431501250358811
46,847.305231068265583659757175991191008,846.0,1.305231068265583659757175991191008
47,884.509573576453064699870411813845082,883.2,1.309573576453064699870411813845082
48,922.513824236864894749334258249148742,921.2,1.313824236864894749334258249148742
49,961.317986859219742054896652901103060,960.0,1.317986859219742054896652901103060
50,1000.92206502081233703110108572295767,999.6,1.32206502081233703110108572295767
51,1041.32606208505595476993135429390705,1040.0,1.32606208505595476993135429390705
52,1082.52998121821096008927221863709885,1081.2,1.32998121821096008927221863709885
53,1124.53382540450835720837854817768815,1123.2,1.33382540450835720837854817768815
54,1167.33759745984972500705361838057409,1166.0,1.33759745984972500705361838057409
55,1210.94130004424144333269492525021015,1209.6,1.34130004424144333269492525021015
56,1255.34493567310104124921576806859033,1254.0,1.34493567310104124921576806859033
57,1300.54850672755629915671023868148444,1299.2,1.34850672755629915671023868148444
58,1346.55201546384293952442165616858708,1345.2,1.35201546384293952442165616858708
59,1393.35546402189398703228296144832196,1392.0,1.35546402189398703228296144832196
60,1440.95885443320285440858408086022801,1439.6,1.35885443320285440858408086022801
61,1489.36218862803264602380549417526903,1488.0,1.36218862803264602380549417526903
62,1538.56546844203587029553559744159690,1537.2,1.36546844203587029553559744159690
63,1588.56869562234151007036085098398328,1587.2,1.36869562234151007036085098398328
64,1639.37187183316008766868977574183200,1638.0,1.37187183316008766868977574183200
65,1690.97499866095182643849459756424095,1689.6,1.37499866095182643849459756424095
66,1743.37807761919816332489504318805385,1742.0,1.37807761919816332489504318805385
67,1796.58111015281260467118026165707070,1795.2,1.38111015281260467118026165707070
68,1850.58409764222316130605340291935707,1849.2,1.38409764222316130605340291935707
69,1905.38704140715528630115497620574007,1904.0,1.38704140715528630115497620574007
70,1960.98994271014131051465383843906496,1959.6,1.38994271014131051465383843906496
71,2017.39280275977977233296491782185339,2016.0,1.39280275977977233296491782185339
72,2074.59562271376573978026919503101454,2073.2,1.39562271376573978026919503101454
73,2132.59840368171117015911043855690078,2131.2,1.39840368171117015911043855690078
74,2191.40114672777253353678761808220446,2190.0,1.40114672777253353678761808220446
75,2251.00385287310129529116126921372997,2249.6,1.40385287310129529116126921372997
76,2311.40652309813140337273496218778232,2310.0,1.40652309813140337273496218778232
77,2372.60915834471662354145755699687584,2371.2,1.40915834471662354145755699687584
78,2434.61175951812940003851114906027700,2433.2,1.41175951812940003851114906027700
79,2497.41432748893187233335889370231330,2496.0,1.41432748893187233335889370231330
80,2561.01686309472874046068274268422434,2559.6,1.41686309472874046068274268422434
81,2625.41936714181082212036710487028386,2624.0,1.41936714181082212036710487028386
82,2690.62184040669738326313075908336559,2689.2,1.42184040669738326313075908336559
83,2756.62428363758463515062234450386316,2755.2,1.42428363758463515062234450386316
84,2823.42669755570716658707944683065214,2822.0,1.42669755570716658707944683065214
85,2891.02908285661852074347998854137376,2889.6,1.42908285661852074347998854137376
86,2959.43144021139661012972618561782818,2958.0,1.43144021139661012972618561782818
87,3028.63377026777920579960465739418186,3027.2,1.43377026777920579960465739418186
88,3098.63607365123431349553141742401680,3097.2,1.43607365123431349553141742401680
89,3169.43835096596986593793135018665059,3168.0,1.43835096596986593793135018665059
90,3241.04060279588681724737514752647014,3239.6,1.44060279588681724737514752647014
91,3313.44282970547940403554797453057339,3312.0,1.44282970547940403554797453057339
92,3386.64503224068604940358678536414597,3385.2,1.44503224068604940358678536414597
93,3460.64721092969412383127085368015625,3459.2,1.44721092969412383127085368015625
94,3535.44936628370153401181405890661401,3534.0,1.44936628370153401181405890661401
95,3611.05149879763788953298086634547513,3609.6,1.45149879763788953298086634547513
96,3687.45360895084779548313409598719273,3686.0,1.45360895084779548313409598719273
97,3764.65569720773863471871666323979622,3763.2,1.45569720773863471871666323979622
98,3842.65776401839503065537542076884413,3841.2,1.45776401839503065537542076884413
99,3921.45980981916202797275178027701953,3920.0,1.45980981916202797275178027701953
100,4001.06183503319888228254758605859472,3999.6,1.46183503319888228254758605859472
101,4081.46384007100522050532601880139914,4080.0,1.46384007100522050532601880139914
102,4162.66582533092120812678709454821616,4161.2,1.46582533092120812678709454821616
103,4244.66779119960325159064843742653708,4243.2,1.46779119960325159064843742653708
104,4327.46973805247665682055585013481928,4326.0,1.46973805247665682055585013481928
105,4411.07166625416657178969194875844044,4409.6,1.47166625416657178969194875844044
106,4495.47357615890845029251332087913967,4494.0,1.47357615890845029251332087913967
107,4580.67546811093919599109338294009358,4579.2,1.47546811093919599109338294009358
108,4666.67734244487006656899698346716715,4665.2,1.47734244487006656899698346716715
109,4753.47919948604234923208330559105250,4752.0,1.47919948604234923208330559105250
110,4841.08103955086675637551099781973317,4839.6,1.48103955086675637551099781973317
111,4929.48286294714742437502489900749058,4928.0,1.48286294714742437502489900749058
112,5018.68466997439134902697518165305932,5017.2,1.48466997439134902697518165305932
113,5108.68646092410403562572738086018634,5107.2,1.48646092410403562572738086018634
114,5199.48823608007209290937123441828989,5198.0,1.48823608007209290937123441828989
115,5291.08999571863345965613689013743523,5289.6,1.48999571863345965613689013743523
116,5383.49174010893590438228295447828043,5382.0,1.49174010893590438228295447828043
117,5476.69346951318440687921802998498763,5475.2,1.49346951318440687921802998498763
118,5570.69518418687798929651686656917966,5569.2,1.49518418687798929651686656917966
119,5665.49688437903653076377919223772063,5664.0,1.49688437903653076377919223772063
120,5761.09857033241807370204974116223847,5759.6,1.49857033241807370204974116223847
121,5857.50024228372709170827779902900518,5856.0,1.50024228372709170827779902900518
122,5954.70190046381416998316618468002019,5953.2,1.50190046381416998316618468002019
123,6052.70354509786751707983290708354739,6051.2,1.50354509786751707983290708354739
124,6151.50517640559670907090408788538820,6150.0,1.50517640559670907090408788538820
125,6251.10679460140903766539954680602660,6249.6,1.50679460140903766539954680602660
126,6351.50839989457881860947899738658968,6350.0,1.50839989457881860947899738658968
127,6452.70999248940999612723538500920831,6451.2,1.50999248940999612723538500920831
128,6554.71157258539235657053865868281723,6553.2,1.51157258539235657053865868281723
129,6657.51314037735165237369852209026931,6656.0,1.51314037735165237369852209026931
130,6761.11469605559391902685396556520869,6759.6,1.51469605559391902685396556520869
131,6865.51623980604425237788495972393231,6864.0,1.51623980604425237788495972393231
132,6970.71777181038029859544634399596364,6969.2,1.51777181038029859544634399596364
133,7076.71929224616069734414435433451262,7075.2,1.51929224616069734414435433451262
134,7183.52080128694870744692633802020241,7182.0,1.52080128694870744692633802020241
135,7291.12229910243122620141495006394220,7289.6,1.52229910243122620141495006394220
136,7399.52378585853340982939406819193295,7398.0,1.52378585853340982939406819193295
137,7508.72526171752908923071885319760531,7507.2,1.52526171752908923071885319760531
138,7618.72672683814716160093475489844915,7617.2,1.52672683814716160093475489844915
139,7729.52818137567413636599348394179811,7728.0,1.52818137567413636599348394179811
140,7841.12962548205299844149221285881312,7839.6,1.52962548205299844149221285881312
141,7953.53105930597854726637705197413726,7952.0,1.53105930597854726637705197413726
142,8066.73248299298936198779475642028191,8065.2,1.53248299298936198779475642028191
143,8180.73389668555653452361170818911972,8179.2,1.53389668555653452361170818911972
144,8295.53530052316930504949175099610459,8294.0,1.53530052316930504949175099610459
145,8411.13669464241773026966958325510920,8409.6,1.53669464241773026966958325510920
146,8527.53807917707250696181786965236161,8526.0,1.53807917707250696181786965236161
147,8644.73945425816206508344242189307282,8643.2,1.53945425816206508344242189307282
148,8762.74082001404704576921862545815052,8761.2,1.54082001404704576921862545815052
149,8881.54217657049226602061388382127959,8880.0,1.54217657049226602061388382127959
150,9001.14352405073627372907182512247038,8999.6,1.54352405073627372907182512247038
151,9121.54486257555858894742084874603581,9120.0,1.54486257555858894742084874603581
152,9242.74619226334472170908985738597420,9241.2,1.54619226334472170908985738597420
153,9364.74751323014905534524932264649730,9363.2,1.54751323014905534524932264649730
154,9487.54882558975567919955128012379928,9486.0,1.54882558975567919955128012379928
155,9611.15012945373724897690114808788585,9609.6,1.55012945373724897690114808788585
156,9735.55142493151195259307475300192334,9734.0,1.55142493151195259307475300192334
157,9860.75271213039865257224127078399668,9859.2,1.55271213039865257224127078399668
158,9986.75399115567027681096294793363815,9985.2,1.55399115567027681096294793363815
159,10113.5552621106055213819806432701694,10112.0,1.5552621106055213819806432701694
160,10241.1565250965389317158135945606031,10239.6,1.5565250965389317158135945606031
161,10369.5577802129094206567886592143487,10368.0,1.5577802129094206567886592143487
162,10498.7590275573072828551087545048436,10497.2,1.5590275573072828551087545048436
163,10628.7602672255197603487766749613980,10627.2,1.5602672255197603487766749613980
164,10759.5614993115752139724992151189593,10758.0,1.5614993115752139724992151189593
165,10891.1627239077859491943299918655874,10889.6,1.5627239077859491943299918655874
166,11023.5639411047897468961903305536656,11022.0,1.5639411047897468961903305536656
167,11156.7651509915901463311525405160880,11155.2,1.5651509915901463311525405160880
168,11290.7663536555955229469758793839359,11289.2,1.5663536555955229469758793839359
169,11425.5675491826570061385727623185947,11424.0,1.5675491826570061385727623185947
170,11561.1687376571052766731238734940226,11559.6,1.5687376571052766731238734940226
171,11697.5699191617862839829158721567558,11696.0,1.5699191617862839829158721567558
172,11834.7710937780959211931880925695580,11833.2,1.5710937780959211931880925695580
173,11972.7722615860136932879594098955718,11971.2,1.5722615860136932879594098955718
174,12111.5734226641354142580054931398820,12110.0,1.5734226641354142580054931398820
175,12251.1745770897049672165876017917870,12249.6,1.5745770897049672165876017917870
176,12391.5757249386451571899705401855844,12390.0,1.5757249386451571899705401855844
177,12532.7768662855876898439655846515625,12531.2,1.5768662855876898439655846515625
178,12674.7780012039023053016087429672625,12673.2,1.5780012039023053016087429672625
179,12817.5791297657250934976499550150160,12816.0,1.5791297657250934976499550150160
180,12961.1802520419860220169980757212151,12959.6,1.5802520419860220169980757212151
181,13105.5813681024356990664690082979303,13104.0,1.5813681024356990664690082979303
182,13250.7824780156713992760017539956563,13249.2,1.5824780156713992760017539956563
183,13396.7835818491623753794120642281968,13395.2,1.5835818491623753794120642281968
184,13543.5846796692744800170324569442947,13542.0,1.5846796692744800170324569442947
185,13691.1857715412941194691953478263180,13689.6,1.5857715412941194691953478263180
186,13839.5868575294515602900239033736479,13838.0,1.5868575294515602900239033736479
187,13988.7879376969436126429013317300320,13987.2,1.5879376969436126429013317300320
188,14138.7890121059557057748164803819560,14137.2,1.5890121059557057748164803819560
189,14289.5900808176833793615834133030015,14288.0,1.5900808176833793615834133030015
190,14441.1911438923532063759351249114125,14439.6,1.5911438923532063759351249114125
191,14593.5922013892431667019884187736990,14592.0,1.5922013892431667019884187736990
192,14746.7932533667024878792482175436788,14745.2,1.5932533667024878792482175436788
193,14900.7942998821709712809855733178956,14899.2,1.5942998821709712809855733178956
194,15055.5953409921978170687791566921379,15054.0,1.5953409921978170687791566921379
195,15211.1963767524599658566107223107464,15209.6,1.5963767524599658566107223107464
196,15367.5974072177799707774652994464827,15366.0,1.5974072177799707774652994464827
197,15524.7984324421434143288361008165658,15523.2,1.5984324421434143288361008165658
198,15682.7994524787158841602117715229619,15681.2,1.5994524787158841602117715229619
199,15841.6004673798595206375272497669074,15840.0,1.6004673798595206375272497669074
200,16001.2014771971491501259278272049430,15999.6,1.6014771971491501259278272049430
201,16161.6024819813880149684404423544162,16160.0,1.6024819813880149684404423544162
202,16322.8034817826231135379103349213116,16321.2,1.6034817826231135379103349213116
203,16484.8044766501601610181510263778672,16483.2,1.6044766501601610181510263778672
204,16647.6054666325781825304733472325384,16646.0,1.6054666325781825304733472325384
205,16811.2064517777437485722297007090665,16809.6,1.6064517777437485722297007090665
206,16975.6074321328248657874331238600307,16974.0,1.6074321328248657874331238600307
207,17140.8084077443045289414626675447666,17139.2,1.6084077443045289414626675447666
208,17306.8093786579939483226822197456150,17305.2,1.6093786579939483226822197456150
209,17473.6103449190454583152523752718333,17472.0,1.6103449190454583152523752718333
210,17641.2113065719651186402206291634023,17639.6,1.6113065719651186402206291634023
211,17809.6122636606250156253658031857512,17808.0,1.6122636606250156253658031857512
212,17978.8132162282752737324732989875116,17977.2,1.6132162282752737324732989875116
213,18148.8141643175557817215215415361975,18147.2,1.6141643175557817215215415361975
214,18319.6151079705076484290866821155100,18318.0,1.6151079705076484290866821155100
215,18491.2160472285843873688570095492586,18489.6,1.6160472285843873688570095492586
216,18663.6169821326628441104111143397362,18662.0,1.6169821326628441104111143397362
217,18836.8179127230538703970356775305768,18835.2,1.6179127230538703970356775305768
218,19010.8188390395127539768103221673789,19009.2,1.6188390395127539768103221673789
219,19185.6197611212494074217143590544407,19184.0,1.6197611212494074217143590544407
220,19361.2206790069383284447404840541251,19359.6,1.6206790069383284447404840541251
221,19537.6215927347283296192127899255856,19536.0,1.6215927347283296192127899255856
222,19714.8225023422520546996215027655604,19713.2,1.6225023422520546996215027655604
223,19892.8234078666352751068016596403480,19891.2,1.6234078666352751068016596403480
224,20071.6243093445059816387957922750341,20070.0,1.6243093445059816387957922750341
225,20251.2252068120032739660363026788944,20249.6,1.6252068120032739660363026788944
226,20431.6261003047860514509273818156277,20430.0,1.6261003047860514509273818156277
227,20612.8269898580415139368660058846762,20611.2,1.6269898580415139368660058846762
228,20794.8278755064934743191470824315064,20793.2,1.6278755064934743191470824315064
229,20977.6287572844104900521959812349938,20976.0,1.6287572844104900521959812349938
230,21161.2296352256138182817179979194259,21159.6,1.6296352256138182817179979194259
231,21345.6305093634851963934408603503575,21344.0,1.6305093634851963934408603503575
232,21530.8313797309744583898342343778554,21529.2,1.6313797309744583898342343778554
233,21716.8322463606069820828323851332642,21715.2,1.6322463606069820828323851332642
234,21903.6331092844909832512123979014933,21902.0,1.6331092844909832512123979014933
235,22091.2339685343246499363750549127041,22089.6,1.6339685343246499363750549127041
236,22279.6348241414031265780117306482813,22278.0,1.6348241414031265780117306482813
237,22468.8356761366253516125646888477313,22467.2,1.6356761366253516125646888477313
238,22658.8365245505007502683422349124279,22657.2,1.6365245505007502683422349124279
