Eigenstate,Energy,Kinetic Energy,Potential Energy
1,0.500000000173772166277453400652328517,0.0,0.500000000173772166277453400652328517
2,1.84623093878541542181925017350212381,1.2,0.64623093878541542181925017350212381
3,3.93633761303692293064582929835139605,3.2,0.73633761303692293064582929835139605
4,6.79966528475439094009505280967892333,6.0,0.79966528475439094009505280967892333
5,10.4480465873076402690490980886492847,9.6,0.8480465873076402690490980886492847
6,14.8870660154735219292837927532397334,14.0,0.8870660154735219292837927532397334
7,20.1197208507007085614533353223467554,19.2,0.9197208507007085614533353223467554
8,26.1477838793717971959419477527919820,25.2,0.9477838793717971959419477527919820
9,32.9723836004964780208964446275261949,32.0,0.9723836004964780208964446275261949
10,40.5942802682256104977706714248925526,39.6,0.9942802682256104977706714248925526
11,49.0140094527019236552417717860406571,48.0,1.0140094527019236552417717860406571
12,58.2319622492314082320156211528673272,57.2,1.0319622492314082320156211528673272
13,68.2484327878810503208603903452155205,67.2,1.0484327878810503208603903452155205
14,79.0636477663350745518791690277983127,78.0,1.0636477663350745518791690277983127
15,90.6777855657091782611021967679060029,89.6,1.0777855657091782611021967679060029
16,103.090989055421007603538498066963019,102.0,1.090989055421007603538498066963019
17,116.303374426651682207909410439999543,115.2,1.103374426651682207909410439999543
18,130.315037443352008377694274890514745,129.2,1.115037443352008377694274890514745
19,145.126057965346466264015994727733286,144.0,1.126057965346466264015994727733286
20,160.736503285967153118848058230997092,159.6,1.136503285967153118848058230997092
21,177.146430638135485435037232904872051,176.0,1.146430638135485435037232904872051
22,194.355889105520942767678713954532359,193.2,1.155889105520942767678713954532359
23,212.364921100477595183163632076037051,211.2,1.164921100477595183163632076037051
24,231.173563521444527573348593507246357,230.0,1.173563521444527573348593507246357
25,250.781848669741767738850690881583175,249.6,1.181848669741767738850690881583175
26,271.189804983377875490645128256177345,270.0,1.189804983377875490645128256177345
27,292.397457630012519582875239729606090,291.2,1.197457630012519582875239729606090
28,314.404828990315518456775778018808098,313.2,1.204828990315518456775778018808098
29,337.211939055168792937572130903319836,336.0,1.211939055168792937572130903319836
30,360.818805754508191445300671415271523,359.6,1.218805754508191445300671415271523
31,385.225445231456209772136970705554077,384.0,1.225445231456209772136970705554077
32,410.431872072318727888119583239780847,409.2,1.231872072318727888119583239780847
33,436.438099500709238428669573094403711,435.2,1.238099500709238428669573094403711
34,463.244139542313495247940116681362712,462.0,1.244139542313495247940116681362712
35,490.850003165468315353946617707190216,489.6,1.250003165468315353946617707190216
36,519.255700401694788661091592482209504,518.0,1.255700401694788661091592482209504
37,548.461240449522065445831732118076127,547.2,1.261240449522065445831732118076127
38,578.466631764307472647062510890620123,577.2,1.266631764307472647062510890620123
39,609.271882136260861502484516969727210,608.0,1.271882136260861502484516969727210
40,640.876998758485268228054526005474718,639.6,1.276998758485268228054526005474718
41,673.281988286529219173421490145429268,672.0,1.281988286529219173421490145429268
42,706.486856890691019284362977323249515,705.2,1.286856890691019284362977323249515
43,740.491610302108876358020678823029517,739.2,1.291610302108876358020678823029517
44,775.296253853502619560989658868023416,774.0,1.296253853502619560989658868023416
45,810.900792515295201111127267249477343,809.6,1.300792515295201111127267249477343
46,847.305230927729033741199674890003746,846.0,1.305230927729033741199674890003746
47,884.509573429498739950027039129692041,883.2,1.309573429498739950027039129692041
48,922.513824083344302682438808620827417,921.2,1.313824083344302682438808620827417
49,961.317986698983944535370627171077547,960.0,1.317986698983944535370627171077547
50,1000.92206485371193987371264112660166,999.6,1.32206485371193987371264112660166
51,1041.32606191094109727699039983305260,1040.0,1.32606191094109727699039983305260
52,1082.52998103693130452361293715834825,1081.2,1.32998103693130452361293715834825
53,1124.53382521591307820083788910439896,1123.2,1.33382521591307820083788910439896
54,1167.33759726378749889711509999224143,1166.0,1.33759726378749889711509999224143
55,1210.94129984056043744093090580438141,1209.6,1.34129984056043744093090580438141
56,1255.34493546164890308012762301127460,1254.0,1.34493546164890308012762301127460
57,1300.54850650818014553053426920107868,1299.2,1.34850650818014553053426920107868
58,1346.55201523638934563643846360705896,1345.2,1.35201523638934563643846360705896
59,1393.35546378620897543813947415832279,1392.0,1.35546378620897543813947415832279
60,1440.95885418913188393410980773401723,1439.6,1.35885418913188393410980773401723
61,1489.36218837542060059777803781530123,1488.0,1.36218837542060059777803781530123
62,1538.56546818072704770382442929851291,1537.2,1.36546818072704770382442929851291
63,1588.56869535217961062985301460194364,1587.2,1.36869535217961062985301460194364
64,1639.37187155398820281937623933302237,1638.0,1.37187155398820281937623933302237
65,1690.97499837261242725207119717160410,1689.6,1.37499837261242725207119717160410
66,1743.37807732153308892820754830593422,1742.0,1.37807732153308892820754830593422
67,1796.58110984566305058281866475752641,1795.2,1.38110984566305058281866475752641
68,1850.58409732542966768437624932883342,1849.2,1.38409732542966768437624932883342
69,1905.38704108055772610199998780872171,1904.0,1.38704108055772610199998780872171
70,1960.98994237357887755696682063449579,1959.6,1.38994237357887755696682063449579
71,2017.39280241309096927055404107856087,2016.0,1.39280241309096927055404107856087
72,2074.59562235678836597786720861181874,2073.2,1.39562235678836597786720861181874
73,2132.59840331428230947090184403658256,2131.2,1.39840331428230947090184403658256
74,2191.40114634972854198553293427867933,2190.0,1.40114634972854198553293427867933
75,2251.00385248427778864602455225291439,2249.6,1.40385248427778864602455225291439
76,2311.40652269836324462389486806453914,2310.0,1.40652269836324462389486806453914
77,2372.60915793383791026955572611884185,2371.2,1.40915793383791026955572611884185
78,2434.61175909597345167696505134561754,2433.2,1.41175909597345167696505134561754
79,2497.41432705533121732153893694234226,2496.0,1.41432705533121732153893694234226
80,2561.01686264951510328592584804495358,2559.6,1.41686264951510328592584804495358
81,2625.41936668481511024677074939907651,2624.0,1.41936668481511024677074939907651
82,2690.62183993774967394504311009008549,2689.2,1.42183993774967394504311009008549
83,2756.62428315651416212871458681331138,2755.2,1.42428315651416212871458681331138
84,2823.42669706234230666485718409619803,2822.0,1.42669706234230666485718409619803
85,2891.02908235078678024206009518794992,2889.6,1.42908235078678024206009518794992
86,2959.43143969292461121867479220138923,2958.0,1.43143969292461121867479220138923
87,3028.63376973649267270160072382828194,3027.2,1.43376973649267270160072382828194
88,3098.63607310695805856258820415078416,3097.2,1.43607310695805856258820415078416
89,3169.43835040852777559687583964819169,3168.0,1.43835040852777559687583964819169
90,3241.04060222510183781225183199871608,3239.6,1.44060222510183781225183199871608
91,3313.44282912117352738458004242678461,3312.0,1.44282912117352738458004242678461
92,3386.64503164268029851829286153858727,3385.2,1.44503164268029851829286153858727
93,3460.64721031780853819530059786332330,3459.2,1.44721031780853819530059786332330
94,3535.44936565775515486702965576462095,3534.0,1.44936565775515486702965576462095
95,3611.05149815744874499027513131193407,3609.6,1.45149815744874499027513131193407
96,3687.45360829623288548543854776911575,3686.0,1.45360829623288548543854776911575
97,3764.65569653851391585361460144190862,3763.2,1.45569653851391585361460144190862
98,3842.65776333437540081469646620224086,3841.2,1.45776333437540081469646620224086
99,3921.45980912016131085648447489652788,3920.0,1.45980912016131085648447489652788
100,4001.06183431902981174436649441152603,3999.6,1.46183431902981174436649441152603
101,4081.46383934147942473698813906585481,4080.0,1.46383934147942473698813906585481
102,4162.66582458584919367861057209439753,4161.2,1.46582458584919367861057209439753
103,4244.66779043879438722524360251433162,4243.2,1.46779043879438722524360251433162
104,4327.46973727573915719693458400278480,4326.0,1.46973727573915719693458400278480
105,4411.07166546130748097483681580347528,4409.6,1.47166546130748097483681580347528
106,4495.47357534973362509744241215096920,4494.0,1.47357534973362509744241215096920
107,4580.67546728525328912840985591580698,4579.2,1.47546728525328912840985591580698
108,4666.67734160247650962886526112823261,4665.2,1.47734160247650962886526112823261
109,4753.47919862674333547352494039806249,4752.0,1.47919862674333547352494039806249
110,4841.08103867446322332986404007532249,4839.6,1.48103867446322332986404007532249
111,4929.48286205343903625836016815352162,4928.0,1.48286205343903625836016815352162
112,5018.68466906317647895821084325243714,5017.2,1.48466906317647895821084325243714
113,5108.68645999517974764713126564862581,5107.2,1.48645999517974764713126564862581
114,5199.48823513323412380608622285739109,5198.0,1.48823513323412380608622285739109
115,5291.08999475367620057131016677781798,5289.6,1.48999475367620057131016677781798
116,5383.49173912565238222432362692613583,5382.0,1.49173912565238222432362692613583
117,5476.69346851136626551765120123428535,5475.2,1.49346851136626551765120123428535
118,5570.69518316631547054284340885451036,5569.2,1.49518316631547054284340885451036
119,5665.49688333951845513369128662371044,5664.0,1.49688333951845513369128662371044
120,5761.09856927373182095529168717851461,5759.6,1.49856927373182095529168717851461
121,5857.50024120565858116237934288970518,5856.0,1.50024120565858116237934288970518
122,5954.70189936614784059721258936517576,5953.2,1.50189936614784059721258936517576
123,6052.70354398038630730437161523264808,6051.2,1.50354398038630730437161523264808
124,6151.50517526808203646002158410368842,6150.0,1.50517526808203646002158410368842
125,6251.10679344364077824693500155375596,6249.6,1.50679344364077824693500155375596
126,6351.50839871633528600927269715231566,6350.0,1.50839871633528600927269715231566
127,6452.70999129046792044323969213225497,6451.2,1.50999129046792044323969213225497
128,6554.71157136552686299254778550711591,6553.2,1.51157136552686299254778550711591
129,6657.51313913633623954438030896783742,6656.0,1.51313913633623954438030896783742
130,6761.11469479320043713969233908326732,6759.6,1.51469479320043713969233908326732
131,6865.51623852204288100756541998927686,6864.0,1.51623852204288100756541998927686
132,6970.71777050453952425613947882318691,6969.2,1.51777050453952425613947882318691
133,7076.71929091824729077106253511491991,7075.2,1.51929091824729077106253511491991
134,7183.52079993672770059644791636637657,7182.0,1.52079993672770059644791636637657
135,7291.12229772966588896498746878431734,7289.6,1.52229772966588896498746878431734
136,7399.52378446298522645634349693758317,7398.0,1.52378446298522645634349693758317
137,7508.72526029895773445500538446106348,7507.2,1.52526029895773445500538446106348
138,7618.72672539631047646680795939670463,7617.2,1.52672539631047646680795939670463
139,7729.52817991032810374740914632334003,7728.0,1.52817991032810374740914632334003
140,7841.12962399295171825006143112335209,7839.6,1.52962399295171825006143112335209
141,7953.53105779287421134252411972669030,7952.0,1.53105779287421134252411972669030
142,8066.73248145563222866970469948095024,8065.2,1.53248145563222866970469948095024
143,8180.73389512369490288845029650721480,8179.2,1.53389512369490288845029650721480
144,8295.53529893654948882128035128801777,8294.0,1.53529893654948882128035128801777
145,8411.13669303078403138809589394578655,8409.6,1.53669303078403138809589394578655
146,8527.53807754016718880615798430409987,8526.0,1.53807754016718880615798430409987
147,8644.73945259572532534566441545281209,8643.2,1.53945259572532534566441545281209
148,8762.74081832581698897022700408385631,8761.2,1.54081832581698897022700408385631
149,8881.54217485620487566348516439399001,8880.0,1.54217485620487566348516439399001
150,9001.14352231012538408301571048539885,8999.6,1.54352231012538408301571048539885
151,9121.54486080835585645608652769237933,9120.0,1.54486080835585645608652769237933
152,9242.74619046927959601671767487412568,9241.2,1.54619046927959601671767487412568
153,9364.74751140894874993404705108198874,9363.2,1.54751140894874993404705108198874
154,9487.54882374114514163154983391033774,9486.0,1.54882374114514163154983391033774
155,9611.15012757743913073341812720352591,9609.6,1.55012757743913073341812720352591
156,9735.55142302724657850478449607309305,9734.0,1.55142302724657850478449607309305
157,9860.75271019788398983271839421035450,9859.2,1.55271019788398983271839421035450
158,9986.75398919462190356643016281430886,9985.2,1.55398919462190356643016281430886
159,10113.5552601207365948898540822904021,10112.0,1.5552601207365948898540822904021
160,10241.1565230775601560644972209625048,10239.6,1.5565230775601560644972209625048
161,10369.5577781645290140390250945912639,10368.0,1.5577781645290140390250945912639
162,10498.7590254792309443870463194330031,10497.2,1.5590254792309443870463194330031
163,10628.7602651174506364267606907431199,10627.2,1.5602651174506364267606907431199
164,10759.5614971732138641594429845438941,10758.0,1.5614971732138641594429845438941
165,10891.1627217388303116273607670961484,10889.6,1.5627217388303116273607670961484
166,11023.5639389049351032071066894058878,11022.0,1.5639389049351032071066894058878
167,11156.7651487605290860710630856815463,11155.2,1.5651487605290860710630856815463
168,11290.7663513930179075063209833954724,11289.2,1.5663513930179075063209833954724
169,11425.5675468882499321535586129512641,11424.0,1.5675468882499321535586129512641
170,11561.1687353305530389094218729792713,11559.6,1.5687353305530389094218729792713
171,11697.5699168027703376873000073982343,11696.0,1.5699168027703376873000073982343
172,11834.7710913862948439035982342053077,11833.2,1.5710913862948439035982342053077
173,11972.7722591611031460922901765958902,11971.2,1.5722591611031460922901765958902
174,12111.5734202057881024917271990371528,12110.0,1.5734202057881024917271990371528
175,12251.1745745975906005891081276224041,12249.6,1.5745745975906005891081276224041
176,12391.5757224124304093294457122037593,12390.0,1.5757224124304093294457122037593
177,12532.7768637249361572500585193612997,12531.2,1.5768637249361572500585193612997
178,12674.7779986084744656954873715754109,12673.2,1.5779986084744656954873715754109
179,12817.5791271351782635582961778861830,12816.0,1.5791271351782635582961778861830
180,12961.1802493759743144926799339132665,12959.6,1.5802493759743144926799339132665
181,13105.5813654006099792500020647530762,13104.0,1.5813654006099792500020647530762
182,13250.7824752776792408321927867715861,13249.2,1.5824752776792408321927867715861
183,13396.7835790746480155128424672406371,13395.2,1.5835790746480155128424672406371
184,13543.5846768578787739680956173879724,13542.0,1.5846768578787739680956173879724
185,13691.1857686926544943260534387739105,13689.6,1.5857686926544943260534387739105
186,13839.5868546432019681038966872585430,13838.0,1.5868546432019681038966872585430
187,13988.7879347727144828338378597952716,13987.2,1.5879347727144828338378597952716
188,14138.7890091433738968148363311337598,14137.2,1.5890091433738968148363311337598
189,14289.5900778163721297217990995047769,14288.0,1.5900778163721297217990995047769
190,14441.1911408519320847239900796148083,14439.6,1.5911408519320847239900796148083
191,14593.5921983093280213358588075858208,14592.0,1.5921983093280213358588075858208
192,14746.7932502469053953831641236831451,14745.2,1.5932502469053953831641236831451
193,14900.7942967221001843889270481566662,14899.2,1.5942967221001843889270481566662
194,15055.5953377914577117206973358322365,15054.0,1.5953377914577117206973358322365
195,15211.1963735106509874322083995788897,15209.6,1.5963735106509874322083995788897
196,15367.5974039344985794920511765879798,15366.0,1.5974039344985794920511765879798
197,15524.7984291169820297754361263221297,15523.2,1.5984291169820297754361263221297
198,15682.7994491112628289817844739788966,15681.2,1.5994491112628289817844739788966
199,15841.6004639696989633127838096348032,15840.0,1.6004639696989633127838096348032
200,16001.2014737438610468519033593438730,15999.6,1.6014737438610468519033593438730
201,16161.6024784845480506226009943907438,16160.0,1.6024784845480506226009943907438
202,16322.8034782418026417022070029910422,16321.2,1.6034782418026417022070029910422
203,16484.8044730649261430470536447341209,16483.2,1.6044730649261430470536447341209
204,16647.6054630024931256446232766413166,16646.0,1.6054630024931256446232766413166
205,16811.2064481023656429589547838984442,16809.6,1.6064481023656429589547838984442
206,16975.6074284117071206889551396985239,16974.0,1.6074284117071206889551396985239
207,17140.8084039769959077112091802012785,17139.2,1.6084039769959077112091802012785
208,17306.8093748440385024296832871801360,17305.2,1.6093748440385024296832871801360
209,17473.6103410579824602761627948831268,17472.0,1.6103410579824602761627948831268
210,17641.2113026633289938580542940739882,17639.6,1.6113026633289938580542940739882
211,17809.6122597039452731135666375325702,17808.0,1.6122597039452731135666375325702
212,17978.8132122230764357024706370326185,17977.2,1.6132122230764357024706370326185
213,18148.8141602633573120114311562227933,18147.2,1.6141602633573120114311562227933
214,18319.6151038668238797507189293872513,18318.0,1.6151038668238797507189293872513
215,18491.2160430749244473496807408857110,18489.6,1.6160430749244473496807408857110
216,18663.6169779285305801065964008943423,18662.0,1.6169779285305801065964008943423
217,18836.8179084679477730531599670161380,18835.2,1.6179084679477730531599670161380
218,19010.8188347329258795072592986270559,19009.2,1.6188347329258795072592986270559
219,19185.6197567626692985882416438846289,19184.0,1.6197567626692985882416438846289
220,19361.2206745958469342040698682412650,19359.6,1.6206745958469342040698682412650
221,19537.6215882706019234139674162708070,19536.0,1.6215882706019234139674162708070
222,19714.8224978245611513652554563547582,19713.2,1.6224978245611513652554563547582
223,19892.8234032948445463665782269320937,19891.2,1.6234032948445463665782269320937
224,20071.6243047180741701582148283696531,20070.0,1.6243047180741701582148283696531
225,20251.2252021303831059374489082106834,20249.6,1.6252021303831059374489082106834
226,20431.6260955674241476783998076948743,20430.0,1.6260955674241476783998076948743
227,20612.8269850643782993906561052193823,20611.2,1.6269850643782993906561052193823
228,20794.8278706559630861284434550569347,20793.2,1.6278706559630861284434550569347
229,20977.6287523764406839040335841239772,20976.0,1.6287523764406839040335841239772
230,21161.2296302596258731932323477765649,21159.6,1.6296302596258731932323477765649
231,21345.6305043388938178238486086436656,21344.0,1.6305043388938178238486086436656
232,21530.8313746471876796577331558531674,21529.2,1.6313746471876796577331558531674
233,21716.8322412170260640535986699774786,21715.2,1.6322412170260640535986699774786
234,21903.6331040805103122584358365062014,21902.0,1.6331040805103122584358365062014
235,22091.2339632693316339004117891116467,22089.6,1.6339632693316339004117891116467
236,22279.6348188147780892838502823586855,22278.0,1.6348188147780892838502823586855
237,22468.8356707477414251082962264696448,22467.2,1.6356707477414251082962264696448
238,22658.8365190987237653445896115814385,22657.2,1.6365190987237653445896115814385
