Eigenstate,Energy,Kinetic Energy,Potential Energy
1,0.500000000815354533568156860529191396,0.0,0.500000000815354533568156860529191396
2,1.84623094297345681694667242956664473,1.2,0.64623094297345681694667242956664473
3,3.93633762533953155364370999709304194,3.2,0.73633762533953155364370999709304194
4,6.79966531038096079558900311431662680,6.0,0.79966531038096079558900311431662680
5,10.4480466317017255822484220209047554,9.6,0.8480466317017255822484220209047554
6,14.8870660841762431033425399939187962,14.0,0.8870660841762431033425399939187962
7,20.1197209493007977162802640239408236,19.2,0.9197209493007977162802640239408236
8,26.1477840134851112426464834479243498,25.2,0.9477840134851112426464834479243498
9,32.9723837757567907738306516653821417,32.0,0.9723837757567907738306516653821417
10,40.5942804902802333770176481270895607,39.6,0.9942804902802333770176481270895607
11,49.0140097272096003842557218865444700,48.0,1.0140097272096003842557218865444700
12,58.2319625818613692673601680630830001,57.2,1.0319625818613692673601680630830001
13,68.2484331843126996063081311359015671,67.2,1.0484331843126996063081311359015671
14,79.0636482322580411596394181864949267,78.0,1.0636482322580411596394181864949267
15,90.6777861068235891656457492835593236,89.6,1.0777861068235891656457492835593236
16,103.090989677437900380807506639028681,102.0,1.090989677437900380807506639028681
17,116.303375135293509790834017180155345,115.2,1.103375135293509790834017180155345
18,130.315038244353206597770375368556563,129.2,1.115038244353206597770375368556563
19,145.126058864454065706928053359601041,144.0,1.126058864454065706928053359601041
20,160.736504288941423315593174484719471,159.6,1.136504288941423315593174484719471
21,177.146431750750603438420049455806292,176.0,1.146431750750603438420049455806292
22,194.355890333565680733693044811025999,193.2,1.155890333565680733693044811025999
23,212.364922449756023257395872084137127,211.2,1.164922449756023257395872084137127
24,231.173564997776729506835508355968269,230.0,1.173564997776729506835508355968269
25,250.781850278964567425586843176239011,249.6,1.181850278964567425586843176239011
26,271.189806731345573153198094036741428,270.0,1.189806731345573153198094036741428
27,292.397459522597636710866279254660486,291.2,1.197459522597636710866279254660486
28,314.404831033409550875216057874575335,313.2,1.204831033409550875216057874575335
29,337.211941254682971580945923222784384,336.0,1.211941254682971580945923222784384
30,360.818808116374250560716845412577719,359.6,1.218808116374250560716845412577719
31,385.225447761627162385668860675356006,384.0,1.225447761627162385668860675356006
32,410.431874776769648452845177306960591,409.2,1.231874776769648452845177306960591
33,436.438102385438052638057682302519705,435.2,1.238102385438052638057682302519705
34,463.244142613341777049163746020171451,462.0,1.244142613341777049163746020171451
35,490.850006428842091236071308843753227,489.6,1.250006428842091236071308843753227
36,519.255703863485349325512331371806527,518.0,1.255703863485349325512331371806527
37,548.461244115826784992748839401651299,547.2,1.261244115826784992748839401651299
38,578.466635641250635433618123226995147,577.2,1.266635641250635433618123226995147
39,609.271886229994496846497090969720160,608.0,1.271886229994496846497090969720160
40,640.877003075189993146893114223319699,639.6,1.277003075189993146893114223319699
41,673.281992832415089361065859605213640,672.0,1.281992832415089361065859605213640
42,706.486861671998388541572189134949940,705.2,1.286861671998388541572189134949940
43,740.491615325109264701143471571443539,739.2,1.291615325109264701143471571443539
44,775.296259124499590244577920881846665,774.0,1.296259124499590244577920881846665
45,810.900798040625246808383246640948854,809.6,1.300798040625246808383246640948854
46,847.305236713762472134573176694542381,846.0,1.305236713762472134573176694542381
47,884.509579482640618992121173431959206,883.2,1.309579482640618992121173431959206
48,922.513830410035315794895177264887919,921.2,1.313830410035315794895177264887919
49,961.317993305701356020678958237132120,960.0,1.317993305701356020678958237132120
50,1000.92207174697052082199749783621011,999.6,1.32207174697052082199749783621011
51,1041.32606909729407225683498058243163,1040.0,1.32606909729407225683498058243163
52,1082.52998852297130935293269551210454,1081.2,1.32998852297130935293269551210454
53,1124.53383300827312910075931101220794,1123.2,1.33383300827312910075931101220794
54,1167.33760536914197333878676601553102,1166.0,1.33760536914197333878676601553102
55,1210.94130826562606700221846057975058,1209.6,1.34130826562606700221846057975058
56,1255.34494421318577863625488458986228,1254.0,1.34494421318577863625488458986228
57,1300.54851559299273510994713643839015,1299.2,1.34851559299273510994713643839015
58,1346.55202466132752528051347477235551,1345.2,1.35202466132752528051347477235551
59,1393.35547355816907341084322557607730,1392.0,1.35547355816907341084322557607730
60,1440.95886431505773863536518654089735,1439.6,1.35886431505773863536518654089735
61,1489.36219886230463254211827588643333,1488.0,1.36219886230463254211827588643333
62,1538.56547903561134593393137722317212,1537.2,1.36547903561134593393137722317212
63,1588.56870658215703394279396898177967,1587.2,1.36870658215703394279396898177967
64,1639.37188316620349619178733453700467,1638.0,1.37188316620349619178733453700467
65,1690.97501037426335385920031281208163,1689.6,1.37501037426335385920031281208163
66,1743.37808971987157816062790789897235,1742.0,1.37808971987157816062790789897235
67,1796.58112264799636247377899624386851,1795.2,1.38112264799636247377899624386851
68,1850.58411053912157417016472021633319,1849.2,1.38411053912157417016472021633319
69,1905.38705471302970954738975114620840,1904.0,1.38705471302970954738975114620840
70,1960.98995643231134698777638920600302,1959.6,1.38995643231134698777638920600302
71,2017.39281690562449476562635850221022,2016.0,1.39281690562449476562635850221022
72,2074.59563729072493168333813340136451,2073.2,1.39563729072493168333813340136451
73,2132.59841869728658571052256775022084,2131.2,1.39841869728658571052256775022084
74,2191.40116218952917695202596221295427,2190.0,1.40116218952917695202596221295427
75,2251.00386878866872017001418425661091,2249.6,1.40386878866872017001418425661091
76,2311.40653947520503252886351844947239,2310.0,1.40653947520503252886351844947239
77,2372.60917519105908983355705042780518,2371.2,1.40917519105908983355705042780518
78,2434.61177684157190873448017200151118,2433.2,1.41177684157190873448017200151118
79,2497.41434529737558555191032249422067,2496.0,1.41434529737558555191032249422067
80,2561.01688139614618424825296227356502,2559.6,1.41688139614618424825296227356502
81,2625.41938594424731673502661618793524,2624.0,1.41938594424731673502661618793524
82,2690.62185971827249725147276404357720,2689.2,1.42185971827249725147276404357720
83,2756.62430346649366381832986542323330,2755.2,1.42430346649366381832986542323330
84,2823.42671791022263547905884334090373,2822.0,1.42671791022263547905884334090373
85,2891.02910374509171476511552165974664,2889.6,1.42910374509171476511552165974664
86,2959.43146164225912895696879008531362,2958.0,1.43146164225912895696879008531362
87,3028.63379224954454624228727953371791,3027.2,1.43379224954454624228727953371791
88,3098.63609619249947949550664163597625,3097.2,1.43609619249947949550664163597625
89,3169.43837407541700690138156794310629,3168.0,1.43837407541700690138156794310629
90,3241.04062648228489542896881327560035,3239.6,1.44062648228489542896881327560035
91,3313.44285397768589171102831655376651,3312.0,1.44285397768589171102831655376651
92,3386.64505710764865658690132445348004,3385.2,1.44505710764865658690132445348004
93,3460.64723640045255731249790939753401,3459.2,1.44723640045255731249790939753401
94,3535.44939236738928851295103602968928,3534.0,1.44939236738928851295103602968928
95,3611.05152550348407180014049491877320,3609.6,1.45152550348407180014049491877320
96,3687.45363628817898215587059877322946,3686.0,1.45363628817898215587059877322946
97,3764.65572518598076484012166764409235,3763.2,1.45572518598076484012166764409235
98,3842.65779264707533371023266075098407,3841.2,1.45779264707533371023266075098407
99,3921.45983910791098836548299892069606,3920.0,1.45983910791098836548299892069606
100,4001.06186499175224119192860385531684,3999.6,1.46186499175224119192860385531684
101,4081.46387070920601607903269924623262,4080.0,1.46387070920601607903269924623262
102,4162.66585665872185500578209090241302,4161.2,1.46585665872185500578209090241302
103,4244.66782322706766078126872791196864,4243.2,1.46782322706766078126872791196864
104,4327.46977078978239696094883271895071,4326.0,1.46977078978239696094883271895071
105,4411.07169971160707288699220504276783,4409.6,1.47169971160707288699220504276783
106,4495.47361034689525103791116951686355,4494.0,1.47361034689525103791116951686355
107,4580.67550304000423579174098303425160,4579.2,1.47550304000423579174098303425160
108,4666.67737812566802346857270743735759,4665.2,1.47737812566802346857270743735759
109,4753.47923592935302492583799795803428,4752.0,1.47923592935302492583799795803428
110,4841.08107676759750956077697664181115,4839.6,1.48107676759750956077697664181115
111,4929.48290094833565371454384653626307,4928.0,1.48290094833565371454384653626307
112,5018.68470877120702704002428796592993,5017.2,1.48470877120702704002428796592993
113,5108.68650052785229486095582779419197,5107.2,1.48650052785229486095582779419197
114,5199.48827650219586579354058096514637,5198.0,1.48827650219586579354058096514637
115,5291.09003697071617345465296323712022,5289.6,1.49003697071617345465296323712022
116,5383.49178220270423275055291106663355,5382.0,1.49178220270423275055291106663355
117,5476.69351246051107952854408471247595,5475.2,1.49351246051107952854408471247595
118,5570.69522799978466134448560209336075,5569.2,1.49522799978466134448560209336075
119,5665.49692906969671338699597977792647,5664.0,1.49692906969671338699597977792647
120,5761.09861591316012775866920317079701,5759.6,1.49861591316012775866920317079701
121,5857.50028876703728604915215313494453,5856.0,1.50028876703728604915215313494453
122,5954.70194786233980622365794837301813,5953.2,1.50194786233980622365794837301813
123,6052.70359342442012265947789092688071,6051.2,1.50359342442012265947789092688071
124,6151.50522567315530048525045981796703,6150.0,1.50522567315530048525045981796703
125,6251.10684482312345581357233207405587,6249.6,1.50684482312345581357233207405587
126,6351.50845108377313826240713062676152,6350.0,1.50845108377313826240713062676152
127,6452.71004465958601158512012205943222,6451.2,1.51004465958601158512012205943222
128,6554.71162575023314564413311973431546,6553.2,1.51162575023314564413311973431546
129,6657.51319455072522089240564462821369,6656.0,1.51319455072522089240564462821369
130,6761.11475125155692814763403705986193,6759.6,1.51475125155692814763403705986193
131,6865.51629603884583104260561116287742,6864.0,1.51629603884583104260561116287742
132,6970.71782909446594356071371909970391,6969.2,1.51782909446594356071371909970391
133,7076.71935059617626328694385748478297,7075.2,1.51935059617626328694385748478297
134,7183.52086071774448973170404086886986,7182.0,1.52086071774448973170404086886986
135,7291.12235962906613897966019281215473,7289.6,1.52235962906613897966019281215473
136,7399.52384749627926223149031688608986,7398.0,1.52384749627926223149031688608986
137,7508.72532448187496250194593546687899,7507.2,1.52532448187496250194593546687899
138,7618.72679074480389012918464023702405,7617.2,1.52679074480389012918464023702405
139,7729.52824644057889564814961187045966,7728.0,1.52824644057889564814961187045966
140,7841.12969172137400313869999223873296,7839.6,1.52969172137400313869999223873296
141,7953.53112673611986260574412187146686,7952.0,1.53112673611986260574412187146686
142,8066.73255163059583187962098488870990,8065.2,1.53255163059583187962098488870990
143,8180.73396654751882987920850517919842,8179.2,1.53396654751882987920850517919842
144,8295.53537162662909590523515566199440,8294.0,1.53537162662909590523515566199440
145,8411.13676700477298544833853226733105,8409.6,1.53676700477298544833853226733105
146,8527.53815281598292513271845503717269,8526.0,1.53815281598292513271845503717269
147,8644.73952919155464121853257143185203,8643.2,1.53952919155464121853257143185203
148,8762.74089626012177713368039777477094,8761.2,1.54089626012177713368039777477094
149,8881.54225414772800198332068587612626,8880.0,1.54225414772800198332068587612626
150,9001.14360297789671383141116787393291,8999.6,1.54360297789671383141116787393291
151,9121.54494287169843382828648380558225,9120.0,1.54494287169843382828648380558225
152,9242.74627394781598164979395060427987,9241.2,1.54627394781598164979395060427987
153,9364.74759632260752137096420272458489,9363.2,1.54759632260752137096420272458489
154,9487.54891011016756185400120237707562,9486.0,1.54891011016756185400120237707562
155,9611.15021542238599007470885771217339,9609.6,1.55021542238599007470885771217339
156,9735.55151236900521544981433738895996,9734.0,1.55151236900521544981433738895996
157,9860.75280105767549641620961489102042,9859.2,1.55280105767549641620961489102042
158,9986.75408159400852129339770744756561,9985.2,1.55408159400852129339770744756561
159,10113.5553540816293073242948718497347,10112.0,1.5553540816293073242948718497347
160,10241.1566186222264844638924358920578,10239.6,1.5566186222264844638924358920578
161,10369.5578753156010226539198645112535,10368.0,1.5578753156010226539198645112535
162,10498.7591242597134622972321396290810,10497.2,1.5591242597134622972321396290810
163,10628.7603655507297030489241734707886,10627.2,1.5603655507297030489241734707886
164,10759.5615992830654058361684077173773,10758.0,1.5615992830654058361684077173773
165,10891.1628255494290569945995203628391,10889.6,1.5628255494290569945995203628391
166,11023.5640444408637453373279575450692,11022.0,1.5640444408637453373279575450692
167,11156.7652560467876997029121716215317,11155.2,1.5652560467876997029121716215317
168,11290.7664604550336299994056824338732,11289.2,1.5664604550336299994056824338732
169,11425.5676577518869171497124017457821,11424.0,1.5676577518869171497124017457821
170,11561.1688480221226920402245266661968,11559.6,1.5688480221226920402245266661968
171,11697.5700313490418440425755341681862,11696.0,1.5700313490418440425755341681862
172,11834.7712078145059973679270558036893,11833.2,1.5712078145059973679270558036893
173,11972.7723774989714910671804382756614,11971.2,1.5723774989714910671804382756614
174,12111.5735404815223989509665878808615,12110.0,1.5735404815223989509665878808615
175,12251.1746968399026238649733831473926,12249.6,1.5746968399026238649733831473926
176,12391.5758466505470964989707845924918,12390.0,1.5758466505470964989707845924918
177,12532.7769899886121124846159356423267,12531.2,1.5769899886121124846159356423267
178,12674.7781269280048374547417749309601,12673.2,1.5781269280048374547417749309601
179,12817.5792575414120070524320664151731,12816.0,1.5792575414120070524320664151731
180,12961.1803819003278534060573632516287,12959.6,1.5803819003278534060573632516287
181,13105.5815000750812813165545890765618,13104.0,1.5815000750812813165545890765618
182,13250.7826121348623224794262471817040,13249.2,1.5826121348623224794262471817040
183,13396.7837181477478914489635564746424,13395.2,1.5837181477478914489635564746424
184,13543.5848181807268682772623691572672,13542.0,1.5848181807268682772623691572672
185,13691.1859122997245303619207369760520,13689.6,1.5859122997245303619207369760520
186,13839.5870005696263552334558616902498,13838.0,1.5870005696263552334558616902498
187,13988.7880830543012188841784695347063,13987.2,1.5880830543012188841784695347063
188,14138.7891598166240059170999919477660,14137.2,1.5891598166240059170999919477660
189,14289.5902309184976561316425334817429,14288.0,1.5902309184976561316425334817429
190,14441.1912964208746641289009634555005,14439.6,1.5912964208746641289009634555005
191,14593.5923563837780521393353106548881,14592.0,1.5923563837780521393353106548881
192,14746.7934108663218334870162995801448,14745.2,1.5934108663218334870162995801448
193,14900.7944599267309860808652804429128,14899.2,1.5944599267309860808652804429128
194,15055.5955036223609504181928132596896,15054.0,1.5955036223609504181928132596896
195,15211.1965420097166712389101050430933,15209.6,1.5965420097166712389101050430933
196,15367.5975751444711977935547537346684,15366.0,1.5975751444711977935547537346684
197,15524.7986030814838584409272576940461,15523.2,1.5986030814838584409272576940461
198,15682.7996258748180251513276075463064,15681.2,1.5996258748180251513276075463064
199,15841.6006435777584822413966656945027,15840.0,1.6006435777584822413966656945027
200,16001.2016562428284148559090946020863,15999.6,1.6016562428284148559090946020863
201,16161.6026639218060298364169647951769,16160.0,1.6026639218060298364169647951769
202,16322.8036666657408241102864118879695,16321.2,1.6036666657408241102864118879695
203,16484.8046645249695131121706722347806,16483.2,1.6046645249695131121706722347806
204,16647.6056575491316328166463748494633,16646.0,1.6056575491316328166463748494633
205,16811.2066457871848274244865918851590,16809.6,1.6066457871848274244865918851590
206,16975.6076292874198379193258798497862,16974.0,1.6076292874198379193258798497862
207,17140.8086080974751996921866183750033,17139.2,1.6086080974751996921866183750033
208,17306.8095822643516659195701948825910,17305.2,1.6095822643516659195701948825910
209,17473.6105518344263650489174485596760,17472.0,1.6105518344263650489174485596760
210,17641.2115168534667066545934129776292,17639.6,1.6115168534667066545934129776292
211,17809.6124773666440459582837931670447,17808.0,1.6124773666440459582837931670447
212,17978.8134334185471203546305999557855,17977.2,1.6134334185471203546305999557855
213,18148.8143850531952656250200631754313,18147.2,1.6143850531952656250200631754313
214,18319.6153323140514303248063363723280,18318.0,1.6153323140514303248063363723280
215,18491.2162752440349912789082378244817,18489.6,1.6162752440349912789082378244817
216,18663.6172138855343881035965328364449,18662.0,1.6172138855343881035965328364449
217,18836.8181482804195849283372276798478,18835.2,1.6181482804195849283372276798478
218,19010.8190784700543727746513890700861,19009.2,1.6190784700543727746513890700861
219,19185.6200044953085206388033368396737,19184.0,1.6200044953085206388033368396737
220,19361.2209263965697928708682217884449,19359.6,1.6209263965697928708682217884449
221,19537.6218442137558361706475511995166,19536.0,1.6218442137558361706475511995166
222,19714.8227579863259591745346413385713,19713.2,1.6227579863259591745346413385713
223,19892.8236677532928043566200264985234,19891.2,1.6236677532928043566200264985234
224,20071.6245735532339338808650206497344,20070.0,1.6245735532339338808650206497344
225,20251.2254754243033389853431047750652,20249.6,1.6254754243033389853431047750652
226,20431.6263734042428839425729928823134,20430.0,1.6263734042428839425729928823134
227,20612.8272675303937012640722808854946,20611.2,1.6272675303937012640722808854946
228,20794.8281578397075485449140029048729,20793.2,1.6281578397075485449140029048729
229,20977.6290443687581432908461607889430,20976.0,1.6290443687581432908461607889430
230,21161.2299271537524902581172123670038,21159.6,1.6299271537524902581172123670038
231,21345.6308062305422136457167156826483,21344.0,1.6308062305422136457167156826483
232,21530.8316816346349158638003149386463,21529.2,1.6316816346349158638003149386463
233,21716.8325534012055700062628513540857,21715.2,1.6325534012055700062628513540857
234,21903.6334215651079752127522996830036,21902.0,1.6334215651079752127522996830036
235,22091.2342861608862821028156832407462,22089.6,1.6342861608862821028156832407462
236,22279.6351472227866130477006433334112,22278.0,1.6351472227866130477006433334112
237,22468.8360047847687971126294245336670,22467.2,1.6360047847687971126294245336670
238,22658.8368588805182388587473425126454,22657.2,1.6368588805182388587473425126454
