Eigenstate,Energy,Kinetic Energy,Potential Energy
1,0.500000000860747303105452689251133803,0.0,0.500000000860747303105452689251133803
2,1.84623094326977071715274964999304655,1.2,0.64623094326977071715274964999304655
3,3.93633762620999156226516622993448769,3.2,0.73633762620999156226516622993448769
4,6.79966531219420608132032106830806575,6.0,0.79966531219420608132032106830806575
5,10.4480466348430270742450672373900191,9.6,0.8480466348430270742450672373900191
6,14.8870660890378615930058509764527040,14.0,0.8870660890378615930058509764527040
7,20.1197209562784718844045862492050026,19.2,0.9197209562784718844045862492050026
8,26.1477840229766306282515229198499034,25.2,0.9477840229766306282515229198499034
9,32.9723837881613668355243076586784314,32.0,0.9723837881613668355243076586784314
10,40.5942805059982122798662200371882875,39.6,0.9942805059982122798662200371882875
11,49.0140097466423367822595842614440322,48.0,1.0140097466423367822595842614440322
12,58.2319626054111822575877960479797375,57.2,1.0319626054111822575877960479797375
13,68.2484332123828735519844777312627251,67.2,1.0484332123828735519844777312627251
14,79.0636482652528524730987318719513117,78.0,1.0636482652528524730987318719513117
15,90.6777861451483488930607011578478746,89.6,1.0777861451483488930607011578478746
16,103.090989721499006856154090604778363,102.0,1.090989721499006856154090604778363
17,116.303375185498507985483594233812433,115.2,1.103375185498507985483594233812433
18,130.315038301110852108192238422682365,129.2,1.115038301110852108192238422682365
19,145.126058928174392087168104414896468,144.0,1.126058928174392087168104414896468
20,160.736504360035811920807939109177073,159.6,1.136504360035811920807939109177073
21,177.146431829631855230955094889371034,176.0,1.146431829631855230955094889371034
22,194.355890420648089685199962508608382,193.2,1.155890420648089685199962508608382
23,212.364922545455451099594018924696787,211.2,1.164922545455451099594018924696787
24,231.173565102510681663284438056951085,230.0,1.173565102510681663284438056951085
25,250.781850393152270011378951684860413,249.6,1.181850393152270011378951684860413
26,271.189806855408050967514140890939563,270.0,1.189806855408050967514140890939563
27,292.397459656957792174345800036200227,291.2,1.197459656957792174345800036200227
28,314.404831178492243883610712521700625,313.2,1.204831178492243883610712521700625
29,337.211941410915100260863398661675690,336.0,1.211941410915100260863398661675690
30,360.818808284184832923973177374086603,359.6,1.218808284184832923973177374086603
31,385.225447941447418886898095524768118,384.0,1.225447941447418886898095524768118
32,410.431874969033085461291103025560792,409.2,1.231874969033085461291103025560792
33,436.438102590580546839399270228597109,435.2,1.238102590580546839399270228597109
34,463.244142831801660797162040570334013,462.0,1.244142831801660797162040570334013
35,490.850006661060238877028274578152324,489.6,1.250006661060238877028274578152324
36,519.255704109905264521187885352894343,518.0,1.255704109905264521187885352894343
37,548.461244376894689069627763204897793,547.2,1.261244376894689069627763204897793
38,578.466635917415556788355708116997866,577.2,1.266635917415556788355708116997866
39,609.271886521708361439076457509832960,608.0,1.271886521708361439076457509832960
40,640.877003382907716114556030220506421,639.6,1.277003382907716114556030220506421
41,673.281993156594667787476589918555085,672.0,1.281993156594667787476589918555085
42,706.486862013100995416973388014013062,705.2,1.286862013100995416973388014013062
43,740.491615683599344110491908545939154,739.2,1.291615683599344110491908545939154
44,775.296259500844953821825068517663441,774.0,1.296259500844953821825068517663441
45,810.900798435297171496208901022186578,809.6,1.300798435297171496208901022186578
46,847.305237127235799290002105721666373,846.0,1.305237127235799290002105721666373
47,884.509579915393854879562819257994941,883.2,1.309579915393854879562819257994941
48,922.513830862550733509256495574108372,921.2,1.313830862550733509256495574108372
49,961.317993778465098884311762164883816,960.0,1.317993778465098884311762164883816
50,1000.92207224047270730036788965222234,999.6,1.32207224047270730036788965222234
51,1041.32606961202890243894140695638471,1040.0,1.32606961202890243894140695638471
52,1082.52998905943717304366018423762446,1081.2,1.32998905943717304366018423762446
53,1124.53383356697271557354264941674432,1123.2,1.33383356697271557354264941674432
54,1167.33760595058238279816596417509059,1166.0,1.33760595058238279816596417509059
55,1210.94130887031892380711471103536538,1209.6,1.34130887031892380711471103536538
56,1255.34494484164734633606936985553802,1254.0,1.34494484164734633606936985553802
57,1300.54851624574403334689822160325923,1299.2,1.34851624574403334689822160325923
58,1346.55202533889444861297755541294380,1345.2,1.35202533889444861297755541294380
59,1393.35547426108251211385540046032159,1392.0,1.35547426108251211385540046032159
60,1440.95886504385370153586986254725317,1439.6,1.35886504385370153586986254725317
61,1489.36219961752437194803901154183774,1488.0,1.36219961752437194803901154183774
62,1538.56547981780148471765454111350901,1537.2,1.36547981780148471765454111350901
63,1588.56870739186969484123692686536002,1587.2,1.36870739186969484123692686536002
64,1639.37188400399643338684874466040822,1638.0,1.37188400399643338684874466040822
65,1690.97501124070008690407016669486174,1689.6,1.37501124070008690407016669486174
66,1743.37809061552152831917240362389614,1742.0,1.37809061552152831917240362389614
67,1796.58112357343499154200825878681332,1795.2,1.38112357343499154200825878681332
68,1850.58411149493052585064861283429085,1849.2,1.38411149493052585064861283429085
69,1905.38705569979695344940235692404028,1904.0,1.38705569979695344940235692404028
70,1960.98995745063132532793360039232747,1959.6,1.38995745063132532793360039232747
71,2017.39281795609827184583167090987683,2016.0,1.39281795609827184583167090987683
72,2074.59563837396034622497124197520527,2073.2,1.39563837396034622497124197520527
73,2132.59841981389840612599973145053416,2131.2,1.39841981389840612599973145053416
74,2191.40116334013925963712856953462859,2190.0,1.40116334013925963712856953462859
75,2251.00386997390617090273106558300698,2249.6,1.40386997390617090273106558300698
76,2311.40654069570637106291949294468405,2310.0,1.40654069570637106291949294468405
77,2372.60917644746841777731410886197721,2371.2,1.40917644746841777731410886197721
78,2434.61177813454108080849784930383651,2433.2,1.41177813454108080849784930383651
79,2497.41434662756438432114373223238810,2496.0,1.41434662756438432114373223238810
80,2561.01688276422249842765244855583512,2559.6,1.41688276422249842765244855583512
81,2625.41938735088732317018717290866653,2624.0,1.41938735088732317018717290866653
82,2690.62186116416084667896601519367577,2689.2,1.42186116416084667896601519367577
83,2756.62430495232367051344501266346050,2755.2,1.42430495232367051344501266346050
84,2823.42671943669647090187435724767724,2822.0,1.42671943669647090187435724767724
85,2891.02910531292060531914472128756974,2889.6,1.42910531292060531914472128756974
86,2959.43146325216355797804938614667711,2958.0,1.43146325216355797804938614667711
87,3028.63379390225446033894388636465090,3027.2,1.43379390225446033894388636465090
88,3098.63609788875449936569747405304996,3097.2,1.43609788875449936569747405304996
89,3169.43837581596664275435572812077472,3168.0,1.43837581596664275435572812077472
90,3241.04062826788876714491563093904953,3239.6,1.44062826788876714491563093904953
91,3313.44285580911395387529630092535531,3312.0,1.44285580911395387529630092535531
92,3386.64505898568142853981071295260984,3385.2,1.44505898568142853981071295260984
93,3460.64723832588135836017037878036030,3459.2,1.44723832588135836017037878036030
94,3535.44939434101647844914436391972571,3534.0,1.44939434101647844914436391972571
95,3611.05152752612329689380351657769462,3609.6,1.45152752612329689380351657769462
96,3687.45363836065542676403909949218335,3686.0,1.45363836065542676403909949218335
97,3764.65572730913140881085917336857281,3763.2,1.45572730913140881085917336857281
98,3842.65779482174921574559669050748576,3841.2,1.45779482174921574559669050748576
99,3921.45984133496947551996681504866530,3920.0,1.45984133496947551996681504866530
100,4001.06186727206930468750264461433268,3999.6,1.46186727206930468750264461433268
101,4081.46387304366851362380034570554381,4080.0,1.46387304366851362380034570554381
102,4162.66585904822981980937300447605160,4161.2,1.46585904822981980937300447605160
103,4244.66782567253459746643441165372244,4243.2,1.46782567253459746643441165372244
104,4327.46977329213558457740742280474185,4326.0,1.46977329213558457740742280474185
105,4411.07170227178787524040302479330685,4409.6,1.47170227178787524040302479330685
106,4495.47361296585943455395287027801400,4494.0,1.47361296585943455395287027801400
107,4580.67550571872229514263439248237027,4579.2,1.47550571872229514263439248237027
108,4666.67738086512551519704273662971037,4665.2,1.47738086512551519704273662971037
109,4753.47923873055090930945312093033225,4752.0,1.47923873055090930945312093033225
110,4841.08107963155250096786473020893571,4839.6,1.48107963155250096786473020893571
111,4929.48290387608057971145765585968685,4928.0,1.48290387608057971145765585968685
112,5018.68471176379119651845496796724586,5017.2,1.48471176379119651845496796724586
113,5108.68650358634187546324510115496245,5107.2,1.48650358634187546324510115496245
114,5199.48827962767427092359145130599110,5198.0,1.48827962767427092359145130599110
115,5291.09004016428445917204025792409882,5289.6,1.49004016428445917204025792409882
116,5383.49178546548150485586240565564434,5382.0,1.49178546548150485586240565564434
117,5476.69351579363491115879551676975859,5475.2,1.49351579363491115879551676975859
118,5570.69523140441152140876296576386750,5569.2,1.49523140441152140876296576386750
119,5665.49693254700240618413521573925210,5664.0,1.49693254700240618413521573925210
120,5761.09861946434024413105304313929385,5759.6,1.49861946434024413105304313929385
121,5857.50029239330766643936046766017845,5856.0,1.50029239330766643936046766017845
122,5954.70195156493701601393595905163227,5953.2,1.50195156493701601393595905163227
123,6052.70359720460194018775018860985162,6051.2,1.50359720460194018775018860985162
124,6151.50522953220121814573789784839446,6150.0,1.50522953220121814573789784839446
125,6251.10684876233519466499661801530491,6249.6,1.50684876233519466499661801530491
126,6351.50845510447517658230975636118944,6350.0,1.50845510447517658230975636118944
127,6452.71004876312612782503148986060798,6451.2,1.51004876312612782503148986060798
128,6554.71162993798297625720513916399533,6553.2,1.51162993798297625720513916399533
129,6657.51319882408083352271518567688356,6656.0,1.51319882408083352271518567688356
130,6761.11475561193941068871742640024296,6759.6,1.51475561193941068871742640024296
131,6865.51630048770189709190208952699965,6864.0,1.51630048770189709190208952699965
132,6970.71783363326855481655766035099829,6969.2,1.51783363326855481655766035099829
133,7076.71935522642526945554319033134002,7075.2,1.51935522642526945554319033134002
134,7183.52086544096728653326167319167938,7182.0,1.52086544096728653326167319167938
135,7291.12236444681834486545072222862437,7289.6,1.52236444681834486545072222862437
136,7399.52385241014541444735261357172536,7398.0,1.52385241014541444735261357172536
137,7508.72532949346923315834276500055786,7507.2,1.52532949346923315834276500055786
138,7618.72679585577082296375753768835925,7617.2,1.52679585577082296375753768835925
139,7729.52825165259416419362864897942287,7728.0,1.52825165259416419362864897942287
140,7841.12969703614519103715365882001063,7839.6,1.52969703614519103715365882001063
141,7953.53113215538726683954323872492922,7952.0,1.53113215538726683954323872492922
142,8066.73255715613328972020825123035549,8065.2,1.53255715613328972020825123035549
143,8180.73397218113457038687864643341469,8179.2,1.53397218113457038687864643341469
144,8295.53537737016661684669695205788118,8294.0,1.53537737016661684669695205788118
145,8411.13677286011195653394169956226613,8409.6,1.53677286011195653394169956226613
146,8527.53815878504011851196174745902323,8526.0,1.53815878504011851196174745902323
147,8644.73953527628489021088916367981893,8643.2,1.53953527628489021088916367981893
148,8762.74090246251896421200060138411683,8761.2,1.54090246251896421200060138411683
149,8881.54226046982607706916318605068758,8880.0,1.54226046982607706916318605068758
150,9001.14360942177074400573758727165707,8999.6,1.54360942177074400573758727165707
151,9121.54494943946568560711819934438609,9120.0,1.54494943946568560711819934438609
152,9242.74628064163703702277861245382067,9241.2,1.54628064163703702277861245382067
153,9364.74760314468742885148612804557485,9363.2,1.54760314468742885148612804557485
154,9487.54891706275702384256086880494722,9486.0,1.54891706275702384256086880494722
155,9611.15022250778258789297617116381514,9609.6,1.55022250778258789297617116381514
156,9735.55151958955467346114722494305632,9734.0,1.55151958955467346114722494305632
157,9860.75280841577298670964586053573760,9859.2,1.55280841577298670964586053573760
158,9986.75408909210001047239434039461233,9985.2,1.55408909210001047239434039461233
159,10113.5553617222129470088819951519857,10112.0,1.5553617222129470088819951519857
160,10241.1566264078540471857031308892431,10239.6,1.5566264078540471857031308892431
161,10369.5578832488793848978556762796720,10368.0,1.5578832488793848978556762796720
162,10498.7591323433061365215677283059682,10497.2,1.5591323433061365215677283059682
163,10628.7603737873584205976603109395105,10627.2,1.5603737873584205976603109395105
164,10759.5616076755117527435927549967580,10758.0,1.5616076755117527435927549967580
165,10891.1628341005361647726082684936949,10889.6,1.5628341005361647726082684936949
166,11023.5640531535380389312822490912401,11022.0,1.5640531535380389312822490912401
167,11156.7652649240007049019821794328026,11155.2,1.5652649240007049019821794328026
168,11290.7664694998238426927444237211399,11289.2,1.5664694998238426927444237211399
169,11425.5676669673617369307070864165287,11424.0,1.5676669673617369307070864165287
170,11561.1688574114604227778345475843487,11559.6,1.5688574114604227778345475843487
171,11697.5700409154937641617177432254256,11696.0,1.5700409154937641617177432254256
172,11834.7712175613985027103864970794561,11833.2,1.5712175613985027103864970794561
173,11972.7723874297083133409942099686762,11971.2,1.5723874297083133409942099686762
174,12111.5735505995869029200655633631729,12110.0,1.5735505995869029200655633631729
175,12251.1747071488601865825452547189884,12249.6,1.5747071488601865825452547189884
176,12391.5758571540475720479613251346967,12390.0,1.5758571540475720479613251346967
177,12532.7770006903923858575621838698822,12531.2,1.5770006903923858575621838698822
178,12674.7781378318914713832562752007422,12673.2,1.5781378318914713832562752007422
179,12817.5792686513239857847157464929259,12816.0,1.5792686513239857847157464929259
180,12961.1803932202794276294404631190590,12959.6,1.5803932202794276294404631190590
181,13105.5815116091849186318834680000956,13104.0,1.5815116091849186318834680000956
182,13250.7826238873317680559134387773038,13249.2,1.5826238873317680559134387773038
183,13396.7837301229013437225511079932769,13395.2,1.5837301229013437225511079932769
184,13543.5848303829902748035548985688980,13542.0,1.5848303829902748035548985688980
185,13691.1859247336350091970800751548729,13689.6,1.5859247336350091970800751548729
186,13839.5870132398357474941437749612470,13838.0,1.5870132398357474941437749612470
187,13988.7880959655797784316488793102048,13987.2,1.5880959655797784316488793102048
188,14138.7891729738642324219386029858872,14137.2,1.5891729738642324219386029858872
189,14289.5902443267182781056591316943155,14288.0,1.5902443267182781056591316943155
190,14441.1913100852247788604227457703900,14439.6,1.5913100852247788604227457703900
191,14593.5923703095414298391057558770158,14592.0,1.5923703095414298391057558770158
192,14746.7934250589213933453876506166706,14745.2,1.5934250589213933453876506166706
193,14900.7944743917334523545856897989191,14899.2,1.5944743917334523545856897989191
194,15055.5955183654816971085013061230833,15054.0,1.5955183654816971085013061230833
195,15211.1965570368247643936033970714010,15209.6,1.5965570368247643936033970714010
196,15367.5975904615946449661682110366355,15366.0,1.5975904615946449661682110366355
197,15524.7986186948150753721835850042361,15523.2,1.5986186948150753721835850042361
198,15682.7996417907195303038706968382481,15681.2,1.5996417907195303038706968382481
199,15841.6006598027688304208820776668269,15840.0,1.6006598027688304208820776668269
200,16001.2016727836683817924170312013611,15999.6,1.6016727836683817924170312013611
201,16161.6026807853850602826943749348476,16160.0,1.6026807853850602826943749348476
202,16322.8036838591637567405627763135978,16321.2,1.6036838591637567405627763135978
203,16484.8046820555435962805012441459802,16483.2,1.6046820555435962805012441459802
204,16647.6056754243738460604679301439665,16646.0,1.6056754243738460604679301439665
205,16811.2066640148295244812179854902535,16809.6,1.6066640148295244812179854902535
206,16975.6076478754267279655413073758070,16974.0,1.6076478754267279655413073758070
207,17140.8086270540376845206867109289850,17139.2,1.6086270540376845206867109289850
208,17306.8096015979055518444339599494318,17305.2,1.6096015979055518444339599494318
209,17473.6105715536589694777282560979334,17472.0,1.6105715536589694777282560979334
210,17641.2115369673263804962264522838782,17639.6,1.6115369673263804962264522838782
211,17809.6124978843501343502108921681062,17808.0,1.6124978843501343502108921681062
212,17978.8134543496003856024726820479532,17977.2,1.6134543496003856024726820479532
213,18148.8144064073887977565271541201597,18147.2,1.6144064073887977565271541201597
214,18319.6153541014820722785595964306838,18318.0,1.6153541014820722785595964306838
215,18491.2162974751153074837829586789585,18489.6,1.6162974751153074837829586789585
216,18663.6172365710052070678650109963318,18662.0,1.6172365710052070678650109963318
217,18836.8181714313631484577985296225075,18835.2,1.6181714313631484577985296225075
218,19010.8191020979081265888166826250207,19009.2,1.6191020979081265888166826250207
219,19185.6200286118795834653181359665727,19184.0,1.6200286118795834653181359665727
220,19361.2209510140501435849488219355502,19359.6,1.6209510140501435849488219355502
221,19537.6218693447382612230059194801559,19536.0,1.6218693447382612230059194801559
222,19714.8227836438208054347438178821342,19713.2,1.6227836438208054347438178821342
223,19892.8236939507455856069369917079189,19891.2,1.6236939507455856069369917079189
224,20071.6246003045438425479261682906778,20070.0,1.6246003045438425479261682906778
225,20251.2255027438427183156016911867661,20249.6,1.6255027438427183156016911867661
226,20431.6264013068777197354747518111575,20430.0,1.6264013068777197354747518111575
227,20612.8272960315051965011287189734337,20611.2,1.6272960315051965011287189734337
228,20794.8281869552148488216143408740923,20793.2,1.6281869552148488216143408740923
229,20977.6290741151422859036014485981232,20976.0,1.6290741151422859036014485981232
230,21161.2299575480816551550355578985764,21159.6,1.6299575480816551550355578985764
231,21345.6308372904983602565493919240651,21344.0,1.6308372904983602565493919240651
232,21530.8317133785418961235963623581131,21529.2,1.6317133785418961235963623581131
233,21716.8325858480588147260557831376255,21715.2,1.6325858480588147260557831376255
234,21903.6334547346058583813542874894686,21902.0,1.6334547346058583813542874894686
235,22091.2343200734632757840993530933650,22089.6,1.6343200734632757840993530933650
236,22279.6351818996483543317922474795083,22278.0,1.6351818996483543317922474795083
237,22468.8360402479291981583545734179581,22467.2,1.6360402479291981583545734179581
238,22658.8368951528387815073906038392186,22657.2,1.6368951528387815073906038392186
