Eigenstate,Energy,Kinetic Energy,Potential Energy
1,0.500000000291698596951842058138780871,0.0,0.500000000291698596951842058138780871
2,1.84623093955519043171079727572774362,1.2,0.64623093955519043171079727572774362
3,3.93633761529813295369419861267094756,3.2,0.73633761529813295369419861267094756
4,6.79966528946439886709394318334569036,6.0,0.79966528946439886709394318334569036
5,10.4480465954667034724708801508116138,9.6,0.8480465954667034724708801508116138
6,14.8870660280996353367139126431186500,14.0,0.8870660280996353367139126431186500
7,20.1197208688203724496108045810219581,19.2,0.9197208688203724496108045810219581
8,26.1477839040162011440555092633674914,25.2,0.9477839040162011440555092633674914
9,32.9723836326997578591015644312018410,32.0,0.9723836326997578591015644312018410
10,40.5942803090239926055173276371163614,39.6,0.9942803090239926055173276371163614
11,49.0140095031332870426970006388567004,48.0,1.0140095031332870426970006388567004
12,58.2319623103350595772576147733907123,57.2,1.0319623103350595772576147733907123
13,68.2484328606976150019443807462172994,67.2,1.0484328606976150019443807462172994
14,79.0636478519064544961424708050544880,78.0,1.0636478519064544961424708050544880
15,90.6777856650785501670835307158445561,89.6,1.0777856650785501670835307158445561
16,103.090989169632846586986396396199618,102.0,1.090989169632846586986396396199618
17,116.303374556751802050715780063455725,115.2,1.103374556751802050715780063455725
18,130.315037590387612976829039896536966,129.2,1.115037590387612976829039896536966
19,145.126058130366208862009635142541509,144.0,1.126058130366208862009635142541509
20,160.736503470021201090614510511205450,159.6,1.136503470021201090614510511205450
21,177.146430842275589145988361871247784,176.0,1.146430842275589145988361871247784
22,194.355889330800507490109889018545982,193.2,1.155889330800507490109889018545982
23,212.364921347951755366505191339151216,211.2,1.164921347951755366505191339151216
24,231.173563792170222970230489162794891,230.0,1.173563792170222970230489162794891
25,250.781848964777821029737135888094599,249.6,1.181848964777821029737135888094599
26,271.189805303785071147675668678031383,270.0,1.189805303785071147675668678031383
27,292.397457976853683782748629891159830,291.2,1.197457976853683782748629891159830
28,314.404829364655599902203725781407151,313.2,1.204829364655599902203725781407151
29,337.211939458074944483027427532493264,336.0,1.211939458074944483027427532493264
30,360.818806187049852449505928876022022,359.6,1.218806187049852449505928876022022
31,385.225445694705189119712960822281516,384.0,1.225445694705189119712960822281516
32,410.431872567349287637914926168403920,409.2,1.231872567349287637914926168403920
33,436.438100028598178057839718574809319,435.2,1.238100028598178057839718574809319
34,463.244140104140236469762366229290474,462.0,1.244140104140236469762366229290474
35,490.850003762314987494316633610237403,489.6,1.250003762314987494316633610237403
36,519.255701034646314584127231918365099,518.0,1.255701034646314584127231918365099
37,548.461241119666248023367197360442542,547.2,1.261241119666248023367197360442542
38,578.466632472735081770310741880447807,577.2,1.266632472735081770310741880447807
39,609.271882884065721636974682119841196,608.0,1.271882884065721636974682119841196
40,640.876999546764346515261448906016604,639.6,1.276999546764346515261448906016604
41,673.281989116382714084407095207974256,672.0,1.281989116382714084407095207974256
42,706.486857763222449832332280695001129,705.2,1.286857763222449832332280695001129
43,740.491611218425171878022663192021334,739.2,1.291611218425171878022663192021334
44,775.296254814714210066117852563910458,774.0,1.296254814714210066117852563910458
45,810.900793522516108235536729359056112,809.6,1.300793522516108235536729359056112
46,847.305231982076962281087858979100355,846.0,1.305231982076962281087858979100355
47,884.509574532095170014450591333743607,883.2,1.309574532095170014450591333743607
48,922.513825235314582466477544957192086,921.2,1.313825235314582466477544957192086
49,961.317987901457383728718959399066691,960.0,1.317987901457383728718959399066691
50,1000.92206610782190371829104387918617,999.6,1.32206610782190371829104387918617
51,1041.32606321782510128763577575837389,1040.0,1.32606321782510128763577575837389
52,1082.52998239773110988633498551063514,1081.2,1.32998239773110988633498551063514
53,1124.53382663177478786352623809867559,1123.2,1.33382663177478786352623809867559
54,1167.33759873586165436795466677734823,1166.0,1.33759873586165436795466677734823
55,1210.94130137000211631013560457606165,1209.6,1.34130137000211631013560457606165
56,1255.34493704961781728093879666971662,1254.0,1.34493704961781728093879666971662
57,1300.54850815584074035575351125764179,1299.2,1.34850815584074035575351125764179
58,1346.55201694491089952707829965572483,1345.2,1.35201694491089952707829965572483
59,1393.35546555676570056108028617562126,1392.0,1.35546555676570056108028617562126
60,1440.95885602290302756595149929061911,1439.6,1.35885602290302756595149929061911
61,1489.36219027359054733237046071636144,1488.0,1.36219027359054733237046071636144
62,1538.56547014448542250125367135139337,1537.2,1.36547014448542250125367135139337
63,1588.56869738272138272495173688193447,1587.2,1.36869738272138272495173688193447
64,1639.37187365251379050811757933275629,1638.0,1.37187365251379050811757933275629
65,1690.97500054032780357449790514901822,1689.6,1.37500054032780357449790514901822
66,1743.37807955964988826684029394112551,1742.0,1.37807955964988826684029394112551
67,1796.58111215539867619578335608350651,1795.2,1.38111215539867619578335608350651
68,1850.58409970800740019278739816696149,1849.2,1.38409970800740019278739816696149
69,1905.38704353720683295143948341656187,1904.0,1.38704353720683295143948341656187
70,1960.98994490553472347320117477904098,1959.6,1.38994490553472347320117477904098
71,2017.39280502159512772994387846668185,2016.0,1.39280502159512772994387846668185
72,2074.59562504308873171323548486649647,2073.2,1.39562504308873171323548486649647
73,2132.59840607963321203394778186922667,2131.2,1.39840607963321203394778186922667
74,2191.40114919539086038720214167338073,2190.0,1.40114919539086038720214167338073
75,2251.00385541151906709657704114974690,2249.6,1.40385541151906709657704114974690
76,2311.40652570845780939474830962214563,2310.0,1.40652570845780939474830962214563
77,2372.60916102806698769932506602492371,2371.2,1.40916102806698769932506602492371
78,2434.61176227562528734446865353633197,2433.2,1.41176227562528734446865353633197
79,2497.41433032170119640889821913121554,2496.0,1.41433032170119640889821913121554
80,2561.01686600390587215524882046102021,2559.6,1.41686600390587215524882046102021
81,2625.41937012853669925428169015551842,2624.0,1.41937012853669925428169015551842
82,2690.62184347211962151689903241558554,2689.2,1.42184347211962151689903241558554
83,2756.62428678285764012313647292139390,2755.2,1.42428678285764012313647292139390
84,2823.42670078199224704559903232909756,2822.0,1.42670078199224704559903232909756
85,2891.02908616508400308864265950433157,2889.6,1.42908616508400308864265950433157
86,2959.43144360321795409922274564001198,2958.0,1.43144360321795409922274564001198
87,3028.63377374413912143454416713381288,3027.2,1.43377374413912143454416713381288
88,3098.63607721332287939391918732271098,3097.2,1.43607721332287939391918732271098
89,3169.43835461498464882009086014362520,3168.0,1.43835461498464882009086014362520
90,3241.04060653303299285856091211531172,3239.6,1.44060653303299285856091211531172
91,3313.44283353196987941142229044097754,3312.0,1.44283353196987941142229044097754
92,3386.64503615774158652466862840307380,3385.2,1.44503615774158652466862840307380
93,3460.64721493854346469291001049528926,3459.2,1.44721493854346469291001049528926
94,3535.44937038558152713669842807880474,3534.0,1.44937038558152713669842807880474
95,3611.05150299379361795365046253558927,3609.6,1.45150299379361795365046253558927
96,3687.45361324253270622245053912482047,3686.0,1.45361324253270622245053912482047
97,3764.65570159621466979672382325859858,3763.2,1.45570159621466979672382325859858
98,3842.65776850493275965148394162377462,3841.2,1.45776850493275965148394162377462
99,3921.45981440504078217268923876178999,3920.0,1.45981440504078217268923876178999
100,4001.06183971970689044003607125379026,3999.6,1.46183971970689044003607125379026
101,4081.46384485943974624898128447069413,4080.0,1.46384485943974624898128447069413
102,4162.66583022258868904327758718761106,4161.2,1.46583022258868904327758718761106
103,4244.66779619581944001570888646660595,4243.2,1.46779619581944001570888646660595
104,4327.46974315456676237001975831368620,4326.0,1.46974315456676237001975831368620
105,4411.07167146346540566328991398182518,4409.6,1.47167146346540566328991398182518
106,4495.47358147676057138377892632804475,4494.0,1.47358147676057138377892632804475
107,4580.67547353869905883732886346419683,4579.2,1.47547353869905883732886346419683
108,4666.67734798390217117587342717743341,4665.2,1.47734798390217117587342717743341
109,4753.47920513772139280808838005049768,4752.0,1.47920513772139280808838005049768
110,4841.08104531657778701210887618847884,4839.6,1.48104531657778701210887618847884
111,4929.48286882828599670906156528445307,4928.0,1.48286882828599670906156528445307
112,5018.68467597236368192254411480039946,5017.2,1.48467597236368192254411480039946
113,5108.68646704032717191340956472188790,5107.2,1.48646704032717191340956472188790
114,5199.48824231597406122147884538369803,5198.0,1.48824231597406122147884538369803
115,5291.09000207565343839732032205242882,5289.6,1.49000207565343839732032205242882
116,5383.49174658852438787561041201194793,5382.0,1.49174658852438787561041201194793
117,5476.69347611680337372860189578061109,5475.2,1.49347611680337372860189578061109
118,5570.69519091600107300714493741402089,5569.2,1.49519091600107300714493741402089
119,5665.49689123514919266301160905769494,5664.0,1.49689123514919266301160905769494
120,5761.09857731701777820406196611034932,5759.6,1.49857731701777820406196611034932
121,5857.50024939832348396657045781836796,5856.0,1.50024939832348396657045781836796
122,5954.70190770992925597592349558291719,5953.2,1.50190770992925597592349558291719
123,6052.70355247703584617398921227047293,6051.2,1.50355247703584617398921227047293
124,6151.50518391936555911168019420519965,6150.0,1.50518391936555911168019420519965
125,6251.10680225133860263899240384074641,6249.6,1.50680225133860263899240384074641
126,6351.50840768224239892753101362948984,6350.0,1.50840768224239892753101362948984
127,6452.71000041639419158267744824596541,6451.2,1.51000041639419158267744824596541
128,6554.71158065329726201538826398335439,6553.2,1.51158065329726201538826398335439
129,6657.51314858779105617040837901423023,6656.0,1.51314858779105617040837901423023
130,6761.11470441019550432584208665811327,6759.6,1.51470441019550432584208665811327
131,6865.51624830644980127493958274925516,6864.0,1.51624830644980127493958274925516
132,6970.71778045824589922378601332097027,6969.2,1.51778045824589922378601332097027
133,7076.71930104315695395702561998872568,7075.2,1.51930104315695395702561998872568
134,7183.52081023476095354783215539645471,7182.0,1.52081023476095354783215539645471
135,7291.12230820275974078002411685022220,7289.6,1.52230820275974078002411685022220
136,7399.52379511309363676272660503122425,7398.0,1.52379511309363676272660503122425
137,7508.72527112805185991007786653174935,7507.2,1.52527112805185991007786653174935
138,7618.72673640637892084651845390890347,7617.2,1.52673640637892084651845390890347
139,7729.52819110337717169233573398244558,7728.0,1.52819110337717169233573398244558
140,7841.12963537100567273820718984754342,7839.6,1.52963537100567273820718984754342
141,7953.53106935797553496002917440760377,7952.0,1.53106935797553496002917440760377
142,8066.73249320984188875209809355051573,8065.2,1.53249320984188875209809355051573
143,8180.73390706909262060657810264295541,8179.2,1.53390706909262060657810264295541
144,8295.53531107523401228759505165084569,8294.0,1.53531107523401228759505165084569
145,8411.13670536487341286058059624817381,8409.6,1.53670536487341286058059624817381
146,8527.53809007179906606878599691284014,8526.0,1.53809007179906606878599691284014
147,8644.73946532705720734596050588636088,8643.2,1.53946532705720734596050588636088
148,8762.74083125902654579620588896976946,8761.2,1.54083125902654579620588896976946
149,8881.54218799349023294399111452045024,8880.0,1.54218799349023294399111452045024
150,9001.14353565370542189728141939843673,8999.6,1.54353565370542189728141939843673
151,9121.54487436047051284016731881391836,9120.0,1.54487436047051284016731881391836
152,9242.74620423219017515634040523636351,9241.2,1.54620423219017515634040523636351
153,9364.74752538493823513534386936551015,9363.2,1.54752538493823513534386936551015
154,9487.54883793251851316312571652149995,9486.0,1.54883793251851316312571652149995
155,9611.15014198652368863522960870966905,9609.6,1.55014198652368863522960870966905
156,9735.55143765639227046138843039655900,9734.0,1.55143765639227046138843039655900
157,9860.75272504946374421057848979671134,9859.2,1.55272504946374421057848979671134
158,9986.75400427103196771715774927541625,9985.2,1.55400427103196771715774927541625
159,10113.5552754243968788235006161486883,10112.0,1.5552754243968788235006161486883
160,10241.1565386109145815993140114097185,10239.6,1.5565386109145815993140114097185
161,10369.5577939300458695364631416501738,10368.0,1.5577939300458695364631416501738
162,10498.7590414794032451831869687409971,10497.2,1.5590414794032451831869687409971
163,10628.7602813547964910738473157803380,10627.2,1.5602813547964910738473157803380
164,10759.5615136502768465937261074919304,10758.0,1.5615136502768465937261074919304
165,10891.1627384581798393820805847912553,10889.6,1.5627384581798393820805847912553
166,11023.5639558691668217921103892295978,11022.0,1.5639558691668217921103892295978
167,11156.7651659722652596433014964181321,11155.2,1.5651659722652596433014964181321
168,11290.7663688549078159582872754795863,11289.2,1.5663688549078159582872754795863
169,11425.5675646029702747496209000594165,11424.0,1.5675646029702747496209000594165
170,11561.1687533008083446029695555386614,11559.6,1.5687533008083446029695555386614
171,11697.5699350312933822546668180337404,11696.0,1.5699350312933822546668180337404
172,11834.7711098758470740338508638955760,11833.2,1.5711098758470740338508638955760
173,11972.7722779144751105751765436114366,11971.2,1.5722779144751105751765436114366
174,12111.5734392257998906493721002944780,12110.0,1.5734392257998906493721002944780
175,12251.1745938870922881004225202117455,12249.6,1.5745938870922881004225202117455
176,12391.5757419743025115996859468848108,12390.0,1.5757419743025115996859468848108
177,12532.7768835620900904815330841141603,12531.2,1.5768835620900904815330841141603
178,12674.7780187238530158190673984462157,12673.2,1.5780187238530158190673984462157
179,12817.5791475317560631891412231040961,12816.0,1.5791475317560631891412231040961
180,12961.1802700567583280774486316444415,12959.6,1.5802700567583280774486316444415
181,13105.5813863686399965767783563498415,13104.0,1.5813863686399965767783563498415
182,13250.7824965360283790784280071595332,13249.2,1.5824965360283790784280071595332
183,13396.7836006264232300107934647316116,13395.2,1.5836006264232300107934647316116
184,13543.5846987062213778715337739975162,13542.0,1.5846987062213778715337739975162
185,13691.1857908407406873664306001704191,13689.6,1.5857908407406873664306001704191
186,13839.5868770942433746286877273256855,13838.0,1.5868770942433746286877273256855
187,13988.7879575299586993244376171855887,13987.2,1.5879575299586993244376171855887
188,14138.7890322101050490861754535568369,14137.2,1.5890322101050490861754535568369
189,14289.5901011959114400107639521330897,14288.0,1.5901011959114400107639521330897
190,14441.1911645476384488787874488652559,14439.6,1.5911645476384488787874488652559
191,14593.5922223245985963236654546337151,14592.0,1.5922223245985963236654546337151
192,14746.7932745851761973387442251541807,14745.2,1.5932745851761973387442251541807
193,14900.7943213868466974323953880101242,14899.2,1.5943213868466974323953880101242
194,15055.5953627861955077782543507189105,15054.0,1.5953627861955077782543507189105
195,15211.1963988389363572994819415443967,15209.6,1.5963988389363572994819415443967
196,15367.5974295999291753856553872403899,15366.0,1.5974295999291753856553872403899
197,15524.7984551231975196244994366480083,15523.2,1.5984551231975196244994366480083
198,15682.7994754619455627175198138273249,15681.2,1.5994754619455627175198138273249
199,15841.6004906685746514206762325470913,15840.0,1.6004906685746514206762325470913
200,16001.2015007946994514577757129987997,15999.6,1.6015007946994514577757129987997
201,16161.6025058911636893907012461809676,16160.0,1.6025058911636893907012461809676
202,16322.8035060080555048305428251343127,16321.2,1.6035060080555048305428251343127
203,16484.8045011947224236524819709444719,16483.2,1.6045011947224236524819709444719
204,16647.6054914997859638377082945199699,16646.0,1.6054914997859638377082945199699
205,16811.2064769711558839163197166285153,16809.6,1.6064769711558839163197166285153
206,16975.6074576560440870388037034318405,16974.0,1.6074576560440870388037034318405
207,17140.8084336009781865558705464733673,17139.2,1.6084336009781865558705464733673
208,17306.8094048518147473374563652405377,17305.2,1.6094048518147473374563652405377
209,17473.6103714537522085834074377629334,17472.0,1.6103714537522085834074377629334
210,17641.2113334513434996314082163590113,17639.6,1.6113334513434996314082163590113
211,17809.6122908885083561313636700145478,17808.0,1.6122908885083561313636700145478
212,17978.8132438085453468239084889075219,17977.2,1.6132438085453468239084889075219
213,18148.8141922541436153117980093847946,18147.2,1.6141922541436153117980093847946
214,18319.6151362673943518110393996281100,18318.0,1.6151362673943518110393996281100
215,18491.2160758898019940995023525305505,18489.6,1.6160758898019940995023525305505
216,18663.6170111622951716293104696130633,18662.0,1.6170111622951716293104696130633
217,18836.8179421252373967742529401564496,18835.2,1.6179421252373967742529401564496
218,19010.8188688184375121972253460498095,19009.2,1.6188688184375121972253460498095
219,19185.6197912811598976235783064877003,19184.0,1.6197912811598976235783064877003
220,19361.2207095521344485418213311278585,19359.6,1.6207095521344485418213311278585
221,19537.6216236695663247477090041322551,19536.0,1.6216236695663247477090041322551
222,19714.8225336711454859432082894126000,19713.2,1.6225336711454859432082894126000
223,19892.8234395940560079657677008686656,19891.2,1.6234395940560079657677008686656
224,20071.6243414749851947221931118942043,20070.0,1.6243414749851947221931118942043
225,20251.2252393501324883991682800854831,20249.6,1.6252393501324883991682800854831
226,20431.6261332552181815043069044024145,20430.0,1.6261332552181815043069044024145
227,20612.8270232254919393970377176900729,20611.2,1.6270232254919393970377176900729
228,20794.8279092957411351364846526991719,20793.2,1.6279092957411351364846526991719
229,20977.6287915002990038159776080147534,20976.0,1.6287915002990038159776080147534
230,21161.2296698730526210884609025753603,21159.6,1.6296698730526210884609025753603
231,21345.6305444474507076906725356764418,21344.0,1.6305444474507076906725356764418
232,21530.8314152565112703941937204222745,21529.2,1.6314152565112703941937204222745
233,21716.8322823328290743886623248284797,21715.2,1.6322823328290743886623248284797
234,21903.6331457085829632636406358608272,21902.0,1.6331457085829632636406358608272
235,22091.2340054155430197813021042612741,22089.6,1.6340054155430197813021042612741
236,22279.6348614850775771604552536858297,22278.0,1.6348614850775771604552536858297
237,22468.8357139481600845144810657800549,22467.2,1.6357139481600845144810657800549
238,22658.8365628353758281973636032493932,22657.2,1.6365628353758281973636032493932
