Eigenstate,Energy,Kinetic Energy,Potential Energy
1,0.500000000162235596834890204554087338,0.0,0.500000000162235596834890204554087338
2,1.84623093871010977777526931674705054,1.2,0.64623093871010977777526931674705054
3,3.93633761281571443208895734451088194,3.2,0.73633761281571443208895734451088194
4,6.79966528429362678053214955716452612,6.0,0.79966528429362678053214955716452612
5,10.4480465865094757125555020267163538,9.6,0.8480465865094757125555020267163538
6,14.8870660142383828833803303141612890,14.0,0.8870660142383828833803303141612890
7,20.1197208489281962605885934116621409,19.2,0.9197208489281962605885934116621409
8,26.1477838769610630330209145615916178,25.2,0.9477838769610630330209145615916178
9,32.9723835973463955839674139903076355,32.0,0.9723835973463955839674139903076355
10,40.5942802642348608020396781954940033,39.6,0.9942802642348608020396781954940033
11,49.0140094477690395077659041768616731,48.0,1.0140094477690395077659041768616731
12,58.2319622432547977673573631688035069,57.2,1.0319622432547977673573631688035069
13,68.2484327807590091936133128161508696,67.2,1.0484327807590091936133128161508696
14,79.0636477579657915974265672362705662,78.0,1.0636477579657915974265672362705662
15,90.6777855559907372120478534260462366,89.6,1.0777855559907372120478534260462366
16,103.090989044251386324612750067459684,102.0,1.090989044251386324612750067459684
17,116.303374413928750312731021957637458,115.2,1.103374413928750312731021957637458
18,130.315037428973523756373714442921018,129.2,1.115037428973523756373714442921018
19,145.126057949210070856453281766354033,144.0,1.126057949210070856453281766354033
20,160.736503267970368151849651787116731,159.6,1.136503267970368151849651787116731
21,177.146430618175706268972177969650586,176.0,1.146430618175706268972177969650586
22,194.355889083495433452220523100026830,193.2,1.155889083495433452220523100026830
23,212.364921076283482791477001961527766,211.2,1.164921076283482791477001961527766
24,231.173563494978796363896829946515744,230.0,1.173563494978796363896829946515744
25,250.781848640901253180228465864782010,249.6,1.181848640901253180228465864782010
26,271.189804952059258175269770614910030,270.0,1.189804952059258175269770614910030
27,292.397457596112319048604091582436572,291.2,1.197457596112319048604091582436572
28,314.404828953730086930660169846420815,313.2,1.204828953730086930660169846420815
29,337.211939015794309012421655030678869,336.0,1.211939015794309012421655030678869
30,360.818805712240653697121731845984846,359.6,1.218805712240653697121731845984846
31,385.225445186191430324560235927439368,384.0,1.225445186191430324560235927439368
32,410.431872023952325928458225674579558,409.2,1.231872023952325928458225674579558
33,436.438099449136633679125518116464135,435.2,1.238099449136633679125518116464135
34,463.244139487429901394608037748748261,462.0,1.244139487429901394608037748748261
35,490.850003107168733435589934345176615,489.6,1.250003107168733435589934345176615
36,519.255700339874000419133964278725567,518.0,1.255700339874000419133964278725567
37,548.461240384074626636586889931312524,547.2,1.261240384074626636586889931312524
38,578.466631695127706316889135083394634,577.2,1.266631695127706316889135083394634
39,609.271882063242851226282146907192858,608.0,1.271882063242851226282146907192858
40,640.876998681522851311296624692726869,639.6,1.276998681522851311296624692726869
41,673.281988205515979817742006697156448,672.0,1.281988205515979817742006697156448
42,706.486856805520281716564513036735486,705.2,1.286856805520281716564513036735486
43,740.491610212673697922249280949024123,739.2,1.291610212673697922249280949024123
44,775.296253759695783773718201571272726,774.0,1.296253759695783773718201571272726
45,810.900792417009210678502625997468899,809.6,1.300792417009210678502625997468899
46,847.305230824856103538234978477337575,846.0,1.305230824856103538234978477337575
47,884.509573321930789961057082240661294,883.2,1.309573321930789961057082240661294
48,922.513823970972950902202145858984984,921.2,1.313823970972950902202145858984984
49,961.317986581700499830034289719803688,960.0,1.317986581700499830034289719803688
50,1000.92206473140739480111368330448181,999.6,1.32206473140739480111368330448181
51,1041.32606178350612086533153012951947,1040.0,1.32606178350612086533153012951947
52,1082.52998090425623500781644016465297,1081.2,1.32998090425623500781644016465297
53,1124.53382507788791571573227647420604,1123.2,1.33382507788791571573227647420604
54,1167.33759712030189812660185027678347,1166.0,1.33759712030189812660185027678347
55,1210.94129969150370022225382411895191,1209.6,1.34129969150370022225382411895191
56,1255.34493530690997096234435273831722,1254.0,1.34493530690997096234435273831722
57,1300.54850634764759228626808911875672,1299.2,1.34850634764759228626808911875672
58,1346.55201506995136972596824020344646,1345.2,1.35201506995136972596824020344646
59,1393.35546361375339242486656015663498,1392.0,1.35546361375339242486656015663498
60,1440.95885401054611885042245953817076,1439.6,1.35885401054611885042245953817076
61,1489.36218819059168026031627527032589,1488.0,1.36218819059168026031627527032589
62,1538.56546798954159297713124089671767,1537.2,1.36546798954159297713124089671767
63,1588.56869515452382863738136953070745,1587.2,1.36869515452382863738136953070745
64,1639.37187134974787910080506927209206,1638.0,1.37187134974787910080506927209206
65,1690.97499816167291786586758891434157,1689.6,1.37499816167291786586758891434157
66,1743.37807710377931249835668541627916,1742.0,1.37807710377931249835668541627916
67,1796.58110962097948028862745218217536,1795.2,1.38110962097948028862745218217536
68,1850.58409709370032319224096113772808,1849.2,1.38409709370032319224096113772808
69,1905.38704084166616543801281734280165,1904.0,1.38704084166616543801281734280165
70,1960.98994212740818891922074226399059,1959.6,1.38994212740818891922074226399059
71,2017.39280215952376277998971352105721,2016.0,1.39280215952376277998971352105721
72,2074.59562209570676536649012821035788,2073.2,1.39562209570676536649012821035788
73,2132.59840304556794370618210212340725,2131.2,1.39840304556794370618210212340725
74,2191.40114607326253682978397258630293,2190.0,1.40114607326253682978397258630293
75,2251.00385219994075814954145024380927,2249.6,1.40385219994075814954145024380927
76,2311.40652240603528255061618432259309,2310.0,1.40652240603528255061618432259309
77,2372.60915763339858145399671667751373,2371.2,1.40915763339858145399671667751373
78,2434.61175878730178331115308356760175,2433.2,1.41175878730178331115308356760175
79,2497.41432673830569017066530167197653,2496.0,1.41432673830569017066530167197653
80,2561.01686232401364283141079604046297,2559.6,1.41686232401364283141079604046297
81,2625.41936635071507775542133012323210,2624.0,1.41936635071507775542133012323210
82,2690.62183959492785746296527290678100,2689.2,1.42183959492785746296527290678100
83,2756.62428280484676739862350356662618,2755.2,1.42428280484676739862350356662618
84,2823.42669670170494796541090246344765,2822.0,1.42669670170494796541090246344765
85,2891.02908198105447114782326547135431,2889.6,1.42908198105447114782326547135431
86,2959.43143931397175527930023579404232,2958.0,1.43143931397175527930023579404232
87,3028.63376934819305403879707055022943,3027.2,1.43376934819305403879707055022943
88,3098.63607270918483238342226908273804,3097.2,1.43607270918483238342226908273804
89,3169.43835000115345862193836527568537,3168.0,1.43835000115345862193836527568537
90,3241.04060180799829861719473839467532,3239.6,1.44060180799829861719473839467532
91,3313.44282869421197665351252145667489,3312.0,1.44282869421197665351252145667489
92,3386.64503120573127920750246402749282,3385.2,1.44503120573127920750246402749282
93,3460.64720987074191560574382728330388,3459.2,1.44720987074191560574382728330388
94,3535.44936520044010662401445758810000,3534.0,1.44936520044010662401445758810000
95,3611.05149768975375092873555505489079,3609.6,1.45149768975375092873555505489079
96,3687.45360781802571743917835876458275,3686.0,1.45360781802571743917835876458275
97,3764.65569604966162734687389466476444,3763.2,1.45569604966162734687389466476444
98,3842.65776283474431665437128570864504,3841.2,1.45776283474431665437128570864504
99,3921.45980860961701662330496662809911,3920.0,1.45980860961701662330496662809911
100,4001.06183379743714318131482802839062,3999.6,1.46183379743714318131482802839062
101,4081.46383880870245703321185219352085,4080.0,1.46383880870245703321185219352085
102,4162.66582404175123064706149528269704,4161.2,1.46582404175123064706149528269704
103,4244.66778988323795037224612989322656,4243.2,1.46778988323795037224612989322656
104,4327.46973670858597468186042326675221,4326.0,1.46973670858597468186042326675221
105,4411.07166488241847645803613783823292,4409.6,1.47166488241847645803613783823292
106,4495.47357475896890647455324373045275,4494.0,1.47357475896890647455324373045275
107,4580.67546668247213714913955521283738,4579.2,1.47546668247213714913955521283738
108,4666.67734098753736639830860973490104,4665.2,1.47734098753736639830860973490104
109,4753.47919799950379283405433850249855,4752.0,1.47919799950379283405433850249855
110,4841.08103803478001112159668948625516,4839.6,1.48103803478001112159668948625516
111,4929.48286140116801045617683913899187,4928.0,1.48286140116801045617683913899187
112,5018.68466839817260968326934922705567,5017.2,1.48466839817260968326934922705567
113,5108.68645931729710705078580399910952,5107.2,1.48645931729710705078580399910952
114,5199.48823444232587382409135903400103,5198.0,1.48823444232587382409135903400103
115,5291.08999404959458054615465181130942,5289.6,1.48999404959458054615465181130942
116,5383.49173840824869639350597377180640,5382.0,1.49173840824869639350597377180640
117,5476.69346778049087036567376685913834,5475.2,1.49346778049087036567376685913834
118,5570.69518242181776201466664216850696,5569.2,1.49518242181776201466664216850696
119,5665.49688258124685570735423705286007,5664.0,1.49688258124685570735423705286007
120,5761.09856850153376657136755449865446,5759.6,1.49856850153376657136755449865446
121,5857.50024041938050800789794839342861,5856.0,1.50024041938050800789794839342861
122,5954.70189856563517174164313259200355,5953.2,1.50189856563517174164313259200355
123,6052.70354316548343918522029311409804,6051.2,1.50354316548343918522029311409804
124,6151.50517443863232521555890259899778,6150.0,1.50517443863232521555890259899778
125,6251.10679259948652589352705788820826,6249.6,1.50679259948652589352705788820826
126,6351.50839785731772646074921896968640,6350.0,1.50839785731772646074921896968640
127,6452.70999041642720536968979673662449,6451.2,1.50999041642720536968979673662449
128,6554.71157047630204751589091955037573,6553.2,1.51157047630204751589091955037573
129,6657.51313823176526776801607488840166,6656.0,1.51313823176526776801607488840166
130,6761.11469387312012750948826091486181,6759.6,1.51469387312012750948826091486181
131,6865.51623758628891150139584033077580,6864.0,1.51623758628891150139584033077580
132,6970.71776955294641739914186362617277,6969.2,1.51776955294641739914186362617277
133,7076.71928995064839847373039790699140,7075.2,1.51928995064839847373039790699140
134,7183.52079895295518881263045762828270,7182.0,1.52079895295518881263045762828270
135,7291.12229672955072216681663365664338,7289.6,1.52229672955072216681663365664338
136,7399.52378344635715192305880815336561,7398.0,1.52378344635715192305880815336561
137,7508.72525926564526637259471701531133,7507.2,1.52525926564526637259471701531133
138,7618.72672434614087983533015172855728,7617.2,1.52672434614087983533015172855728
139,7729.52817884312737809281058854442791,7728.0,1.52817884312737809281058854442791
140,7841.12962290854458113724321690292958,7839.6,1.52962290854458113724321690292958
141,7953.53105669108408168636147554750955,7952.0,1.53105669108408168636147554750955
142,8066.73248033628120984066198216601534,8065.2,1.53248033628120984066198216601534
143,8180.73389398660376560937729978966614,8179.2,1.53389398660376560937729978966614
144,8295.53529778153765385191583275213808,8294.0,1.53529778153765385191583275213808
145,8411.13669185766955199374328956507444,8409.6,1.53669185766955199374328956507444
146,8527.53807634876673300693617042457013,8526.0,1.53807634876673300693617042457013
147,8644.73945138585415794267313141131068,8643.2,1.53945138585415794267313141131068
148,8762.74081709728895334490206772142204,8761.2,1.54081709728895334490206772142204
149,8881.54217360883237534635171246614617,8880.0,1.54217360883237534635171246614617
150,9001.14352104371936408798151688719964,8999.6,1.54352104371936408798151688719964
151,9121.54485952272578437634709297485412,9120.0,1.54485952272578437634709297485412
152,9242.74618916423344287827563986636053,9241.2,1.54618916423344287827563986636053
153,9364.74751008429297080277626024794741,9363.2,1.54751008429297080277626024794741
154,9487.54882239668465596966079292946797,9486.0,1.54882239668465596966079292946797
155,9611.15012621297730250110734616629983,9609.6,1.55012621297730250110734616629983
156,9735.55142164258519600277313959905334,9734.0,1.55142164258519600277313959905334
157,9860.75270879282324528130754978960219,9859.2,1.55270879282324528130754978960219
158,9986.75398776896037241662092860955437,9985.2,1.55398776896037241662092860955437
159,10113.5552586742712148619988492614135,10112.0,1.5552586742712148619988492614135
160,10241.1565216100862059098651601206676,10239.6,1.5565216100862059098651601206676
161,10369.5577766758400920195800138165064,10368.0,1.5577766758400920195800138165064
162,10498.7590239691189464686483087888356,10497.2,1.5590239691189464686483087888356
163,10628.7602635857057341809143993955274,10627.2,1.5602635857057341809143993955274
164,10759.5614956196244823686244597716466,10758.0,1.5614956196244823686244597716466
165,10891.1627201631831055888628715716174,10889.6,1.5627201631831055888628715716174
166,11023.5639373070149357302477174778197,11022.0,1.5639373070149357302477174778197
167,11156.7651471401190041625073854045642,11155.2,1.5651471401190041625073854045642
168,11290.7663497498991187381612007742698,11289.2,1.5663497498991187381612007742698
169,11425.5675452222017807087086660072883,11424.0,1.5675452222017807087086660072883
170,11561.1687336413529812987666196136976,11559.6,1.5687336413529812987666196136976
171,11697.5699150901939181329423714598187,11696.0,1.5699150901939181329423714598187
172,11834.7710896501156693824365135826668,11833.2,1.5710896501156693824365135826668
173,11972.7722574010928610340489319699045,11971.2,1.5722574010928610340489319699045
174,12111.5734184217163631254521313280421,12110.0,1.5734184217163631254521313280421
175,12251.1745727892250489320215848802703,12249.6,1.5745727892250489320215848802703
176,12391.5757205795366468119401267687007,12390.0,1.5757205795366468119401267687007
177,12532.7768618672777179704873894710999,12531.2,1.5768618672777179704873894710999
178,12674.7779967258127892982886170195187,12673.2,1.5779967258127892982886170195187
179,12817.5791252272726677288588316435381,12816.0,1.5791252272726677288588316435381
180,12961.1802474425819670622363646306757,12959.6,1.5802474425819670622363646306757
181,13105.5813634414858699036964187828326,13104.0,1.5813634414858699036964187828326
182,13250.7824732925761524133431626490441,13249.2,1.5824732925761524133431626490441
183,13396.7835770633164949162767845294628,13395.2,1.5835770633164949162767845294628
184,13543.5846748200671026153011018165387,13542.0,1.5846748200671026153011018165387
185,13691.1857666281086582147364120113172,13689.6,1.5857666281086582147364120113172
186,13839.5868525516656274244029340332880,13838.0,1.5868525516656274244029340332880
187,13988.7879326539289411447339935369890,13987.2,1.5879326539289411447339935369890
188,14138.7890069970780697697987876976399,14137.2,1.5890069970780697697987876976399
189,14289.5900756423025133398017089485309,14288.0,1.5900756423025133398017089485309
190,14441.1911386498227231946198326462078,14439.6,1.5911386498227231946198326462078
191,14593.5921960789104743514260082493159,14592.0,1.5921960789104743514260082493159
192,14746.7932479879087049891049299797157,14745.2,1.5932479879087049891049299797157
193,14900.7942944342508413438253099715127,14899.2,1.5942944342508413438253099715127
194,15055.5953354744796213570766191769779,15054.0,1.5953354744796213570766191769779
195,15211.1963711642654350090652148132921,15209.6,1.5963711642654350090652148132921
196,15367.5974015584241950299174530544149,15366.0,1.5974015584241950299174530544149
197,15524.7984267109347523645699007784004,15523.2,1.5984267109347523645699007784004
198,15682.7994466749558705538958793401739,15681.2,1.5994466749558705538958793401739
199,15841.6004615028427718665062089286391,15840.0,1.6004615028427718665062089286391
200,16001.2014712461632691220179646000023,15999.6,1.6014712461632691220179646000023
201,16161.6024759557134941828167663911033,16160.0,1.6024759557134941828167663911033
202,16322.8034756815332364910867561621512,16321.2,1.6034756815332364910867561621512
203,16484.8044704729209023064604251863777,16483.2,1.6044704729209023064604251863777
204,16647.6054603784481062598410593761284,16646.0,1.6054603784481062598410593761284
205,16811.2064454459739051894093003408193,16809.6,1.6064454459739051894093003408193
206,16975.6074257226586872782294835250936,16974.0,1.6074257226586872782294835250936
207,17140.8084012549777223648119420458171,17139.2,1.6084012549777223648119420458171
208,17306.8093720887343876487825443572640,17305.2,1.6093720887343876487825443572640
209,17473.6103382690730745352509514804561,17472.0,1.6103382690730745352509514804561
210,17641.2112998404917881142537855988655,17639.6,1.6112998404917881142537855988655
211,17809.6122568468544466350249490118427,17808.0,1.6122568468544466350249490118427
212,17978.8132093314028912030263493215935,17977.2,1.6132093314028912030263493215935
213,18148.8141573367686100784573716075595,18147.2,1.6141573367686100784573716075595
214,18319.6151009049841925527711903291972,18318.0,1.6151009049841925527711903291972
215,18491.2160400774945116102884352647955,18489.6,1.6160400774945116102884352647955
216,18663.6169748951676493302421391101953,18662.0,1.6169748951676493302421391101953
217,18836.8179053983055689891892085931253,18835.2,1.6179053983055689891892085931253
218,19010.8188316266545428371544846958940,19009.2,1.6188316266545428371544846958940
219,19185.6197536194153388213774401561203,19184.0,1.6197536194153388213774401561203
220,19361.2206714152531787667412170255255,19359.6,1.6206714152531787667412170255255
221,19537.6215850523074659161508118292486,19536.0,1.6215850523074659161508118292486
222,19714.8224945682012990292210896457060,19713.2,1.6224945682012990292210896457060
223,19892.8234000000507666011225860257386,19891.2,1.6234000000507666011225860257386
224,20071.6243013844740362619244680881276,20070.0,1.6243013844740362619244680881276
225,20251.2251987576002419140389226483994,20249.6,1.6251987576002419140389226483994
226,20431.6260921550781721467948917951414,20430.0,1.6260921550781721467948917951414
227,20612.8269816120847685720953290576390,20611.2,1.6269816120847685720953290576390
228,20794.8278671633334358924943976072483,20793.2,1.6278671633334358924943976072483
229,20977.6287488430821708549959980554210,20976.0,1.6287488430821708549959980554210
230,21161.2296266851415147779953972057662,21159.6,1.6296266851415147779953972057662
231,21345.6305007228823314418397704809653,21344.0,1.6305007228823314418397704809653
232,21530.8313709892434207531576073389860,21529.2,1.6313709892434207531576073389860
233,21716.8322375167389631697214471398152,21715.2,1.6322375167389631697214471398152
234,21903.6331003374658110331965936598385,21902.0,1.6331003374658110331965936598385
235,22091.2339594831106199821917566857055,22089.6,1.6339594831106199821917566857055
236,22279.6348149849568301457254864446383,22278.0,1.6348149849568301457254864446383
237,22468.8356668738915007386138251192676,22467.2,1.6356668738915007386138251192676
238,22658.8365151804119997911955202452592,22657.2,1.6365151804119997911955202452592
