Eigenstate,Energy,Kinetic Energy,Potential Energy
1,0.500000000051054535054084110961019729,0.0,0.500000000051054535054084110961019729
2,1.84623093798437217488743038736454758,1.2,0.64623093798437217488743038736454758
3,3.93633761068389336928912358034687107,3.2,0.73633761068389336928912358034687107
4,6.79966527985321440377195456686432012,6.0,0.79966527985321440377195456686432012
5,10.4480465788176127256982020989332952,9.6,0.8480465788176127256982020989332952
6,14.8870660023356073371575754444468492,14.0,0.8870660023356073371575754444468492
7,20.1197208318471785602195954945341521,19.2,0.9197208318471785602195954945341521
8,26.1477838537302346436366405836987291,25.2,0.9477838537302346436366405836987291
9,32.9723835669916233737728476884109693,32.0,0.9723835669916233737728476884109693
10,40.5942802257802848535627825555498851,39.6,0.9942802257802848535627825555498851
11,49.0140094002375171098852240334989468,48.0,1.0140094002375171098852240334989468
12,58.2319621856681467048184225228925608,57.2,1.0319621856681467048184225228925608
13,68.2484327121381417549605819764548997,67.2,1.0484327121381417549605819764548997
14,79.0636476773307856725874444778352173,78.0,1.0636476773307856725874444778352173
15,90.6777854623608694184051944337770527,89.6,1.0777854623608694184051944337770527
16,103.090988936645141262083327004917692,102.0,1.090988936645141262083327004917692
17,116.303374291363814271644456986420567,115.2,1.103374291363814271644456986420567
18,130.315037290466767979350245782806427,129.2,1.115037290466767979350245782806427
19,145.126057793777527584618197995026414,144.0,1.126057793777527584618197995026414
20,160.736503094627201560814669297331011,159.6,1.136503094627201560814669297331011
21,177.146430425936179702267549527415260,176.0,1.146430425936179702267549527415260
22,194.355888871372873914902625149471201,193.2,1.155888871372873914902625149471201
23,212.364920843290243375739494057206531,211.2,1.164920843290243375739494057206531
24,231.173563240126217084028154454512935,230.0,1.173563240126217084028154454512935
25,250.781848363199620561566284030590572,249.6,1.181848363199620561566284030590572
26,271.189804650517763849585226270144906,270.0,1.189804650517763849585226270144906
27,292.397457269739017543170883678897554,291.2,1.197457269739017543170883678897554
28,314.404828601531852791480075696188145,313.2,1.204828601531852791480075696188145
29,337.211938636776793368017616260043788,336.0,1.211938636776793368017616260043788
30,360.818805305408240344184730412954070,359.6,1.218805305408240344184730412954070
31,385.225444750547191397976088815555392,384.0,1.225444750547191397976088815555392
32,410.431871558497977204073974756156827,409.2,1.231871558497977204073974756156827
33,436.438098952872489546804169404392159,435.2,1.238098952872489546804169404392159
34,463.244138959354829530788721415605490,462.0,1.244138959354829530788721415605490
35,490.850002546280109198089867071163639,489.6,1.250002546280109198089867071163639
36,519.255699745167660981843814642782373,518.0,1.255699745167660981843814642782373
37,548.461239754544824877688315807643816,547.2,1.261239754544824877688315807643816
38,578.466631029767064471016034645127706,577.2,1.266631029767064471016034645127706
39,609.271881361042314308470730904741842,608.0,1.271881361042314308470730904741842
40,640.876997941471640318485124473581540,639.6,1.276997941471640318485124473581540
41,673.281987426601544711882953987969472,672.0,1.281987426601544711882953987969472
42,706.486855986728254192020212947150278,705.2,1.286855986728254192020212947150278
43,740.491609352987843958991870224386403,739.2,1.291609352987843958991870224386403
44,775.296252858097955976901398445993216,774.0,1.296252858097955976901398445993216
45,810.900791472479300404174361582645302,809.6,1.300791472479300404174361582645302
46,847.305229836371992804289215686195807,846.0,1.305229836371992804289215686195807
47,884.509572288468303141955540129713053,883.2,1.309572288468303141955540129713053
48,922.513822891505806205513105902139684,921.2,1.313822891505806205513105902139684
49,961.317985455200260552421584921205202,960.0,1.317985455200260552421584921205202
50,1000.92206355684342036105195236843576,999.6,1.32206355684342036105195236843576
51,1041.32606055984551760951373154094671,1040.0,1.32606055984551760951373154094671
52,1082.52997963046380678794908854439882,1081.2,1.32997963046380678794908854439882
53,1124.53382375292611423217584997184235,1123.2,1.33382375292611423217584997184235
54,1167.33759574313077303510294892180338,1166.0,1.33759574313077303510294892180338
55,1210.94129826108084899982787273282155,1209.6,1.34129826108084899982787273282155
56,1255.34493382219048852819885770167836,1254.0,1.34493382219048852819885770167836
57,1300.54850480758402037350412285132412,1299.2,1.34850480758402037350412285132412
58,1346.55201347349364599965843234626866,1345.2,1.35201347349364599965843234626866
59,1393.35546195984879934198092918038584,1392.0,1.35546195984879934198092918038584
60,1440.95885229813923225695526870850006,1439.6,1.35885229813923225695526870850006
61,1489.36218641862431772085767601456179,1488.0,1.36218641862431772085767601456179
62,1538.56546615695276183202460061954199,1537.2,1.36546615695276183202460061954199
63,1588.56869326024967378251040163662113,1587.2,1.36869326024967378251040163662113
64,1639.37186939272163048496305326783992,1638.0,1.37186939272163048496305326783992
65,1690.97499614082483770057269322121581,1689.6,1.37499614082483770057269322121581
66,1743.37807501803664217489330313521082,1742.0,1.37807501803664217489330313521082
67,1796.58110746926638699701175954509292,1795.2,1.38110746926638699701175954509292
68,1850.58409487493784623672966615613996,1849.2,1.38409487493784623672966615613996
69,1905.38703855477216224369643118813036,1904.0,1.38703855477216224369643118813036
70,1960.98993977129728072416755445345003,1959.6,1.38993977129728072416755445345003
71,2017.39279973310728000733119414872505,2016.0,1.39279973310728000733119414872505
72,2074.59561959789269267076559145056888,2073.2,1.39561959789269267076559145056888
73,2132.59840047526086468818671266781359,2131.2,1.39840047526086468818671266781359
74,2191.40114342936357841409222742552703,2190.0,1.40114342936357841409222742552703
75,2251.00384948134753461880504137567916,2249.6,1.40384948134753461880504137567916
76,2311.40651961164183923066396635586616,2310.0,1.40651961164183923066396635586616
77,2372.60915476209533804369114290453422,2371.2,1.40915476209533804369114290453422
78,2434.61175583797547685088537520329471,2433.2,1.41175583797547685088537520329471
79,2497.41432370983931764329823138432534,2496.0,1.41432370983931764329823138432534
80,2561.01685921528640338940514246358406,2559.6,1.41685921528640338940514246358406
81,2625.41936316060231456780721548208198,2624.0,1.41936316060231456780721548208198
82,2690.62183632230099917574570433073272,2689.2,1.42183632230099917574570433073272
83,2756.62427944857326920212141311958546,2755.2,1.42427944857326920212141311958546
84,2823.42669326064823226199511536717347,2822.0,1.42669326064823226199511536717347
85,2891.02907845407386781337134464306506,2889.6,1.42907845407386781337134464306506
86,2959.43143569992244151167840505390325,2958.0,1.43143569992244151167840505390325
87,3028.63376564592599378655777485851430,3027.2,1.43376564592599378655777485851430
88,3098.63606891754671534784008617406204,3097.2,1.43606891754671534784008617406204
89,3169.43834611898663882542345324029821,3168.0,1.43834611898663882542345324029821
90,3241.04059783414073253104057203582704,3239.6,1.44059783414073253104057203582704
91,3313.44282462749716087785036025564797,3312.0,1.44282462749716087785036025564797
92,3386.64502704498818769625062312099115,3385.2,1.44502704498818769625062312099115
93,3460.64720561479493642925270738920337,3459.2,1.44720561479493642925270738920337
94,3535.44936084810897826202090849554660,3534.0,1.44936084810897826202090849554660
95,3611.05149323985349808615042737652577,3609.6,1.45149323985349808615042737652577
96,3687.45360326936658637714110885216944,3686.0,1.45360326936658637714110885216944
97,3764.65569140104902072141487558649195,3763.2,1.45569140104902072141487558649195
98,3842.65775808497872785492960641443824,3841.2,1.45775808497872785492960641443824
99,3921.45980375749396360325360680155947,3920.0,1.45980375749396360325360680155947
100,4001.06182884174710177254826772442091,3999.6,1.46182884174710177254826772442091
101,4081.46383374823079373675241999728919,4080.0,1.46383374823079373675241999728919
102,4162.66581887527813489154056335113556,4161.2,1.46581887527813489154056335113556
103,4244.66778460953836623201432912373589,4243.2,1.46778460953836623201432912373589
104,4327.46973132642953204637638744364113,4326.0,1.46973132642953204637638744364113
105,4411.07165939056942164407866233132092,4409.6,1.47165939056942164407866233132092
106,4495.47356915618603227269344433025527,4494.0,1.47356915618603227269344433025527
107,4580.67546096750871229580035346556393,4579.2,1.47546096750871229580035346556393
108,4666.67733515914106446462782465108870,4665.2,1.47733515914106446462782465108870
109,4753.47919205641662052265365912561048,4752.0,1.47919205641662052265365912561048
110,4841.08103197573823596224413506673781,4839.6,1.48103197573823596224413506673781
111,4929.48285522490208789121255326934629,4928.0,1.48285522490208789121255326934629
112,5018.68466210340710953354491981625920,5017.2,1.48466210340710953354491981625920
113,5108.68645290275063935274609526120907,5107.2,1.48645290275063935274609526120907
114,5199.48822790671101402850371408734601,5198.0,1.48822790671101402850371408734601
115,5291.08998739161779406886439451079875,5289.6,1.48998739161779406886439451079875
116,5383.49173162661026250846875525821890,5382.0,1.49173162661026250846875525821890
117,5476.69346087388480543038494181486624,5475.2,1.49346087388480543038494181486624
118,5570.69517538893174201797473579665737,5569.2,1.49517538893174201797473579665737
119,5665.49687542076213812951024595348554,5664.0,1.49687542076213812951024595348554
120,5761.09856121212511154602422658025596,5759.6,1.49856121212511154602422658025596
121,5857.50023299971609877563248753349048,5856.0,1.50023299971609877563248753349048
122,5954.70189101437653438443474650371650,5953.2,1.50189101437653438443474650371650
123,6052.70353548128536163116775578029231,6051.2,1.50353548128536163116775578029231
124,6151.50516662014277550297620989600241,6150.0,1.50516662014277550297620989600241
125,6251.10678464534656968340375616636273,6249.6,1.50678464534656968340375616636273
126,6351.50838976616144378640899719796682,6350.0,1.50838976616144378640899719796682
127,6452.70998218688160661232493610185447,6451.2,1.50998218688160661232493610185447
128,6554.71156210698698859449048955371935,6553.2,1.51156210698698859449048955371935
129,6657.51312972129336453204468347788633,6656.0,1.51312972129336453204468347788633
130,6761.11468522009666932250674643931139,6759.6,1.51468522009666932250674643931139
131,6865.51622878931177400364753121790628,6864.0,1.51622878931177400364753121790628
132,6970.71776061060597443695688159675970,6969.2,1.51776061060597443695688159675970
133,7076.71928086152743318342730829929917,7075.2,1.51928086152743318342730829929917
134,7183.52078971562880384641607904886116,7182.0,1.52078971562880384641607904886116
135,7291.12228734258624904800509155109892,7289.6,1.52228734258624904800509155109892
136,7399.52377390831405951774732579103049,7398.0,1.52377390831405951774732579103049
137,7508.72524957507506846474575307138001,7507.2,1.52524957507506846474575307138001
138,7618.72671450158704179201944011941850,7617.2,1.52671450158704179201944011941850
139,7729.52816884312522260620639392585688,7728.0,1.52816884312522260620639392585688
140,7841.12961275162119302968427720812259,7839.6,1.52961275162119302968427720812259
141,7953.53104637575821176470024019944762,7952.0,1.53104637575821176470024019944762
142,8066.73246986106317778583418712635419,8065.2,1.53246986106317778583418712635419
143,8180.73388334999536188695047701774392,8179.2,1.53388334999536188695047701774392
144,8295.53528698203204062915614824534668,8294.0,1.53528698203204062915614824534668
145,8411.13668089375116304852461581455808,8409.6,1.53668089375116304852461581455808
146,8527.53806521891117261359314170280163,8526.0,1.53806521891117261359314170280163
147,8644.73944008852809871967621371499529,8643.2,1.53944008852809871967621371499529
148,8762.74080563095003304900371751239356,8761.2,1.54080563095003304900371751239356
149,8881.54216197192909259761875230082941,8880.0,1.54216197192909259761875230082941
150,9001.14350923469097300989242353551288,8999.6,1.54350923469097300989242353551288
151,9121.54484754000218813488976874326292,9120.0,1.54484754000218813488976874326292
152,9242.74617700623508610373575981676665,9241.2,1.54617700623508610373575981676665
153,9364.74749774943073087765427428124688,9363.2,1.54749774943073087765427428124688
154,9487.54880988335973316590055592393983,9486.0,1.54880988335973316590055592393983
155,9611.15011351958110894955818473866252,9609.6,1.55011351958110894955818473866252
156,9735.55140876749924347754184363160966,9734.0,1.55140876749924347754184363160966
157,9860.75269573441903178138628498297991,9859.2,1.55269573441903178138628498297991
158,9986.75397452559926752690072708377505,9985.2,1.55397452559926752690072708377505
159,10113.5552452443043438754988491325679,10112.0,1.5552452443043438754988491325679
160,10241.1565079918543326927197060631824,10239.6,1.5565079918543326927197060631824
161,10369.5577628676735006000357003450380,10368.0,1.5577628676735006000357003450380
162,10498.7590099693373213310245406597619,10497.2,1.5590099693373213310245406597619
163,10628.7602493926180392451797052446704,10627.2,1.5602493926180392451797052446704
164,10759.5614812315288386359302160015774,10758.0,1.5614812315288386359302160015774
165,10891.1627055783666674330629637996862,10889.6,1.5627055783666674330629637996862
166,11023.5639225237537658151116547654098,11022.0,1.5639225237537658151116547654098
167,11156.7651321566779469640077969164347,11155.2,1.5651321566779469640077969164347
168,11290.7663345645316726508830708781596,11289.2,1.5663345645316726508830708781596
169,11425.5675298331499687150891714392328,11424.0,1.5675298331499687150891714392328
170,11561.1687180468472201795272401819583,11559.6,1.5687180468472201795272401819583
171,11697.5698992884528861967230379161361,11696.0,1.5698992884528861967230379161361
172,11834.7710736393461726922824176325414,11833.2,1.5710736393461726922824176325414
173,11972.7722411794896981080332682519748,11971.2,1.5722411794896981080332682519748
174,12111.5734019874621880883447037536229,12110.0,1.5734019874621880883447037536229
175,12251.1745561404902330945322047766750,12249.6,1.5745561404902330945322047766750
176,12391.5757037144791386536781016279410,12390.0,1.5757037144791386536781016279410
177,12532.7768447840429015023809512217025,12531.2,1.5768447840429015023809512217025
178,12674.7779794225333407798064775136753,12673.2,1.5779794225333407798064775136753
179,12817.5791077020684107149623602180939,12816.0,1.5791077020684107149623602180939
180,12961.1802296935597257545721205610747,12959.6,1.5802296935597257545721205610747
181,13105.5813454667393207801108827911021,13104.0,1.5813454667393207801108827911021
182,13250.7824550901856741093648803893711,13249.2,1.5824550901856741093648803893711
183,13396.7835586313490163317653111612308,13395.2,1.5835586313490163317653111612308
184,13543.5846561565759492190091908572055,13542.0,1.5846561565759492190091908572055
185,13691.1857477311333965190672771569094,13689.6,1.5857477311333965190672771569094
186,13839.5868334192319076021746977699076,13838.0,1.5868334192319076021746977699076
187,13988.7879132840483377592788513185991,13987.2,1.5879132840483377592788513185991
188,14138.7889873877479205892351216014552,14137.2,1.5889873877479205892351216014552
189,14289.5900557915057562058149264157294,14288.0,1.5900557915057562058149264157294
190,14441.1911185555277309155771913913544,14439.6,1.5911185555277309155771913913544
191,14593.5921757390708875891283620590899,14592.0,1.5921757390708875891283620590899
192,14746.7932274004632631079466267086465,14745.2,1.5932274004632631079466267086465
193,14900.7942735971232111905903306116673,14899.2,1.5942735971232111905903306116673
194,15055.5953143855782239390449780892848,15054.0,1.5953143855782239390449780892848
195,15211.1963498214832700375385151454396,15209.6,1.5963498214832700375385151454396
196,15367.5973799596386632956956485397796,15366.0,1.5973799596386632956956485397796
197,15524.7984048540074759113224755619740,15523.2,1.5984048540074759113224755619740
198,15682.7994245577325106147704830372019,15681.2,1.5994245577325106147704830372019
199,15841.6004391231528445287039603434358,15840.0,1.6004391231528445287039603434358
200,16001.2014486018199586834398032494974,15999.6,1.6014486018199586834398032494974
201,16161.6024530445134641642469285118775,16160.0,1.6024530445134641642469285118775
202,16322.8034525012564382667256288291129,16321.2,1.6034525012564382667256288291129
203,16484.8044470213303813149567534662878,16483.2,1.6044470213303813149567534662878
204,16647.6054366532898057572917362210863,16646.0,1.6054366532898057572917362210863
205,16811.2064214449764675051035863181638,16809.6,1.6064214449764675051035863181638
206,16975.6074014435332525332055122598670,16974.0,1.6074014435332525332055122598670
207,17140.8083766954177246125709443028424,17139.2,1.6083766954177246125709443028424
208,17306.8093472464153483967694225792393,17305.2,1.6093472464153483967694225792393
209,17473.6103131416523936049548066401508,17472.0,1.6103131416523936049548066401508
210,17641.2112744256085317970146301020835,17639.6,1.6112744256085317970146301020835
211,17809.6122311421291330998459550095447,17808.0,1.6122311421291330998459550095447
212,17978.8131833344372731118900458760755,17977.2,1.6131833344372731118900458760755
213,18148.8141310451454543638235315201491,18147.2,1.6141310451454543638235315201491
214,18319.6150743162670573110989211016355,18318.0,1.6150743162670573110989211016355
215,18491.2160131892275200645699541033144,18489.6,1.6160131892275200645699541033144
216,18663.6169477048752608136618833285057,18662.0,1.6169477048752608136618833285057
217,18836.8178779034923469011324767911595,18835.2,1.6178779034923469011324767911595
218,19010.8188038248049195218771838097643,19009.2,1.6188038248049195218771838097643
219,19185.6197255079933773187179393044112,19184.0,1.6197255079933773187179393044112
220,19361.2206429917023313833064686822395,19359.6,1.6206429917023313833064686822395
221,19537.6215563140503295644359298814498,19536.0,1.6215563140503295644359298814498
222,19714.8224655126393672811295170805249,19713.2,1.6224655126393672811295170805249
223,19892.8233706245641784013409678854468,19891.2,1.6233706245641784013409678854468
224,20071.6242716864213212455686838370197,20070.0,1.6242716864213212455686838370197
225,20251.2251687343180622719299696052859,20249.6,1.6251687343180622719299696052859
226,20431.6260618038810609806394796670952,20430.0,1.6260618038810609806394796670952
227,20612.8269509302648646807423274741959,20611.2,1.6269509302648646807423274741959
228,20794.8278361481602149293052048212939,20793.2,1.6278361481602149293052048212939
229,20977.6287174918021727952126453356564,20976.0,1.6287174918021727952126453356564
230,21161.2295949949780676338087677337292,21159.6,1.6295949949780676338087677337292
231,21345.6304686910352711616516810564246,21344.0,1.6304686910352711616516810564246
232,21530.8313386128888072402970211746895,21529.2,1.6313386128888072402970211746895
233,21716.8322047930287923546118483803967,21715.2,1.6322047930287923546118483803967
234,21903.6330672635277229316807968364814,21902.0,1.6330672635277229316807968364814
235,22091.2339260560476026714009648357744,22089.6,1.6339260560476026714009648357744
236,22279.6347812018469195875300005567063,22278.0,1.6347812018469195875300005567063
237,22468.8356327317874763793109784315806,22467.2,1.6356327317874763793109784315806
238,22658.8364806763410758646806801327516,22657.2,1.6364806763410758646806801327516
