Eigenstate,Energy,Kinetic Energy,Potential Energy
1,0.500000000078568859974488285514110872,0.0,0.500000000078568859974488285514110872
2,1.84623093816397209753365054819718838,1.2,0.64623093816397209753365054819718838
3,3.93633761121145706305060276701153752,3.2,0.73633761121145706305060276701153752
4,6.79966528095207907768687078131577285,6.0,0.79966528095207907768687078131577285
5,10.4480465807210927058475600458257675,9.6,0.8480465807210927058475600458257675
6,14.8870660052811138551777729201837363,14.0,0.8870660052811138551777729201837363
7,20.1197208360740550453671193513439243,19.2,0.9197208360740550453671193513439243
8,26.1477838594788556832433818851519308,25.2,0.9477838594788556832433818851519308
9,32.9723835745029773214970236546060842,32.0,0.9723835745029773214970236546060842
10,40.5942802352957634522932481438035016,39.6,0.9942802352957634522932481438035016
11,49.0140094119988025695546261230412080,48.0,1.0140094119988025695546261230412080
12,58.2319621999171484436043164514416418,57.2,1.0319621999171484436043164514416418
13,68.2484327291169601792722096605311944,67.2,1.0484327291169601792722096605311944
14,79.0636476972816915197853155353593073,78.0,1.0636476972816915197853155353593073
15,90.6777854855262924901170598851580240,89.6,1.0777854855262924901170598851580240
16,103.090988963267665058154123342048506,102.0,1.090988963267665058154123342048506
17,116.303374321686174464327882899477550,115.2,1.103374321686174464327882899477550
18,130.315037324731853464845435847667753,129.2,1.115037324731853464845435847667753
19,145.126057832228383312034788446849853,144.0,1.126057832228383312034788446849853
20,160.736503137507032617027611772577018,159.6,1.136503137507032617027611772577018
21,177.146430473488356303791254386785636,176.0,1.146430473488356303791254386785636
22,194.355888923840937068024837574803498,193.2,1.155888923840937068024837574803498
23,212.364920900917911038140332800516888,211.2,1.164920900917911038140332800516888
24,231.173563303157390709235858516562445,230.0,1.173563303157390709235858516562445
25,250.781848431878391940435404464500537,249.6,1.181848431878391940435404464500537
26,271.189804725088422185800975188904116,270.0,1.189804725088422185800975188904116
27,292.397457350446056715909781818387456,291.2,1.197457350446056715909781818387456
28,314.404828688619978769931318111124944,313.2,1.204828688619978769931318111124944
29,337.211938730490931750895312792570556,336.0,1.211938730490931750895312792570556
30,360.818805405993544003575537431224393,359.6,1.218805405993544003575537431224393
31,385.225444858249048211505948971141406,384.0,1.225444858249048211505948971141406
32,410.431871673562017862880012100433515,409.2,1.231871673562017862880012100433515
33,436.438099075544595429469638368167543,435.2,1.238099075544595429469638368167543
34,463.244139089881140635457122624694756,462.0,1.244139089881140635457122624694756
35,490.850002684907032126574394575340952,489.6,1.250002684907032126574394575340952
36,519.255699892141876970802799105564806,518.0,1.255699892141876970802799105564806
37,548.461239910113297872928916245476570,547.2,1.261239910113297872928916245476570
38,578.466631194177049241778072963610450,577.2,1.266631194177049241778072963610450
39,609.271881534541364599175959183545509,608.0,1.271881534541364599175959183545509
40,640.876998124307617035948760254677875,639.6,1.276998124307617035948760254677875
41,673.281987619022624146400037670660275,672.0,1.281987619022624146400037670660275
42,706.486856188982936271079370059797857,705.2,1.286856188982936271079370059797857
43,740.491609565324960532648787737176763,739.2,1.291609565324960532648787737176763
44,775.296253080766679134075683168637327,774.0,1.296253080766679134075683168637327
45,810.900791705729150819325960047776606,809.6,1.300791705729150819325960047776606
46,847.305230080452848114091531455599186,846.0,1.305230080452848114091531455599186
47,884.509572543630406351717642353754310,883.2,1.309572543630406351717642353754310
48,922.513823157999774125217717175181083,921.2,1.313823157999774125217717175181083
49,961.317985733277092262342550557205397,960.0,1.317985733277092262342550557205397
50,1000.92206384675450570699756825039059,999.6,1.32206384675450570699756825039059
51,1041.32606086184264572781328149554642,1040.0,1.32606086184264572781328149554642
52,1082.52997994479917466036097882683639,1081.2,1.32997994479917466036097882683639
53,1124.53382407985233527094850929993304,1123.2,1.33382407985233527094850929993304
54,1167.33759608290088569846566168144338,1166.0,1.33759608290088569846566168144338
55,1210.94129861394832543822874774144044,1209.6,1.34129861394832543822874774144044
56,1255.34493418840924326164241540284143,1254.0,1.34493418840924326164241540284143
57,1300.54850518740841900037191778352231,1299.2,1.34850518740841900037191778352231
58,1346.55201386717851393742383100144041,1345.2,1.35201386717851393742383100144041
59,1393.35546236764943060025348476402256,1392.0,1.35546236764943060025348476402256
60,1440.95885272031139824331221590627160,1439.6,1.35885272031139824331221590627160
61,1489.36218685542427607993979340430117,1488.0,1.36218685542427607993979340430117
62,1538.56546660863726531839158560819633,1537.2,1.36546660863726531839158560819633
63,1588.56869372707597916776717303863869,1587.2,1.36869372707597916776717303863869
64,1639.37186987494750749968321779263374,1638.0,1.37186987494750749968321779263374
65,1690.97499663870857801155922523584175,1689.6,1.37499663870857801155922523584175
66,1743.37807553183706839832904508145906,1742.0,1.37807553183706839832904508145906
67,1796.58110799924286174806414272901811,1795.2,1.38110799924286174806414272901811
68,1850.58409542135028121618506374762446,1849.2,1.38409542135028121618506374762446
69,1905.38703911788102736220995601796134,1904.0,1.38703911788102736220995601796134
70,1960.98994035136361326472373384168899,1959.6,1.38994035136361326472373384168899
71,2017.39280033039269382652043114341013,2016.0,1.39280033039269382652043114341013
72,2074.59562021265938743948997456833265,2073.2,1.39562021265938743948997456833265
73,2132.59840110777163517241741192969886,2131.2,1.39840110777163517241741192969886
74,2191.40114407988182379630874236136835,2190.0,1.40114407988182379630874236136835
75,2251.00385015013726786075460224925904,2249.6,1.40385015013726786075460224925904
76,2311.40652029896769647808696216158833,2310.0,1.40652029896769647808696216158833
77,2372.60915546822258807366599342559850,2371.2,1.40915546822258807366599342559850
78,2434.61175656317003056245362362511970,2433.2,1.41175656317003056245362362511970
79,2497.41432445436773759203781064893663,2496.0,1.41432445436773759203781064893663
80,2561.01685997941591336662677769233448,2559.6,1.41685997941591336662677769233448
81,2625.41936394460080922505606186553048,2624.0,1.41936394460080922505606186553048
82,2690.62183712643705369529717696429158,2689.2,1.42183712643705369529717696429158
83,2756.62428027311614901416700188900366,2755.2,1.42428027311614901416700188900366
84,2823.42669410586790280922091499162045,2822.0,1.42669410586790280922091499162045
85,2891.02907932024100436363881714015121,2889.6,1.42907932024100436363881714015121
86,2959.43143658730843901952363139157116,2958.0,1.43143658730843901952363139157116
87,3028.63376655480297680423238916377975,3027.2,1.43376655480297680423238916377975
88,3098.63606984818754798662384116803661,3097.2,1.43606984818754798662384116803661
89,3169.43834707166493476794518740370110,3168.0,1.43834707166493476794518740370110
90,3241.04059880913086509535125102296755,3239.6,1.44059880913086509535125102296755
91,3313.44282562507427313399882211148840,3312.0,1.44282562507427313399882211148840
92,3386.64502806542820263611950371817530,3385.2,1.44502806542820263611950371817530
93,3460.64720665837456719041912773582212,3459.2,1.44720665837456719041912773582212
94,3535.44936191510573840641348332043596,3534.0,1.44936191510573840641348332043596
95,3611.05149433054571193428132661318125,3609.6,1.45149433054571193428132661318125
96,3687.45360438403339939869908834787689,3686.0,1.45360438403339939869908834787689
97,3764.65569253997040998301240703975703,3763.2,1.45569253997040998301240703975703
98,3842.65775924843551252580459731495492,3841.2,1.45775924843551252580459731495492
99,3921.45980494576781551973363946954514,3920.0,1.45980494576781551973363946954514
100,4001.06183005512055606209271547168771,3999.6,1.46183005512055606209271547168771
101,4081.46383498698725950239544691047448,4080.0,1.46383498698725950239544691047448
102,4162.66582013970190595756566141741078,4161.2,1.46582013970190595756566141741078
103,4244.66778589991463195169867487699596,4243.2,1.46778589991463195169867487699596
104,4327.46973264304438817265151413975615,4326.0,1.46973264304438817265151413975615
105,4411.07166073370988126396154639592538,4409.6,1.47166073370988126396154639592538
106,4495.47357052614003680635033133196746,4494.0,1.47357052614003680635033133196746
107,4580.67546236456514256111380932129487,4579.2,1.47546236456514256111380932129487
108,4666.67733658358975180814577847003091,4665.2,1.47733658358975180814577847003091
109,4753.47919350854835801780761665225882,4752.0,1.47919350854835801780761665225882
110,4841.08103345584478967573213674146872,4839.6,1.48103345584478967573213674146872
111,4929.48285673327620821845121768056429,4928.0,1.48285673327620821845121768056429
112,5018.68466364034254260410358845312811,5017.2,1.48466364034254260410358845312811
113,5108.68645446854213850668493731493181,5107.2,1.48645446854213850668493731493181
114,5199.48822950165435136454669338165432,5198.0,1.48822950165435136454669338165432
115,5291.08998901600977206534704431303596,5289.6,1.48998901600977206534704431303596
116,5383.49173328074872571801001342432081,5382.0,1.49173328074872571801001342432081
117,5476.69346255806865224924160922389525,5475.2,1.49346255806865224924160922389525
118,5570.69517710346093653104670938845147,5569.2,1.49517710346093653104670938845147
119,5665.49687716593772203197423104037706,5664.0,1.49687716593772203197423104037706
120,5761.09856298824921614258341993139027,5759.6,1.49856298824921614258341993139027
121,5857.50023480709195705837977815180701,5856.0,1.50023480709195705837977815180701
122,5954.70189285330849319033685850376437,5953.2,1.50189285330849319033685850376437
123,6052.70353735207889388018804023334804,6051.2,1.50353735207889388018804023334804
124,6151.50516852310449251786416360224325,6150.0,1.50516852310449251786416360224325
125,6251.10678658078423359218991980387241,6249.6,1.50678658078423359218991980387241
126,6351.50839173438398000865435557792712,6350.0,1.50839173438398000865435557792712
127,6452.70998418819911643018484811660159,6451.2,1.50998418819911643018484811660159
128,6554.71156414171076180966432279470406,6553.2,1.51156414171076180966432279470406
129,6657.51313178973589220969312415593384,6656.0,1.51313178973589220969312415593384
130,6761.11468732257165662323025488252768,6759.6,1.51468732257165662323025488252768
131,6865.51623092613415310463080371780660,6864.0,1.51623092613415310463080371780660
132,6970.71776278209191754339604153641443,6969.2,1.51776278209191754339604153641443
133,7076.71928306799436563136768562121493,7075.2,1.51928306799436563136768562121493
134,7183.52079195739541729814127659627727,7182.0,1.52079195739541729814127659627727
135,7291.12228961997251478112947710173972,7289.6,1.52228961997251478112947710173972
136,7399.52377622164124180917671763015495,7398.0,1.52377622164124180917671763015495
137,7508.72525192466573807068352901922534,7507.2,1.52525192466573807068352901922534
138,7618.72671688776508952520791289624730,7617.2,1.52671688776508952520791289624730
139,7729.52817126621587301160624844291251,7728.0,1.52817126621587301160624844291251
140,7841.12961521195101815980783408369102,7839.6,1.52961521195101815980783408369102
141,7953.53104887365514505582755622164305,7952.0,1.53104887365514505582755622164305
142,8066.73247239685652803635449880943063,8065.2,1.53247239685652803635449880943063
143,8180.73388592401582733908506513671922,8179.2,1.53388592401582733908506513671922
144,8295.53528959461172315533262652079409,8294.0,1.53528959461172315533262652079409
145,8411.13668354522358244368657206972062,8409.6,1.53668354522358244368657206972062
146,8527.53806790961128099474326128652262,8526.0,1.53806790961128099474326128652262
147,8644.73944281879229503396576117184840,8643.2,1.53944281879229503396576117184840
148,8762.74080840111617769169548325519106,8761.2,1.54080840111617769169548325519106
149,8881.54216478233652214126584612358573,8880.0,1.54216478233652214126584612358573
150,9001.14351208568051504608999561940150,8999.6,1.54351208568051504608999561940150
151,9121.54485043191617622997257058295690,9120.0,1.54485043191617622997257058295690
152,9242.74617993941737486980949157520617,9241.2,1.54617993941737486980949157520617
153,9364.74750072422671116036474719092284,9363.2,1.54750072422671116036474719092284
154,9487.54881290011634735036051773637767,9486.0,1.54881290011634735036051773637767
155,9611.15011657864686638586806599797635,9609.6,1.55011657864686638586806599797635
156,9735.55141186922423602735714386879603,9734.0,1.55141186922423602735714386879603
157,9860.75269887915494948700084983037388,9859.2,1.55269887915494948700084983037388
158,9986.75397771369941440433236561082043,9985.2,1.55397771369941440433236561082043
159,10113.5552484761236538330807391508400,10112.0,1.5552484761236538330807391508400
160,10241.1565112677493855767187585668755,10239.6,1.5565112677493855767187585668755
161,10369.5577661880025383688366637945375,10368.0,1.5577661880025383688366637945375
162,10498.7590133344602643594365106648745,10497.2,1.5590133344602643594365106648745
163,10628.7602528028965027604401001778275,10627.2,1.5602528028965027604401001778275
164,10759.5614846873261492869998539861544,10758.0,1.5614846873261492869998539861544
165,10891.1627090800478799948245771979264,10889.6,1.5627090800478799948245771979264
166,11023.5639260716856800291032314731557,11022.0,1.5639260716856800291032314731557
167,11156.7651357512291245173415901759676,11155.2,1.5651357512291245173415901759676
168,11290.7663382060724542950208617704415,11289.2,1.5663382060724542950208617704415
169,11425.5675335220524915261640205365786,11424.0,1.5675335220524915261640205365786
170,11561.1687217834854349619225078184541,11559.6,1.5687217834854349619225078184541
171,11697.5699030732025750316399429731078,11696.0,1.5699030732025750316399429731078
172,11834.7710774725849666330480059548619,11833.2,1.5710774725849666330480059548619
173,11972.7722450615970950239222523648654,11971.2,1.5722450615970950239222523648654
174,12111.5734059188195706587095588131117,12110.0,1.5734059188195706587095588131117
175,12251.1745601214808869550584078173733,12249.6,1.5745601214808869550584078173733
176,12391.5757077454882706966027790494989,12390.0,1.5757077454882706966027790494989
177,12532.7768488654576583325362728222470,12531.2,1.5768488654576583325362728222470
178,12674.7779835547428273283715746525413,12673.2,1.5779835547428273283715746525413
179,12817.5791118854637090128306675922689,12816.0,1.5791118854637090128306675922689
180,12961.1802339285339138672648341692342,12959.6,1.5802339285339138672648341692342
181,13105.5813497536874919061906871660414,13104.0,1.5813497536874919061906871660414
182,13250.7824594295049558443284922549160,13249.2,1.5824594295049558443284922549160
183,13396.7835630234385900994180304159894,13395.2,1.5835630234385900994180304159894
184,13543.5846606018370698723490866791236,13542.0,1.5846606018370698723490866791236
185,13691.1857522299694121127331339409134,13689.6,1.5857522299694121127331339409134
186,13839.5868379720482793385355187142188,13838.0,1.5868379720482793385355187142188
187,13988.7879178912526601102709438274931,13987.2,1.5879178912526601102709438274931
188,14138.7889920497499415960779190613085,14137.2,1.5889920497499415960779190613085
189,14289.5900605087173979587638296733067,14288.0,1.5900605087173979587638296733067
190,14441.1911233283631102158992190543784,14439.6,1.5911233283631102158992190543784
191,14593.5921805679463367955140661054562,14592.0,1.5921805679463367955140661054562
192,14746.7932322857973511695995652043066,14745.2,1.5932322857973511695995652043066
193,14900.7942785393367648692642962679149,14899.2,1.5942785393367648692642962679149
194,15055.5953193850943492223275774507349,15054.0,1.5953193850943492223275774507349
195,15211.1963548787273737457100238531567,15209.6,1.5963548787273737457100238531567
196,15367.5973850750384748845210858597730,15366.0,1.5973850750384748845210858597730
197,15524.7984100279930694731655042391599,15523.2,1.5984100279930694731655042391599
198,15682.7994297907363270804483984910285,15681.2,1.5994297907363270804483984910285
199,15841.6004444156097140725347822712762,15840.0,1.6004444156097140725347822712762
200,16001.2014539541671233339635010822051,15999.6,1.6014539541671233339635010822051
201,16161.6024584571906006231353253474855,16160.0,1.6024584571906006231353253474855
202,16322.8034579747056809384288562552884,16321.2,1.6034579747056809384288562552884
203,16484.8044525559963455496660462246319,16483.2,1.6044525559963455496660462246319
204,16647.6054422496196113098335603054562,16646.0,1.6054422496196113098335603054562
205,16811.2064271034197622124131438643814,16809.6,1.6064271034197622124131438643814
206,16975.6074071645422362130630991572028,16974.0,1.6074071645422362130630991572028
207,17140.8083824794471731863202493761354,17139.2,1.6083824794471731863202493761354
208,17306.8093530939226382387716923057103,17305.2,1.6093530939226382387716923057103
209,17473.6103190530975261215705730797560,17472.0,1.6103190530975261215705730797560
210,17641.2112804014541582379403149797399,17639.6,1.6112804014541582379403149797399
211,17809.6122371828405796046715811500785,17808.0,1.6122371828405796046715811500785
212,17978.8131894404825659947814324015265,17977.2,1.6131894404825659947814324015265
213,18148.8141372169953456392717783253773,18147.2,1.6141372169953456392717783253773
214,18319.6150805543950504637189201327150,18318.0,1.6150805543950504637189201327150
215,18491.2160194941098960659699268721707,18489.6,1.6160194941098960659699268721707
216,18663.6169540769911043894465637940872,18662.0,1.6169540769911043894465637940872
217,18836.8178843433235730511437308658128,18835.2,1.6178843433235730511437308658128
218,19010.8188103328363002968174137873500,19009.2,1.6188103328363002968174137873500
219,19185.6197320847125688563453432800631,19184.0,1.6197320847125688563453432800631
220,19361.2206496375999012074329932512062,19359.6,1.6206496375999012074329932512062
221,19537.6215630296197841500035890140769,19536.0,1.6215630296197841500035890140769
222,19714.8224722983771798886853114138543,19713.2,1.6224722983771798886853114138543
223,19892.8233774809698171842758872298322,19891.2,1.6233774809698171842758872298322
224,20071.6242786139972776335319901219975,20070.0,1.6242786139972776335319901219975
225,20251.2251757335698796338772440119612,20249.6,1.6251757335698796338772440119612
226,20431.6260688753173635710205079286504,20430.0,1.6260688753173635710205079286504
227,20612.8269580743973868723823068350618,20611.2,1.6269580743973868723823068350618
228,20794.8278433655038307365832074188118,20793.2,1.6278433655038307365832074188118
229,20977.6287247828749256911898816998524,20976.0,1.6287247828749256911898816998524
230,21161.2296023603012006650105921042031,21159.6,1.6296023603012006650105921042031
231,21345.6304761311332573642584716959654,21344.0,1.6304761311332573642584716959654
232,21530.8313461282893803615516750015719,21529.2,1.6313461282893803615516750015719
233,21716.8322123842629778833039153453264,21715.2,1.6322123842629778833039153453264
234,21903.6330749311298694416226807321945,21902.0,1.6330749311298694416226807321945
235,22091.2339338005554134818653937830415,22089.6,1.6339338005554134818653937830415
236,22279.6347890238014847446737254417398,22278.0,1.6347890238014847446737254417398
237,22468.8356406317333049626674540422004,22467.2,1.6356406317333049626674540422004
238,22658.8364886548261286228606160712982,22657.2,1.6364886548261286228606160712982
