Eigenstate,Energy,Kinetic Energy,Potential Energy
1,0.500000000202608168841217311008604383,0.0,0.500000000202608168841217311008604383
2,1.84623093897364440248382685293353428,1.2,0.64623093897364440248382685293353428
3,3.93633761358984215612387517507265418,3.2,0.73633761358984215612387517507265418
4,6.79966528590609217717485028150896580,6.0,0.79966528590609217717485028150896580
5,10.4480465893026967133996637023522474,9.6,0.8480465893026967133996637023522474
6,14.8870660185608341624095924544340925,14.0,0.8870660185608341624095924544340925
7,20.1197208551312445010952953291089752,19.2,0.9197208551312445010952953291089752
8,26.1477838853976564296403314066140285,25.2,0.9477838853976564296403314066140285
9,32.9723836083704630337982334690465768,32.0,0.9723836083704630337982334690465768
10,40.5942802782010148739423689631499810,39.6,0.9942802782010148739423689631499810
11,49.0140094650324224309080933463922561,48.0,1.0140094650324224309080933463922561
12,58.2319622641710003146781784743574964,57.2,1.0319622641710003146781784743574964
13,68.2484328056840292642443149416262688,67.2,1.0484328056840292642443149416262688
14,79.0636477872560156608470144000575540,78.0,1.0636477872560156608470144000575540
15,90.6777855900029355594469295681298042,89.6,1.0777855900029355594469295681298042
16,103.090989083342717008637261847018806,102.0,1.090989083342717008637261847018806
17,116.303374458456768754501054111914463,115.2,1.103374458456768754501054111914463
18,130.315037479296196168878747720314035,129.2,1.115037479296196168878747720314035
19,145.126058005685790312817630453411140,144.0,1.126058005685790312817630453411140
20,160.736503330957972535455202075689292,159.6,1.136503330957972535455202075689292
21,177.146430688034497595810469299376954,176.0,1.146430688034497595810469299376954
22,194.355889160585198217435502638553630,193.2,1.155889160585198217435502638553630
23,212.364921160964513097704240814143144,211.2,1.164921160964513097704240814143144
24,231.173563587611911659639546989538116,230.0,1.173563587611911659639546989538116
25,250.781848741847822484706304934921306,249.6,1.181848741847822484706304934921306
26,271.189805061681222699674505542653153,270.0,1.189805061681222699674505542653153
27,292.397457714772215147375832138036800,291.2,1.197457714772215147375832138036800
28,314.404829081791069333397665318461479,313.2,1.204829081791069333397665318461479
29,337.211939153620174299420506684410344,336.0,1.211939153620174299420506684410344
30,360.818805860195863990670084604623917,359.6,1.218805860195863990670084604623917
31,385.225445344641137174946367120462400,384.0,1.225445344641137174946367120462400
32,410.431872193262394378801543360905481,409.2,1.231872193262394378801543360905481
33,436.438099629673666497081495408522022,435.2,1.238099629673666497081495408522022
34,463.244139679561263462036791981249049,462.0,1.244139679561263462036791981249049
35,490.850003311262576289645488141564706,489.6,1.250003311262576289645488141564706
36,519.255700556299286940092322064490759,518.0,1.255700556299286940092322064490759
37,548.461240613201155879206738662931577,547.2,1.261240613201155879206738662931577
38,578.466631937326138483279174319467202,577.2,1.266631937326138483279174319467202
39,609.271882318884732779200488377710329,608.0,1.271882318884732779200488377710329
40,640.876998950980640227581132510532816,639.6,1.276998950980640227581132510532816
41,673.281988489163070982203832764613790,672.0,1.281988489163070982203832764613790
42,706.486857103731032457200198235295168,705.2,1.286857103731032457200198235295168
43,740.491610525823453688062044636619423,739.2,1.291610525823453688062044636619423
44,775.296254088160903956804201772511611,774.0,1.296254088160903956804201772511611
45,810.900792761167094582366624294352917,809.6,1.300792761167094582366624294352917
46,847.305231185085216494563171022957931,846.0,1.305231185085216494563171022957931
47,884.509573698610689597401146821055105,883.2,1.309573698610689597401146821055105
48,922.513824364484313563224856216675258,921.2,1.313824364484313563224856216675258
49,961.317986992425147155138720632036849,960.0,1.317986992425147155138720632036849
50,1000.92206515972832046142965178820392,999.6,1.32206515972832046142965178820392
51,1041.32606222980751746316795997385356,1040.0,1.32606222980751746316795997385356
52,1082.52998136892352114180973982743416,1081.2,1.32998136892352114180973982743416
53,1124.53382556130776321503098317327597,1123.2,1.33382556130776321503098317327597
54,1167.33759762286225945752873599778194,1166.0,1.33759762286225945752873599778194
55,1210.94130021359383607097984135144783,1209.6,1.34130021359383607097984135144783
56,1255.34493584892047799719574234378775,1254.0,1.34493584892047799719574234378775
57,1300.54850690997043110336964145886649,1299.2,1.34850690997043110336964145886649
58,1346.55201565297989298200326357635058,1345.2,1.35201565297989298200326357635058
59,1393.35546421788237316080793158064074,1392.0,1.35546421788237316080793158064074
60,1440.95885463617177901016032430022522,1439.6,1.35885463617177901016032430022522
61,1489.36218883811171940817681880381864,1488.0,1.36218883811171940817681880381864
62,1538.56546865935521721834811882646793,1537.2,1.36546865935521721834811882646793
63,1588.56869584703177974564696627597589,1587.2,1.36869584703177974564696627597589
64,1639.37187206535246385709341962220667,1638.0,1.37187206535246385709341962220667
65,1690.97499890077803761278490726605056,1689.6,1.37499890077803761278490726605056
66,1743.37807786679049291433865743202676,1742.0,1.37807786679049291433865743202676
67,1796.58111040830390138636579974716910,1795.2,1.38111040830390138636579974716910
68,1850.58409790574684954578486991934531,1849.2,1.38409790574684954578486991934531
69,1905.38704167884537664305427554970942,1904.0,1.38704167884537664305427554970942
70,1960.98994299013241029113595262543226,1959.6,1.38994299013241029113595262543226
71,2017.39280304820709629427322630305920,2016.0,1.39280304820709629427322630305920
72,2074.59562301076512084628229168634373,2073.2,1.39562301076512084628229168634373
73,2132.59840398741907026165603209086518,2131.2,1.39840398741907026165603209086518
74,2191.40114704232605455422381087623729,2190.0,1.40114704232605455422381087623729
75,2251.00385319663819007701022583801970,2249.6,1.40385319663819007701022583801970
76,2311.40652343079008688017947342456060,2310.0,1.40652343079008688017947342456060
77,2372.60915868663618404553651271414625,2371.2,1.40915868663618404553651271414625
78,2434.61175986944961045787624530845609,2433.2,1.41175986944961045787624530845609
79,2497.41432784979320165348128842147980,2496.0,1.41432784979320165348128842147980
80,2561.01686346527236526042546517626218,2559.6,1.41686346527236526042546517626218
81,2625.41936752217863820386650984043640,2624.0,1.41936752217863820386650984043640
82,2690.62184079703201739895842018132897,2689.2,1.42184079703201739895842018132897
83,2756.62428403802945692022720781972015,2755.2,1.42428403802945692022720781972015
84,2823.42669796640630034453928151632656,2822.0,1.42669796640630034453928151632656
85,2891.02908327771685768862067356166601,2889.6,1.42908327771685768862067356166601
86,2959.43144064303982049669773237108064,2958.0,1.43144064303982049669773237108064
87,3028.63377071011375116303365553565616,3027.2,1.43377071011375116303365553565616
88,3098.63607410440745919640083386466716,3097.2,1.43607410440745919640083386466716
89,3169.43835143012969363137119241881956,3168.0,1.43835143012969363137119241881956
90,3241.04060327118223757457953399457315,3239.6,1.44060327118223757457953399457315
91,3313.44283019206016942206804876349038,3312.0,1.44283019206016942206804876349038
92,3386.64503273870276698628269372147933,3385.2,1.44503273870276698628269372147933
93,3460.64721143929826851624099453603990,3459.2,1.44721143929826851624099453603990
94,3535.44936680504546166565486026088220,3534.0,1.44936680504546166565486026088220
95,3611.05149933087485030976709041710187,3609.6,1.45149933087485030976709041710187
96,3687.45360949613194728954606407285698,3686.0,1.45360949613194728954606407285698
97,3764.65569776522505681977883560452521,3763.2,1.45569776522505681977883560452521
98,3842.65776458823973742330924947216042,3841.2,1.45776458823973742330924947216042
99,3921.45981040152198278148458940400791,3920.0,1.45981040152198278148458940400791
100,4001.06183562823201155046020752361187,3999.6,1.46183562823201155046020752361187
101,4081.46384067887042788886179791591796,4080.0,1.46384067887042788886179791591796
102,4162.66582595177838886758745216693038,4161.2,1.46582595177838886758745216693038
103,4244.66779183361330701892244778979838,4243.2,1.46779183361330701892244778979838
104,4327.46973869980150901743500432890273,4326.0,1.46973869980150901743500432890273
105,4411.07166691496917841136563985970132,4409.6,1.47166691496917841136563985970132
106,4495.47357683335281955898607130629636,4494.0,1.47357683335281955898607130629636
107,4580.67546879919040184245102795722083,4579.2,1.47546879919040184245102795722083
108,4666.67734314709426399211656563322510,4665.2,1.47734314709426399211656563322510
109,4753.47920020240678976076964148719634,4752.0,1.47920020240678976076964148719634
110,4841.08104028153980376709207072677096,4839.6,1.48104028153980376709207072677096
111,4929.48286369229857046648901804559200,4928.0,1.48286369229857046648901804559200
112,5018.68467073419122977378373589384808,5017.2,1.48467073419122977378373589384808
113,5108.68646169872444732649004732083418,5107.2,1.48646169872444732649004732083418
114,5199.48823686968600861962390599270226,5198.0,1.48823686968600861962390599270226
115,5291.08999652341504579451720471393681,5289.6,1.48999652341504579451720471393681
116,5383.49174092906053753245464679975059,5382.0,1.49174092906053753245464679975059
117,5476.69347034882869079095213783141613,5475.2,1.49347034882869079095213783141613
118,5570.69518503821977208939634727151342,5569.2,1.49518503821977208939634727151342
119,5665.49688524625492233705295065755108,5664.0,1.49688524625492233705295065755108
120,5761.09857121569346335422292839310887,5759.6,1.49857121569346335422292839310887
121,5857.50024318324116597008759102775950,5856.0,1.50024318324116597008759102775950
122,5954.70190137974993066765548565820963,5953.2,1.50190137974993066765548565820963
123,6052.70354603040929955329941459208795,6051.2,1.50354603040929955329941459208795
124,6151.50517735493020074856835848911624,6150.0,1.50517735493020074856835848911624
125,6251.10679556772129673570321358352616,6249.6,1.50679556772129673570321358352616
126,6351.50840087805829299099362711136373,6350.0,1.50840087805829299099362711136373
127,6452.70999349024654266223307641782369,6451.2,1.50999349024654266223307641782369
128,6554.71157360377726045934711322314927,6553.2,1.51157360377726045934711322314927
129,6657.51314141347764685403767539478302,6656.0,1.51314141347764685403767539478302
130,6761.11469710965520530242593928675315,6759.6,1.51469710965520530242593928675315
131,6865.51624087823651980056635420944375,6864.0,1.51624087823651980056635420944375
132,6970.71777290090074510551042081828324,6969.2,1.51777290090074510551042081828324
133,7076.71929335520805017302053534519061,7075.2,1.51929335520805017302053534519061
134,7183.52080241472324408708725703310335,7182.0,1.52080241472324408708725703310335
135,7291.12230024913479564806370042873129,7289.6,1.52230024913479564806370042873129
136,7399.52378702436945409871199055087522,7398.0,1.52378702436945409871199055087522
137,7508.72526290270266515951946846840966,7507.2,1.52526290270266515951946846840966
138,7618.72672804286496293266046710847220,7617.2,1.52672804286496293266046710847220
139,7729.52818260014451612808231557655187,7728.0,1.52818260014451612808231557655187
140,7841.12962672648599161923568282412743,7839.6,1.52962672648599161923568282412743
141,7953.53106057058589377848487331551924,7952.0,1.53106057058589377848487331551924
142,8066.73248427798452996898060355069020,8065.2,1.53248427798452996898060355069020
143,8180.73389799115474391961365584501014,8179.2,1.53389799115474391961365584501014
144,8295.53530184958755153004246502825931,8294.0,1.53530184958755153004246502825931
145,8411.13669598987480946503618789986199,8409.6,1.53669598987480946503618789986199
146,8527.53808054578903902863727647866424,8526.0,1.53808054578903902863727647866424
147,8644.73945564836051960568752555517358,8643.2,1.53945564836051960568752555517358
148,8762.74082142595176700024095451597623,8761.2,1.54082142595176700024095451597623
149,8881.54217800432949847232348826627019,8880.0,1.54217800432949847232348826627019
150,9001.14352550673418811443024670943096,8999.6,1.54352550673418811443024670943096
151,9121.54486405394730848254267771229965,9120.0,1.54486405394730848254267771229965
152,9242.74619376435634878136954383624129,9241.2,1.54619376435634878136954383624129
153,9364.74751475401769855405521457330669,9363.2,1.54751475401769855405521457330669
154,9487.54882713671748077615451343072952,9486.0,1.54882713671748077615451343072952
155,9611.15013102403041259043838232250046,9609.6,1.55013102403041259043838232250046
156,9735.55142652537677154947631655780953,9734.0,1.55142652537677154947631655780953
157,9860.75271374807753841319213333092571,9859.2,1.55271374807753841319213333092571
158,9986.75399279740778832010319666443670,9985.2,1.55399279740778832010319666443670
159,10113.5552637766483940056946785001181,10112.0,1.5552637766483940056946785001181
160,10241.1565267871361074061025062662976,10239.6,1.5565267871361074061025062662976
161,10369.5577819283120781438694230481160,10368.0,1.5577819283120781438694230481160
162,10498.7590292977688683575360109729239,10497.2,1.5590292977688683575360109729239
163,10628.7602689912960187290387006960025,10627.2,1.5602689912960187290387006960025
164,10759.5615011029242203461997256433659,10758.0,1.5615011029242203461997256433659
165,10891.1627257249681410012294059016491,10889.6,1.5627257249681410012294059016491
166,11023.5639429480679564415484988057456,11022.0,1.5639429480679564415484988057456
167,11156.7651528612296338059847023647426,11155.2,1.5651528612296338059847023647426
168,11290.7663555518640099360088308823647,11289.2,1.5663555518640099360088308823647
169,11425.5675511058247096248669046645565,11424.0,1.5675511058247096248669046645565
170,11561.1687396074449435485105440175699,11559.6,1.5687396074449435485105440175699
171,11697.5699211395732260735859063838240,11696.0,1.5699211395732260735859063838240
172,11834.7710957836080508099598761757390,11833.2,1.5710957836080508099598761757390
173,11972.7722636195315593109511189720378,11971.2,1.5722636195315593109511189720378
174,12111.5734247259422387656366571439247,12110.0,1.5734247259422387656366571439247
175,12251.1745791800866826690419841024668,12249.6,1.5745791800866826690419841024668
176,12391.5757270578904441774613620249588,12390.0,1.5757270578904441774613620249588
177,12532.7768684339880154103615929723262,12531.2,1.5768684339880154103615929723262
178,12674.7780033817519618541993275211400,12673.2,1.5780033817519618541993275211400
179,12817.5791319733212383140537213362774,12816.0,1.5791319733212383140537213362774
180,12961.1802542796287173604514968821610,12959.6,1.5802542796287173604514968821610
181,13105.5813703704279529209687470113617,13104.0,1.5813703704279529209687470113617
182,13250.7824803143192067130162713764843,13249.2,1.5824803143192067130162713764843
183,13396.7835841787747605681284520886341,13395.2,1.5835841787747605681284520886341
184,13543.5846820301635388903577115104994,13542.0,1.5846820301635388903577115104994
185,13691.1857739337750630579934905834522,13689.6,1.5857739337750630579934905834522
186,13839.5868599538427587383376017935456,13838.0,1.5868599538427587383376017935456
187,13988.7879401535666399171794500278897,13987.2,1.5879401535666399171794500278897
188,14138.7890145951353850804517877075276,14137.2,1.5890145951353850804517877075276
189,14289.5900833397478292803500283687979,14288.0,1.5900833397478292803500283687979
190,14441.1911464476338877382115872927988,14439.6,1.5911464476338877382115872927988
191,14593.5922039780749302079536079115678,14592.0,1.5922039780749302079536079115678
192,14746.7932559894236224835470601332808,14745.2,1.5932559894236224835470601332808
193,14900.7943025391232533556777756068980,14899.2,1.5943025391232533556777756068980
194,15055.5953436837265603597112422743581,15054.0,1.5953436837265603597112422743581
195,15211.1963794789140722486822585114477,15209.6,1.5963794789140722486822585114477
196,15367.5974099795119818846047638056643,15366.0,1.5974099795119818846047638056643
197,15524.7984352395095639248492021559718,15523.2,1.5984352395095639248492021559718
198,15682.7994553120761514670255984152608,15681.2,1.5994553120761514670255984152608
199,15841.6004702495776844877220876334473,15840.0,1.6004702495776844877220876334473
200,16001.2014801035928440168243139649330,15999.6,1.6014801035928440168243139649330
201,16161.6024849249287830253986904168826,16160.0,1.6024849249287830253986904168826
202,16322.8034847636364674048931801564849,16321.2,1.6034847636364674048931801564849
203,16484.8044796690256376940109805213645,16483.2,1.6044796690256376940109805213645
204,16647.6054696896794031698406681680394,16646.0,1.6054696896794031698406681680394
205,16811.2064548734684782703073559508030,16809.6,1.6064548734684782703073559508030
206,16975.6074352675650743684429270776441,16974.0,1.6074352675650743684429270776441
207,17140.8084109184564527709389759128403,17139.2,1.6084109184564527709389759128403
208,17306.8093818719581531642697002946661,17305.2,1.6093818719581531642697002946661
209,17473.6103481732269032531420780902003,17472.0,1.6103481732269032531420780902003
210,17641.2113098667732210888421368837589,17639.6,1.6113098667732210888421368837589
211,17809.6122669964737174484548926746924,17808.0,1.6122669964737174484548926746924
212,17978.8132196055831084941466309224602,17977.2,1.6132196055831084941466309224602
213,18148.8141677367459430925158719371596,18147.2,1.6141677367459430925158719371596
214,18319.6151114320080597718602902628424,18318.0,1.6151114320080597718602902628424
215,18491.2160507328277725258064132700853,18489.6,1.6160507328277725258064132700853
216,18663.6169856800867994200231755744262,18662.0,1.6169856800867994200231755744262
217,18836.8179163141009379633821901470388,18835.2,1.6179163141009379633821901470388
218,19010.8188426746304962183899681383502,19009.2,1.6188426746304962183899681383502
219,19185.6197648008904829262635530113934,19184.0,1.6197648008904829262635530113934
220,19361.2206827315605691572689765292078,19359.6,1.6206827315605691572689765292078
221,19537.6215965047948193911664291329273,19536.0,1.6215965047948193911664291329273
222,19714.8225061582312092277445703252168,19713.2,1.6225061582312092277445703252168
223,19892.8234117290009232909551103543701,19891.2,1.6234117290009232909551103543701
224,20071.6243132537374483886929394115461,20070.0,1.6243132537374483886929394115461
225,20251.2252107685854644875791320877815,20249.6,1.6252107685854644875791320877815
226,20431.6261043092095370435717958871523,20430.0,1.6261043092095370435717958871523
227,20612.8269939108026193342061322133031,20611.2,1.6269939108026193342061322133031
228,20794.8278796080943666056951486929363,20793.2,1.6278796080943666056951486929363
229,20977.6287614353592691901382008368877,20976.0,1.6287614353592691901382008368877
230,21161.2296394264246092822581833600847,21159.6,1.6296394264246092822581833600847
231,21345.6305136146782431681939927439303,21344.0,1.6305136146782431681939927439303
232,21530.8313840330762193186068121821694,21529.2,1.6313840330762193186068121821694
233,21716.8322507141502273350285565960886,21715.2,1.6322507141502273350285565960886
234,21903.6331136900148938990290249357956,21902.0,1.6331136900148938990290249357956
235,22091.2339729923749188989003136909022,22089.6,1.6339729923749188989003136909022
236,22279.6348286525320614363198221302970,22278.0,1.6348286525320614363198221302970
237,22468.8356807013919793369077594367950,22467.2,1.6356807013919793369077594367950
238,22658.8365291694709238995718811778272,22657.2,1.6365291694709238995718811778272
