Eigenstate,Energy,Kinetic Energy,Potential Energy
1,0.500000003553120349651328526829849938,0.0,0.500000003553120349651328526829849938
2,1.84623096084576719072860303246361639,1.2,0.64623096084576719072860303246361639
3,3.93633767784530886947604716254522844,3.2,0.73633767784530886947604716254522844
4,6.79966541976535914752960222817573320,6.0,0.79966541976535914752960222817573320
5,10.4480468212239465800347492159996594,9.6,0.8480468212239465800347492159996594
6,14.8870663775317911952335814839031216,14.0,0.8870663775317911952335814839031216
7,20.1197213704134679324818666578766023,19.2,0.9197213704134679324818666578766023
8,26.1477845864247490180827512925766406,25.2,0.9477845864247490180827512925766406
9,32.9723845247052142074592837653910264,32.0,0.9723845247052142074592837653910264
10,40.5942814395177970447681074498757508,39.6,0.9942814395177970447681074498757508
11,49.0140109011115044163194084795082322,48.0,1.0140109011115044163194084795082322
12,58.2319640048989637788645893684106338,57.2,1.0319640048989637788645893684106338
13,68.2484348810575389595286139054007385,67.2,1.0484348810575389595286139054007385
14,79.0636502273875520188677936539962673,78.0,1.0636502273875520188677936539962673
15,90.6777884251277442081467541837797555,89.6,1.0777884251277442081467541837797555
16,103.090992343826556546667482693981156,102.0,1.090992343826556546667482693981156
17,116.303378174804212331327976387940342,115.2,1.103378174804212331327976387940342
18,130.315041682159339665290270128203787,129.2,1.115041682159339665290270128203787
19,145.126062725873276430529067940967840,144.0,1.126062725873276430529067940967840
20,160.736508599444274143823050722153387,159.6,1.136508599444274143823050722153387
21,177.146436535969424856770311152006815,176.0,1.146436535969424856770311152006815
22,194.355895619303607572650354361746919,193.2,1.155895619303607572650354361746919
23,212.364928261996205130564794419451089,211.2,1.164928261996205130564794419451089
24,231.173571362691710877268566563743058,230.0,1.173571362691710877268566563743058
25,250.781857222925836245364975231377437,249.6,1.181857222925836245364975231377437
26,271.189814280933279481980733291933614,270.0,1.189814280933279481980733291933614
27,292.397467704610484524937963931828678,291.2,1.197467704610484524937963931828678
28,314.404839874874867642915032570934455,313.2,1.204839874874867642915032570934455
29,337.211950782866961243467590687910980,336.0,1.211950782866961243467590687910980
30,360.818818358792436412954703731958724,359.6,1.218818358792436412954703731958724
31,385.225458746055027063853692389923274,384.0,1.225458746055027063853692389923274
32,410.431886531253478848480005689824971,409.2,1.231886531253478848480005689824971
33,436.438114938305998102132012153679917,435.2,1.238114938305998102132012153679917
34,463.244155993215129749090522442507481,462.0,1.244155993215129749090522442507481
35,490.850020664646797996390611423993325,489.6,1.250020664646797996390611423993325
36,519.255718984463764734073617877197239,518.0,1.255718984463764734073617877197239
37,548.461260151549675995814987402438119,547.2,1.261260151549675995814987402438119
38,578.466652621629448083010823773561308,577.2,1.266652621629448083010823773561308
39,609.271904185293896304942516612450409,608.0,1.271904185293896304942516612450409
40,640.877022036040688508445850898878129,639.6,1.277022036040688508445850898878129
41,673.282012829826955305482931943591577,672.0,1.282012829826955305482931943591577
42,706.486882737373896317776157684270698,705.2,1.286882737373896317776157684270698
43,740.491637490257235428109241238631523,739.2,1.291637490257235428109241238631523
44,775.296282421649284030428516455455605,774.0,1.296282421649284030428516455455605
45,810.900822502440801722381241618325850,809.6,1.300822502440801722381241618325850
46,847.305262373357707624068756428722509,846.0,1.305262373357707624068756428722509
47,884.509606373594218919353794968347728,883.2,1.309606373594218919353794968347728
48,922.513858566406406878780450295400842,921.2,1.313858566406406878780450295400842
49,961.318022762045498108283202347681403,960.0,1.318022762045498108283202347681403
50,1000.92210253835612608528961412425468,999.6,1.32210253835612608528961412425468
51,1041.32610125931927111452508083611668,1040.0,1.32610125931927111452508083611668
52,1082.53002209178128165683433653629837,1081.2,1.33002209178128165683433653629837
53,1124.53386802057791990334000605219091,1123.2,1.33386802057791990334000605219091
54,1167.33764186223481337564660956902674,1166.0,1.33764186223481337564660956902674
55,1210.94134627740221888257437342151671,1209.6,1.34134627740221888257437342151671
56,1255.34498378216193063860215649441216,1254.0,1.34498378216193063860215649441216
57,1300.54855675832696543157909090802038,1299.2,1.34855675832696543157909090802038
58,1346.55206746283986059136077400861947,1345.2,1.35206746283986059136077400861947
59,1393.35551803636266661707185960251798,1392.0,1.35551803636266661707185960251798
60,1440.95891051114069186957961043600181,1439.6,1.35891051114069186957961043600181
61,1489.36224681821249256821113135927287,1488.0,1.36224681821249256821113135927287
62,1538.56552879403030038919262220877107,1537.2,1.36552879403030038919262220877107
63,1588.56875818654783814169329691535920,1587.2,1.36875818654783814169329691535920
64,1639.37193666082616158895023680640685,1638.0,1.37193666082616158895023680640685
65,1690.97506580420263071790083272890994,1689.6,1.37506580420263071790083272890994
66,1743.37814713106326650224282330130431,1742.0,1.37814713106326650224282330130431
67,1796.58118208725448699812524076570206,1795.2,1.38118208725448699812524076570206
68,1850.58417205416646054175694280590378,1849.2,1.38417205416646054175694280590378
69,1905.38711835251700124416158461006363,1904.0,1.38711835251700124416158461006363
70,1960.99002224586200381274505835464542,1959.6,1.39002224586200381274505835464542
71,2017.39288494385581613498173398786864,2016.0,1.39288494385581613498173398786864
72,2074.59570760528264993340668779704332,2073.2,1.39570760528264993340668779704332
73,2132.59849134087807691860608590477509,2131.2,1.39849134087807691860608590477509
74,2191.40123721595783915023746189005200,2190.0,1.40123721595783915023746189005200
75,2251.00394625286957135563760904408559,2249.6,1.40394625286957135563760904408559
76,2311.40661943328158354868619359449817,2310.0,1.40661943328158354868619359449817
77,2372.60925770032155005312558039732116,2371.2,1.40925770032155005312558039732116
78,2434.61186196057678540698128369589064,2433.2,1.41186196057678540698128369589064
79,2497.41443308596674098697363458702170,2496.0,1.41443308596674098697363458702170
80,2561.01697191549741826081651141828825,2559.6,1.41697191549741826081651141828825
81,2625.41947925690654544191356602263673,2624.0,1.41947925690654544191356602263673
82,2690.62195588820760309289944787844941,2689.2,1.42195588820760309289944787844941
83,2756.62440255914009572876522612356149,2755.2,1.42440255914009572876522612356149
84,2823.42681999253284243345238343902267,2822.0,1.42681999253284243345238343902267
85,2891.02920888558650050063514588508305,2889.6,1.42920888558650050063514588508305
86,2959.43156991108102053655265059634935,2958.0,1.43156991108102053655265059634935
87,3028.63390371851327430570968881353299,3027.2,1.43390371851327430570968881353299
88,3098.63621093516967355908624363376365,3097.2,1.43621093516967355908624363376365
89,3169.43849216713821494368667947598835,3168.0,1.43849216713821494368667947598835
90,3241.04074800026404326365648322470702,3239.6,1.44074800026404326365648322470702
91,3313.44297900105230432832138359255781,3312.0,1.44297900105230432832138359255781
92,3386.64518571752177077356674544392728,3385.2,1.44518571752177077356674544392728
93,3460.64736868001246247072981794355727,3459.2,1.44736868001246247072981794355727
94,3535.44952840195024072825338487731414,3534.0,1.44952840195024072825338487731414
95,3611.05166538057113489745893931126771,3609.6,1.45166538057113489745893931126771
96,3687.45378009760795877551894777000177,3686.0,1.45378009760795877551894777000177
97,3764.65587301994159050817966303547858,3763.2,1.45587301994159050817966303547858
98,3842.65794460021911752376835176415179,3841.2,1.45794460021911752376835176415179
99,3921.45999527744089531775263946220741,3920.0,1.45999527744089531775263946220741
100,4001.06202547751842338811804747920014,3999.6,1.46202547751842338811804747920014
101,4081.46403561380481320637997745616145,4080.0,1.46403561380481320637997745616145
102,4162.66602608759949849638289349182529,4161.2,1.46602608759949849638289349182529
103,4244.66799728862873122178646176322506,4243.2,1.46799728862873122178646176322506
104,4327.46994959550330054849347023149890,4326.0,1.46994959550330054849347023149890
105,4411.07188337615482020071199927260513,4409.6,1.47188337615482020071199927260513
106,4495.47379898825184019658771458035950,4494.0,1.47379898825184019658771458035950
107,4580.67569677959696231431539842095067,4579.2,1.47569677959696231431539842095067
108,4666.67757708850606097378643527933482,4665.2,1.47757708850606097378643527933482
109,4753.47944024417064433822387783401066,4752.0,1.47944024417064433822387783401066
110,4841.08128656700432988623743618875467,4839.6,1.48128656700432988623743618875467
111,4929.48311636897434487813496178173439,4928.0,1.48311636897434487813496178173439
112,5018.68492995391891492699158241120084,5017.2,1.48492995391891492699158241120084
113,5108.68672761785135077443669777639157,5107.2,1.48672761785135077443669777639157
114,5199.48850964925159726444523074573155,5198.0,1.48850964925159726444523074573155
115,5291.09027632934597096112176314631339,5289.6,1.49027632934597096112176314631339
116,5383.49202793237576770223580193311391,5382.0,1.49202793237576770223580193311391
117,5476.69376472585539315086220545644047,5475.2,1.49376472585539315086220545644047
118,5570.69548697082063219926990103752206,5569.2,1.49548697082063219926990103752206
119,5665.49719492206764356500848672309936,5664.0,1.49719492206764356500848672309936
120,5761.09888882838324469485711697745065,5759.6,1.49888882838324469485711697745065
121,5857.50056893276701890856881635002866,5856.0,1.50056893276701890856881635002866
122,5954.70223547264576340316955210945272,5953.2,1.50223547264576340316955210945272
123,6052.70388868008077072556974941352127,6051.2,1.50388868008077072556974941352127
124,6151.50552878196842546705083804696444,6150.0,1.50552878196842546705083804696444
125,6251.10715600023457591391626430027728,6249.6,1.50715600023457591391626430027728
126,6351.50877055202313354605766980403231,6350.0,1.50877055202313354605766980403231
127,6452.71037264987934195727286733160142,6451.2,1.51037264987934195727286733160142
128,6554.71196250192814446021691210180234,6553.2,1.51196250192814446021691210180234
129,6657.51354031204807898360620313310686,6656.0,1.51354031204807898360620313310686
130,6761.11510628004112319121527766330832,6759.6,1.51510628004112319121527766330832
131,6865.51666060179891150071221079087599,6864.0,1.51666060179891150071221079087599
132,6970.71820346946574649154099616979391,6969.2,1.51820346946574649154099616979391
133,7076.71973507159883304774692568764772,7075.2,1.51973507159883304774692568764772
134,7183.52125559332617203838830413358098,7182.0,1.52125559332617203838830413358098
135,7291.12276521650255433875408477200240,7289.6,1.52276521650255433875408477200240
136,7399.52426411986411711651045467604073,7398.0,1.52426411986411711651045467604073
137,7508.72575247918193888062311876427663,7507.2,1.52575247918193888062311876427663
138,7618.72723046741516756363893116595208,7617.2,1.52723046741516756363893116595208
139,7729.52869825486420918940936630653325,7728.0,1.52869825486420918940936630653325
140,7841.13015600932452919931355922477315,7839.6,1.53015600932452919931355922477315
141,7953.53160389624165917134036185238127,7952.0,1.53160389624165917134036185238127
142,8066.73304207886804484522932519074888,8065.2,1.53304207886804484522932519074888
143,8180.73447071842242091440018279286449,8179.2,1.53447071842242091440018279286449
144,8295.53588997425245707668320591136416,8294.0,1.53588997425245707668320591136416
145,8411.13730000400149112282901127256851,8409.6,1.53730000400149112282901127256851
146,8527.53870096378024318252630858942433,8526.0,1.53870096378024318252630858942433
147,8644.74009300834449572073817984151136,8643.2,1.54009300834449572073817984151136
148,8762.74147629127983810871835341014254,8761.2,1.54147629127983810871835341014254
149,8881.54285096519469119283644198934257,8880.0,1.54285096519469119283644198934257
150,9001.14421718192297906641197615148829,8999.6,1.54421718192297906641197615148829
151,9121.54557509273798071047746028442688,9120.0,1.54557509273798071047746028442688
152,9242.74692484857908908157000427235030,9241.2,1.54692484857908908157000427235030
153,9364.74826660029343665133686106775352,9363.2,1.54826660029343665133686106775352
154,9487.54960049889461227576220291219074,9486.0,1.54960049889461227576220291219074
155,9611.15092669584100479487704580919541,9609.6,1.55092669584100479487704580919541
156,9735.55224534333667845160696057261586,9734.0,1.55224534333667845160696057261586
157,9860.75355659465811278165841329311622,9859.2,1.55355659465811278165841329311622
158,9986.75486060451065184774516049073228,9985.2,1.55486060451065184774516049073228
159,10113.5561575294191036499902824651740,10112.0,1.5561575294191036499902824651740
160,10241.1574475281576491132310567185379,10239.6,1.5574475281576491132310567185379
161,10369.5587307622250635239033003790060,10368.0,1.5587307622250635239033003790060
162,10498.7600073963722702237629823986459,10497.2,1.5600073963722702237629823986459
163,10628.7612775991904587641011284460396,10627.2,1.5612775991904587641011284460396
164,10759.5625415437694630202773215212402,10758.0,1.5625415437694630202773215212402
165,10891.1637994084378558606440581999638,10889.6,1.5637994084378558606440581999638
166,11023.5650513775983617156850295416408,11022.0,1.5650513775983617156850295416408
167,11156.7662976426747951374873726955226,11155.2,1.5662976426747951374873726955226
168,11290.7675384031899228463100041071324,11289.2,1.5675384031899228463100041071324
169,11425.5687738679975768401909049321597,11424.0,1.5687738679975768401909049321597
170,11561.1700042566971957647454139588396,11559.6,1.5700042566971957647454139588396
171,11697.5712298012650058202712580999870,11696.0,1.5712298012650058202712580999870
172,11834.7724507479435914830718630779752,11833.2,1.5724507479435914830718630779752
173,11972.7736673594410864274291699659397,11971.2,1.5736673594410864274291699659397
174,12111.5748799175032148995134549531627,12110.0,1.5748799175032148995134549531627
175,12251.1760887259366984756222620520953,12249.6,1.5760887259366984756222620520953
176,12391.5772941141821519496492363898519,12390.0,1.5772941141821519496492363898519
177,12532.7784964415599504524909642908824,12531.2,1.5784964415599504524909642908824
178,12674.7796961023455872672836763586957,12673.2,1.5796961023455872672836763586957
179,12817.5808935318744672271822358875749,12816.0,1.5808935318744672271822358875749
180,12961.1820892139336883394904969482207,12959.6,1.5820892139336883394904969482207
181,13105.5832836897755111056409684440821,13104.0,1.5832836897755111056409684440821
182,13250.7844775691916518544596504992425,13249.2,1.5844775691916518544596504992425
183,13396.7856715442304852038852809707832,13395.2,1.5856715442304852038852809707832
184,13543.5868664063373192766479330487231,13542.0,1.5868664063373192766479330487231
185,13691.1880630679759947547986957046324,13689.6,1.5880630679759947547986957046324
186,13839.5892625901860933791052548637496,13838.0,1.5892625901860933791052548637496
187,13988.7904662181028866820317391011339,13987.2,1.5904662181028866820317391011339
188,14138.7916754273099415306867951580349,14137.2,1.5916754273099415306867951580349
189,14289.5928919851576484824523478004805,14288.0,1.5928919851576484824523478004805
190,14441.1941180331141217705195900998163,14439.6,1.5941180331141217705195900998163
191,14593.5953561992416047910510985698188,14592.0,1.5953561992416047910510985698188
192,14746.7966097547528277682835387413748,14745.2,1.5966097547528277682835387413748
193,14900.7978828366372551067789303037773,14899.2,1.5978828366372551067789303037773
194,15055.5991807720685315844005028924142,15054.0,1.5991807720685315844005028924142
195,15211.2005105646224312316265863758219,15209.6,1.6005105646224312316265863758219
196,15367.6018816473228802272264479477903,15366.0,1.6018816473228802272264479477903
197,15524.8033070950438844187262804800450,15523.2,1.6033070950438844187262804800450
198,15682.8048056694535244534571369092905,15681.2,1.6048056694535244534571369092905
199,15841.6064054704175153205723206287044,15840.0,1.6064054704175153205723206287044
200,16001.2081509391145941103447124812765,15999.6,1.6081509391145941103447124812765
201,16161.6101175936290787026678317003442,16160.0,1.6101175936290787026678317003442
202,16322.8124471801489856651414259876787,16321.2,1.6124471801489856651414259876787
203,16484.8154481803841163817664570907033,16483.2,1.6154481803841163817664570907033
204,16647.6199801309475988459921972631668,16646.0,1.6199801309475988459921972631668
205,16811.2300777928000377819813765808713,16809.6,1.6300777928000377819813765808713
