Eigenstate,Energy,Kinetic Energy,Potential Energy
1,0.500000000018404226447173468512887938,0.0,0.500000000018404226447173468512887938
2,1.84623093777124776416950226258032169,1.2,0.64623093777124776416950226258032169
3,3.93633761005785664551769406856591909,3.2,0.73633761005785664551769406856591909
4,6.79966527854924863967989748566150101,6.0,0.79966527854924863967989748566150101
5,10.4480465765588711087183272813986475,9.6,0.8480465765588711087183272813986475
6,14.8870659988403940585215238105716916,14.0,0.8870659988403940585215238105716916
7,20.1197208268315208463574305579772416,19.2,0.9197208268315208463574305579772416
8,26.1477838469089552389811375837899813,25.2,0.9477838469089552389811375837899813
9,32.9723835580788390987175490198123097,32.0,0.9723835580788390987175490198123097
10,40.5942802144896595086496492680118450,39.6,0.9942802144896595086496492680118450
11,49.0140093862823987370940740676371347,48.0,1.0140093862823987370940740676371347
12,58.2319621687616459186704416820587952,57.2,1.0319621687616459186704416820587952
13,68.2484326919931779914846727326906917,67.2,1.0484326919931779914846727326906917
14,79.0636476536601149746361039276751417,78.0,1.0636476536601149746361039276751417
15,90.6777854348771010818580263606906447,89.6,1.0777854348771010818580263606906447
16,103.090988905060747484651380684522645,102.0,1.090988905060747484651380684522645
17,116.303374255391135249580278063317306,115.2,1.103374255391135249580278063317306
18,130.315037249818013951017418075144029,129.2,1.115037249818013951017418075144029
19,145.126057748164778770479179156535893,144.0,1.126057748164778770479179156535893
20,160.736503043762406619059642164877655,159.6,1.136503043762406619059642164877655
21,177.146430369531153114411972890689663,176.0,1.146430369531153114411972890689663
22,194.355888809139292585020030031519467,193.2,1.155888809139292585020030031519467
23,212.364920774939642641576915686955383,211.2,1.164920774939642641576915686955383
24,231.173563165369986281144567234322932,230.0,1.173563165369986281144567234322932
25,250.781848281748998242673489375701943,249.6,1.181848281748998242673489375701943
26,271.189804562083832734195404414412763,270.0,1.189804562083832734195404414412763
27,292.397457174032699253520273796792768,291.2,1.197457174032699253520273796792768
28,314.404828498263902416965248995307065,313.2,1.204828498263902416965248995307065
29,337.211938525657793890384048721863342,336.0,1.211938525657793890384048721863342
30,360.818805186148596948334695299293300,359.6,1.218805186148596948334695299293300
31,385.225444622857125687759394628117937,384.0,1.225444622857125687759394628117937
32,410.431871422087521338270652421019331,409.2,1.231871422087521338270652421019331
33,436.438098807451480307339278206944441,435.2,1.238098807451480307339278206944441
34,463.244138804632902332778725912409948,462.0,1.244138804632902332778725912409948
35,490.850002381966692049422999665548080,489.6,1.250002381966692049422999665548080
36,519.255699570971968398509910085264117,518.0,1.255699570971968398509910085264117
37,548.461239570175851759898659509937174,547.2,1.261239570175851759898659509937174
38,578.466630834933579944218530054709952,577.2,1.266630834933579944218530054709952
39,609.271881155452855532615883402929228,608.0,1.271881155452855532615883402929228
40,640.876997724834506268293182319714177,639.6,1.276997724834506268293182319714177
41,673.281987198624789930371137508125963,672.0,1.281987198624789930371137508125963
42,706.486855747119682519147414812852012,705.2,1.286855747119682519147414812852012
43,740.491609101455002236948276571708951,739.2,1.291609101455002236948276571708951
44,775.296252594348127733297971724558207,774.0,1.296252594348127733297971724558207
45,810.900791196219499514160812113344821,809.6,1.300791196219499514160812113344821
46,847.305229547308957132440192368800439,846.0,1.305229547308957132440192368800439
47,884.509571986308488164606516271893867,883.2,1.309571986308488164606516271893867
48,922.513822575955378614094001283446638,921.2,1.313822575955378614094001283446638
49,961.317985125965091838223426153073963,960.0,1.317985125965091838223426153073963
50,1000.92206321362908038176606302827062,999.6,1.32206321362908038176606302827062
51,1041.32606020235726813780115760815765,1040.0,1.32606020235726813780115760815765
52,1082.52997925840659504222804009402877,1081.2,1.32997925840659504222804009402877
53,1124.53382336600456638975478081834238,1123.2,1.33382336600456638975478081834238
54,1167.33759534104918772773495625214165,1166.0,1.33759534104918772773495625214165
55,1210.94129784354319079171717428062197,1209.6,1.34129784354319079171717428062197
56,1255.34493338890038137645102600532276,1254.0,1.34493338890038137645102600532276
57,1300.54850435824474107097770780901637,1299.2,1.34850435824474107097770780901637
58,1346.55201300780811760014566956500092,1345.2,1.35201300780811760014566956500092
59,1393.35546147751958456761914173628031,1392.0,1.35546147751958456761914173628031
60,1440.95885179886852688774738929149344,1439.6,1.35885179886852688774738929149344
61,1489.36218590211394396615991915199091,1488.0,1.36218590211394396615991915199091
62,1538.56546562290416168384108891852642,1537.2,1.36546562290416168384108891852642
63,1588.56869270836390235041845175007111,1587.2,1.36869270836390235041845175007111
64,1639.37186882269934931247837060025245,1638.0,1.37186882269934931247837060025245
65,1690.97499555236630806275066659279734,1689.6,1.37499555236630806275066659279734
66,1743.37807441084171835695097516490025,1742.0,1.37807441084171835695097516490025
67,1796.58110684303450955374445284719441,1795.2,1.38110684303450955374445284719441
68,1850.58409422936803523248667249014314,1849.2,1.38409422936803523248667249014314
69,1905.38703788956301047267132143167020,1904.0,1.38703788956301047267132143167020
70,1960.98993908614694691075090679570900,1959.6,1.38993908614694691075090679570900
71,2017.39279902771348198626589535850780,2016.0,1.39279902771348198626589535850780
72,2074.59561887195270054683839015711929,2073.2,1.39561887195270054683839015711929
73,2132.59839972847149397518321881536356,2131.2,1.39839972847149397518321881536356
74,2191.40114266142118315273687624994309,2190.0,1.40114266142118315273687624994309
75,2251.00384869194800047340198548231364,2249.6,1.40384869194800047340198548231364
76,2311.40651880048057656414991946658931,2310.0,1.40651880048057656414991946658931
77,2372.60915392886727497080629999900787,2371.2,1.40915392886727497080629999900787
78,2434.61175498237505226916403271385631,2433.2,1.41175498237505226916403271385631
79,2497.41432283156047424157645414389701,2496.0,1.41432283156047424157645414389701
80,2561.01685831402258063353881137764222,2559.6,1.41685831402258063353881137764222
81,2625.41936223604644166328977848787751,2624.0,1.41936223604644166328977848787751
82,2690.62183537414548800691129051029101,2689.2,1.42183537414548800691129051029101
83,2756.62427847651000724761536923555893,2755.2,1.42427847651000724761536923555893
84,2823.42669226436857548619054199294185,2822.0,1.42669226436857548619054199294185
85,2891.02907743326863353340680580089807,2889.6,1.42907743326863353340680580089807
86,2959.43143465428190123978883912289808,2958.0,1.43143465428190123978883912289808
87,3028.63376457513986604736728174001408,3027.2,1.43376457513986604736728174001408
88,3098.63606782130415847028226017121445,3097.2,1.43606782130415847028226017121445
89,3169.43834499697624370895185816707243,3168.0,1.43834499697624370895185816707243
90,3241.04059668605051538578895930645571,3239.6,1.44059668605051538578895930645571
91,3313.44282345301455593839922191406422,3312.0,1.44282345301455593839922191406422
92,3386.64502584380003990865382224484925,3385.2,1.44502584380003990865382224484925
93,3460.64720438658749411097499841426828,3459.2,1.44720438658749411097499841426828
94,3535.44935959256788573443430790143569,3534.0,1.44935959256788573443430790143569
95,3611.05149195666378827923453114802572,3609.6,1.45149195666378827923453114802572
96,3687.45360195821267340602972190750167,3686.0,1.45360195821267340602972190750167
97,3764.65569006161469243442830367019074,3763.2,1.45569006161469243442830367019074
98,3842.65775671694713835272941672329718,3841.2,1.45775671694713835272941672329718
99,3921.45980236054762572875357826112726,3920.0,1.45980236054762572875357826112726
100,4001.06182741556787957121268319992379,3999.6,1.46182741556787957121268319992379
101,4081.46383229249989488690986610253212,4080.0,1.46383229249989488690986610253212
102,4162.66581738967610310433868313465977,4161.2,1.46581738967610310433868313465977
103,4244.66778309374507362063819260842283,4243.2,1.46778309374507362063819260842283
104,4327.46972978012417146415009806462955,4326.0,1.46972978012417146415009806462955
105,4411.07165781343049899106722065259817,4409.6,1.47165781343049899106722065259817
106,4495.47356754789135877041886055961281,4494.0,1.47356754789135877041886055961281
107,4580.67545932773539672968318956886524,4579.2,1.47545932773539672968318956886524
108,4666.67733348756550539376242962401946,4665.2,1.47733348756550539376242962401946
109,4753.47919035271449845652241833763808,4752.0,1.47919035271449845652241833763808
110,4841.08103023958450550397309568704737,4839.6,1.48103023958450550397309568704737
111,4929.48285345597096984696793109668531,4928.0,1.48285345597096984696793109668531
112,5018.68466030137208298766682352769706,5017.2,1.48466030137208298766682352769706
113,5108.68645106728443370821294721646911,5107.2,1.48645106728443370821294721646911
114,5199.48822603748560101231767130861818,5198.0,1.48822603748560101231767130861818
115,5291.08998548830437970194509776316865,5289.6,1.48998548830437970194509776316865
116,5383.49172968887927903963956144676090,5382.0,1.49172968887927903963956144676090
117,5476.69345890140590323403265125343682,5475.2,1.49345890140590323403265125343682
118,5570.69517338137378145496075842401602,5569.2,1.49517338137378145496075842401602
119,5665.49687337779318137090784982951017,5664.0,1.49687337779318137090784982951017
120,5761.09855913341241435925318278042532,5759.6,1.49855913341241435925318278042532
121,5857.50023088492610227255946565024080,5856.0,1.50023088492610227255946565024080
122,5954.70188886317485673100415040534942,5953.2,1.50188886317485673100415040534942
123,6052.70353329333678971812458261766322,6051.2,1.50353329333678971812458261766322
124,6151.50516439511125657723903877333221,6150.0,1.50516439511125657723903877333221
125,6251.10678238289520293964260997755864,6249.6,1.50678238289520293964260997755864
126,6351.50838746595247191837928522689012,6350.0,1.50838746595247191837928522689012
127,6452.70997984857640732350524719593168,6451.2,1.50997984857640732350524719593168
128,6554.71155973024606606756845158552658,6553.2,1.51155973024606606756845158552658
129,6657.51312730577634085679148306707195,6656.0,1.51312730577634085679148306707195
130,6761.11468276546227588157740778117830,6759.6,1.51468276546227588157740778117830
131,6865.51622629521784281584027746437271,6864.0,1.51622629521784281584027746437271
132,6970.71775807670942945746111215430956,6969.2,1.51775807670942945746111215430956
133,7076.71927828748428156058626944994011,7075.2,1.51927828748428156058626944994011
134,7183.52078710109412713452622527945895,7182.0,1.52078710109412713452622527945895
135,7291.12228468721419437567030813784927,7289.6,1.52228468721419437567030813784927
136,7399.52377121175783071130258211885375,7398.0,1.52377121175783071130258211885375
137,7508.72524683698691712626046370592869,7507.2,1.52524683698691712626046370592869
138,7618.72671172161825833138707265361383,7617.2,1.52671172161825833138707265361383
139,7729.52816602092612722682269061289110,7728.0,1.52816602092612722682269061289110
140,7841.12960988684112666721244861871605,7839.6,1.52960988684112666721244861871605
141,7953.53104346804552697841740022710142,7952.0,1.53104346804552697841740022710142
142,8066.73246691006522960204902736965819,8065.2,1.53246691006522960204902736965819
143,8180.73388035535849859397802167663945,8179.2,1.53388035535849859397802167663945
144,8295.53528394340159452333105700613986,8294.0,1.53528394340159452333105700613986
145,8411.13667781077144113073034601645335,8409.6,1.53667781077144113073034601645335
146,8527.53806209122544723577969663943038,8526.0,1.53806209122544723577969663943038
147,8644.73943691577859818083486242644763,8643.2,1.53943691577859818083486242644763
148,8762.74080241277793214006263991992098,8761.2,1.54080241277793214006263991992098
149,8881.54215870797450309471884353677285,8880.0,1.54215870797450309471884353677285
150,9001.14350592459293411549815688790715,8999.6,1.54350592459293411549815688790715
151,9121.54484418339865686618496578998305,9120.0,1.54484418339865686618496578998305
152,9242.74617360276292762774982080571019,9241.2,1.54617360276292762774982080571019
153,9364.74749429872570879255933066093639,9363.2,1.54749429872570879255933066093639
154,9487.54880638505649972791536090792907,9486.0,1.54880638505649972791536090792907
155,9611.15010997331319524488964296801754,9609.6,1.55010997331319524488964296801754
156,9735.55140517289904953878985675689247,9734.0,1.55140517289904953878985675689247
157,9860.75269209111781664783312602729162,9859.2,1.55269209111781664783312602729162
158,9986.75397083322713924810048592144752,9985.2,1.55397083322713924810048592144752
159,10113.5552415024902494575778066517649,10112.0,1.5552415024902494575778066517649
160,10241.1565042002260479867930056493878,10239.6,1.5565042002260479867930056493878
161,10369.5577590258576201321405803637273,10368.0,1.5577590258576201321405803637273
162,10498.7590060769592480729649150451483,10497.2,1.5590060769592480729649150451483
163,10628.7602454493019743256717746320964,10627.2,1.5602454493019743256717746320964
164,10759.5614772368977709914330070435933,10758.0,1.5614772368977709914330070435933
165,10891.1627015320423633976721902140179,10889.6,1.5627015320423633976721902140179
166,11023.5639184253567586488899832567657,11022.0,1.5639184253567586488899832567657
167,11156.7651280058275263191186970692747,11155.2,1.5651280058275263191186970692747
168,11290.7663303608458739748896448197180,11289.2,1.5663303608458739748896448197180
169,11425.5675255762455625907738603782790,11424.0,1.5675255762455625907738603782790
170,11561.1687137363397016005819372870707,11559.6,1.5687137363397016005819372870707
171,11697.5698949239564637786537850114227,11696.0,1.5698949239564637786537850114227
172,11834.7710692204737578178661859341472,11833.2,1.5710692204737578178661859341472
173,11972.7722367058528940066589214592062,11971.2,1.5722367058528940066589214592062
174,12111.5733974586712788485634040491583,12110.0,1.5733974586712788485634040491583
175,12251.1745515561541726091367773836536,12249.6,1.5745515561541726091367773836536
176,12391.5756990742055394966241967809124,12390.0,1.5756990742055394966241967809124
177,12532.7768400874380237368567186855435,12531.2,1.5768400874380237368567186855435
178,12674.7779746692020806967508030034624,12673.2,1.5779746692020806967508030034624
179,12817.5791028916142895013251588576968,12816.0,1.5791028916142895013251588576968
180,12961.1802248255848780906036272023041,12959.6,1.5802248255848780906036272023041
181,13105.5813405408444833649600761373128,13104.0,1.5813405408444833649600761373128
182,13250.7824501059701741142604195516954,13249.2,1.5824501059701741142604195516954
183,13396.7835535884107597800454313714740,13395.2,1.5835535884107597800454313714740
184,13543.5846510545114092922600248640196,13542.0,1.5846510545114092922600248640196
185,13691.1857425695376017886219047739339,13689.6,1.5857425695376017886219047739339
186,13839.5868281976984301852184397972024,13838.0,1.5868281976984301852184397972024
187,13988.7879080021692813987985206145533,13987.2,1.5879080021692813987985206145533
188,14138.7889820451139086570431062403206,14137.2,1.5889820451139086570431062403206
189,14289.5900503877059196278712546529019,14288.0,1.5900503877059196278712546529019
190,14441.1911130901496960188253651227260,14439.6,1.5911130901496960188253651227260
191,14593.5921702117007638690530516316591,14592.0,1.5921702117007638690530516316591
192,14746.7932218106856309160536223786588,14745.2,1.5932218106856309160536223786588
193,14900.7942679445211093410014029495152,14899.2,1.5942679445211093410014029495152
194,15055.5953086697331372333923273910331,15054.0,1.5953086697331372333923273910331
195,15211.1963440419751167073355861640962,15209.6,1.5963440419751167073355861640962
196,15367.5973741160457823613529047820775,15366.0,1.5973741160457823613529047820775
197,15524.7983989459066144569685006835634,15523.2,1.5983989459066144569685006835634
198,15682.7994185846988109780306825116328,15681.2,1.5994185846988109780306825116328
199,15841.6004330847598314045803772908810,15840.0,1.6004330847598314045803772908810
200,16001.2014424976395261414274013498906,15999.6,1.6014424976395261414274013498906
201,16161.6024468741158625778130463339845,16160.0,1.6024468741158625778130463339845
202,16322.8034462642102611542701472870417,16321.2,1.6034462642102611542701472870417
203,16484.8044407172025520913623787807173,16483.2,1.6044407172025520913623787807173
204,16647.6054302816455643951641884403886,16646.0,1.6054302816455643951641884403886
205,16811.2064150053793571047930940190352,16809.6,1.6064150053793571047930940190352
206,16975.6073949355451058006910746196438,16974.0,1.6073949355451058006910746196438
207,17140.8083701185986502442803419091422,17139.2,1.6083701185986502442803419091422
208,17306.8093406003237173703978998350768,17305.2,1.6093406003237173703978998350768
209,17473.6103064258448253753362315656749,17472.0,1.6103064258448253753362315656749
210,17641.2112676396398803960889550753998,17639.6,1.6112676396398803960889550753998
211,17809.6122242855524731397576184644867,17808.0,1.6122242855524731397576184644867
212,17978.8131764068038856902414850374102,17977.2,1.6131764068038856902414850374102
213,18148.8141240460048128700980163609406,18147.2,1.6141240460048128700980163609406
214,18319.6150672451668131332573575386984,18318.0,1.6150672451668131332573575386984
215,18491.2160060457134881948152529683323,18489.6,1.6160060457134881948152529683323
216,18663.6169404884914053523546510850261,18662.0,1.6169404884914053523546510850261
217,18836.8178706137807664578311554847531,18835.2,1.6178706137807664578311554847531
218,19010.8187964613058325124649840763919,19009.2,1.6187964613058325124649840763919
219,19185.6197180702451071575680112404059,19184.0,1.6197180702451071575680112404059
220,19361.2206354792412915694262497985144,19359.6,1.6206354792412915694262497985144
221,19537.6215487264110086605200165136718,19536.0,1.6215487264110086605200165136718
222,19714.8224578493543137844396329166021,19713.2,1.6224578493543137844396329166021
223,19892.8233628851639855053200150725535,19891.2,1.6233628851639855053200150725535
224,20071.6242638704346114910844984828538,20070.0,1.6242638704346114910844984828538
225,20251.2251608412714720870324146151500,20249.6,1.6251608412714720870324146151500
226,20431.6260538332992251077032075449016,20430.0,1.6260538332992251077032075449016
227,20612.8269428816704004898553294057887,20611.2,1.6269428816704004898553294057887
228,20794.8278280210737066167510912978054,20793.2,1.6278280210737066167510912978054
229,20977.6287092857421554658824531116027,20976.0,1.6287092857421554658824531116027
230,21161.2295867094610112663658616784010,21159.6,1.6295867094610112663658616784010
231,21345.6304603255755644552602648332776,21344.0,1.6304603255755644552602648332776
232,21530.8313301669987413417125735283531,21529.2,1.6313301669987413417125735283531
233,21716.8321962662185444644184793146039,21715.2,1.6321962662185444644184793146039
234,21903.6330586553053397884477179439223,21902.0,1.6330586553053397884477179439223
235,22091.2339173659189839125168994096043,22089.6,1.6339173659189839125168994096043
236,22279.6347724293158009854611569683346,22278.0,1.6347724293158009854611569683346
237,22468.8356238763554129520141467276769,22467.2,1.6356238763554129520141467276769
238,22658.8364717375074248588898290506175,22657.2,1.6364717375074248588898290506175
