Eigenstate,Energy,Kinetic Energy,Potential Energy
1,0.500000000280856983451148567345983660,0.0,0.500000000280856983451148567345983660
2,1.84623093948442062860500465258234645,1.2,0.64623093948442062860500465258234645
3,3.93633761509024598138788138616037400,3.2,0.73633761509024598138788138616037400
4,6.79966528903137581684628760128144460,6.0,0.79966528903137581684628760128144460
5,10.4480465947165787090082444726659389,9.6,0.8480465947165787090082444726659389
6,14.8870660269388082054641390772572290,14.0,0.8870660269388082054641390772572290
7,20.1197208671544549363115395484680963,19.2,0.9197208671544549363115395484680963
8,26.1477839017503675952247258179254832,25.2,0.9477839017503675952247258179254832
9,32.9723836297389041182910040657746733,32.0,0.9723836297389041182910040657746733
10,40.5942803052728135678665530249809767,39.6,0.9942803052728135678665530249809767
11,49.0140094984963157973598227250798963,48.0,1.0140094984963157973598227250798963
12,58.2319623047166869682843872204507384,57.2,1.0319623047166869682843872204507384
13,68.2484328540020985214528825201802016,67.2,1.0484328540020985214528825201802016
14,79.0636478440379210306195300284296186,78.0,1.0636478440379210306195300284296186
15,90.6777856559409950276805637896353924,89.6,1.0777856559409950276805637896353924
16,103.090989159130130197765438805187009,102.0,1.090989159130130197765438805187009
17,116.303374544787645105474877385825563,115.2,1.103374544787645105474877385825563
18,130.315037576865590560873435613735988,129.2,1.115037576865590560873435613735988
19,145.126058115189743852787648741078108,144.0,1.126058115189743852787648741078108
20,160.736503453093557041431462688502911,159.6,1.136503453093557041431462688502911
21,177.146430823499862788961429702132834,176.0,1.146430823499862788961429702132834
22,194.355889310079620951127046577024481,193.2,1.155889310079620951127046577024481
23,212.364921325188448156575253281680390,211.2,1.164921325188448156575253281680390
24,231.173563767267043798636650559129941,230.0,1.173563767267043798636650559129941
25,250.781848937637119471457474928566443,249.6,1.181848937637119471457474928566443
26,271.189805274308989188531881567420843,270.0,1.189805274308989188531881567420843
27,292.397457944944147259378609703341905,291.2,1.197457944944147259378609703341905
28,314.404829330214309849381478785231444,313.2,1.204829330214309849381478785231444
29,337.211939421003368397522018821195782,336.0,1.211939421003368397522018821195782
30,360.818806147249215477210430354298841,359.6,1.218806147249215477210430354298841
31,385.225445652076465170933934199853836,384.0,1.225445652076465170933934199853836
32,410.431872521793190434320121267566607,409.2,1.231872521793190434320121267566607
33,436.438099980015152113495642960002153,435.2,1.238099980015152113495642960002153
34,463.244140052430448007868745783549292,462.0,1.244140052430448007868745783549292
35,490.850003707378315300600136738434700,489.6,1.250003707378315300600136738434700
36,519.255700976382340797347974489738559,518.0,1.255700976382340797347974489738559
37,548.461241057974248862985754302351928,547.2,1.261241057974248862985754302351928
38,578.466632407514018201036713013615018,577.2,1.266632407514018201036713013615018
39,609.271882815214229969652133278975777,608.0,1.271882815214229969652133278975777
40,640.876999474180728943328462365500121,639.6,1.276999474180728943328462365500121
41,673.281989039964929154985718646589361,672.0,1.281989039964929154985718646589361
42,706.486857682868102850853512541888547,705.2,1.286857682868102850853512541888547
43,740.491611134031505245162643692746501,739.2,1.291611134031505245162643692746501
44,775.296254726178093545711499005159999,774.0,1.296254726178093545711499005159999
45,810.900793429734029152039898263925792,809.6,1.300793429734029152039898263925792
46,847.305231884945015645075600808483027,846.0,1.305231884945015645075600808483027
47,884.509574430509048574565379148464625,883.2,1.309574430509048574565379148464625
48,922.513825129169566686175080206947163,921.2,1.313825129169566686175080206947163
49,961.317987790648331686099194752093698,960.0,1.317987790648331686099194752093698
50,1000.92206599224324092724701940731702,999.6,1.32206599224324092724701940731702
51,1041.32606309737081043850193915274919,1040.0,1.32606309737081043850193915274919
52,1082.52998227229472050416887416130843,1081.2,1.32998227229472050416887416130843
53,1124.53382650124936588211215859995510,1123.2,1.33382650124936588211215859995510
54,1167.33759860013979161757499421191013,1166.0,1.33759860013979161757499421191013
55,1210.94130122897591991711362935460822,1209.6,1.34130122897591991711362935460822
56,1255.34493690317889897691680191122407,1254.0,1.34493690317889897691680191122407
57,1300.54850800388020569463037160079759,1299.2,1.34850800388020569463037160079759
58,1346.55201678731933700749206043816733,1345.2,1.35201678731933700749206043816733
59,1393.35546539343317065228299059786579,1392.0,1.35546539343317065228299059786579
60,1440.95885585371905163488531156674226,1439.6,1.35885585371905163488531156674226
61,1489.36219009844409646971623110689516,1488.0,1.36219009844409646971623110689516
62,1538.56546996326490624418504903613441,1537.2,1.36546996326490624418504903613441
63,1588.56869719531463767428973156310931,1587.2,1.36869719531463767428973156310931
64,1639.37187345880806883754201857766765,1638.0,1.37187345880806883754201857766765
65,1690.97500034020976142943310343701348,1689.6,1.37500034020976142943310343701348
66,1743.37807935300557405059329996455399,1742.0,1.37807935300557405059329996455399
67,1796.58111194211351874047308030907471,1795.2,1.38111194211351874047308030907471
68,1850.58409948796619681256240807276960,1849.2,1.38409948796619681256240807276960
69,1905.38704331029373737544135080957381,1904.0,1.38704331029373737544135080957381
70,1960.98994467163323365568821092136084,1959.6,1.38994467163323365568821092136084
71,2017.39280478058807353494768728294676,2016.0,1.39280478058807353494768728294676
72,2074.59562479485826247107932733354977,2073.2,1.39562479485826247107932733354977
73,2132.59840582406078396691128638875198,2131.2,1.39840582406078396691128638875198
74,2191.40114893235722390157216261612649,2190.0,1.40114893235722390157216261612649
75,2251.00385514090425393827777057886744,2249.6,1.40385514090425393827777057886744
76,2311.40652543014111966569742731257817,2310.0,1.40652543014111966569742731257817
77,2372.60916074192697673161393283852346,2371.2,1.40916074192697673161393283852346
78,2434.61176198153975242941570531265807,2433.2,1.41176198153975242941570531265807
79,2497.41433001954716337797466509289478,2496.0,1.41433001954716337797466509289478
80,2561.01686569355958180982401993225888,2559.6,1.41686569355958180982401993225888
81,2625.41936980987359364108341065486814,2624.0,1.41936980987359364108341065486814
82,2690.62184314501433004602969735853644,2689.2,1.42184314501433004602969735853644
83,2756.62428644718396552543200250533738,2755.2,1.42428644718396552543200250533738
84,2823.42670043762315116606043945861290,2822.0,1.42670043762315116606043945861290
85,2891.02908581189159251261276797915789,2889.6,1.42908581189159251261276797915789
86,2959.43144324107346560792229419143752,2958.0,1.43144324107346560792229419143752
87,3028.63377337291290728652058095933459,3027.2,1.43377337291290728652058095933459
88,3098.63607683288439242890004437021220,3097.2,1.43607683288439242890004437021220
89,3169.43835422520242738167106522818279,3168.0,1.43835422520242738167106522818279
90,3241.04060613377464553208762338073285,3239.6,1.44060613377464553208762338073285
91,3313.44283312310206957337632351331198,3312.0,1.44283312310206957337632351331198
92,3386.64503573913001669977231776073865,3385.2,1.44503573913001669977231776073865
93,3460.64721451005286071512331977868851,3459.2,1.44721451005286071512331977868851
94,3535.44936994707562211019361424878792,3534.0,1.44936994707562211019361424878792
95,3611.05150254513513600978305311072747,3609.6,1.45150254513513600978305311072747
96,3687.45361278358334606867038382893541,3686.0,1.45361278358334606867038382893541
97,3764.65570112683508805329346969737279,3763.2,1.45570112683508805329346969737279
98,3842.65776802498255397179400859073439,3841.2,1.45776802498255397179400859073439
99,3921.45981391437847414288061244575248,3920.0,1.45981391437847414288061244575248
100,4001.06183921818990825355696816789766,3999.6,1.46183921818990825355696816789766
101,4081.46384434692440715162372000316287,4080.0,1.46384434692440715162372000316287
102,4162.66582969893018154415216253411606,4161.2,1.46582969893018154415216253411606
103,4244.66779566087180585952872183559986,4243.2,1.46779566087180585952872183559986
104,4327.46974260818287826597539821438604,4326.0,1.46974260818287826597539821438604
105,4411.07167090549696476570398723168256,4409.6,1.47167090549696476570398723168256
106,4495.47358090705806451963606100886829,4494.0,1.47358090705806451963606100886829
107,4580.67547295711175547567915640825245,4579.2,1.47547295711175547567915640825245
108,4666.67734739027810013400946045716367,4665.2,1.47734739027810013400946045716367
109,4753.47920453190732268929422545755557,4752.0,1.47920453190732268929422545755557
110,4841.08104469841920636967588179594199,4839.6,1.48104469841920636967588179594199
111,4929.48286819762709393115958003999462,4928.0,1.48286819762709393115958003999462
112,5018.68467532904732483242780644426540,5017.2,1.48467532904732483242780644426540
113,5108.68646638419488707932844519260572,5107.2,1.48646638419488707932844519260572
114,5199.48824164686601297054453307845394,5198.0,1.48824164686601297054453307845394
115,5291.09000139340840752746867746911623,5289.6,1.49000139340840752746867746911623
116,5383.49174589297975005967528545891831,5382.0,1.49174589297975005967528545891831
117,5476.69347540779507760439492320106517,5475.2,1.49347540779507760439492320106517
118,5570.69519019336361794731027506096463,5569.2,1.49519019336361794731027506096463
119,5665.49689049871560621829419056779520,5664.0,1.49689049871560621829419056779520
120,5761.09857656661959321349730370538059,5759.6,1.49857656661959321349730370538059
121,5857.50024863379071532796736949288524,5856.0,1.50024863379071532796736949288524
122,5954.70190693109037706987279231664749,5953.2,1.50190693109037706987279231664749
123,6052.70355168371776493448947751109917,6051.2,1.50355168371776493448947751109917
124,6151.50518311139359373632485271616738,6150.0,1.50518311139359373632485271616738
125,6251.10680142853645693151359544326375,6249.6,1.50680142853645693151359544326375
126,6351.50840684443213726534285613513809,6350.0,1.50840684443213726534285613513809
127,6452.70999956339621350190287857615587,6451.2,1.50999956339621350190287857615587
128,6554.71157978493027640569421223527788,6553.2,1.51157978493027640569421223527788
129,6657.51314770387205507180734853105171,6656.0,1.51314770387205507180734853105171
130,6761.11470351053973631945033103175271,6759.6,1.51470351053973631945033103175271
131,6865.51624739087074445950740867503164,6864.0,1.51624739087074445950740867503164
132,6970.71777952655523376963846573831243,6969.2,1.51777952655523376963846573831243
133,7076.71930009516453422886856906270296,7075.2,1.51930009516453422886856906270296
134,7183.52080927027477978769252894871663,7182.0,1.52080927027477978769252894871663
135,7291.12230722158593034139991025575360,7289.6,1.52230722158593034139991025575360
136,7399.52379411503639488682656549229610,7398.0,1.52379411503639488682656549229610
137,7508.72527011291345003482805582633041,7507.2,1.52527011291345003482805582633041
138,7618.72673537395963443880533904045926,7617.2,1.52673537395963443880533904045926
139,7729.52819005347529759374450969318994,7728.0,1.52819005347529759374450969318994
140,7841.12963430341746601429357274248186,7839.6,1.52963430341746601429357274248186
141,7953.53106827249518524294169189678412,7952.0,1.53106827249518524294169189678412
142,8066.73249210626148806613667260559280,8065.2,1.53249210626148806613667260559280
143,8180.73390594720213066603959820679393,8179.2,1.53390594720213066603959820679393
144,8295.53530993482123125601524316713757,8294.0,1.53530993482123125601524316713757
145,8411.13670420572394156023320785955176,8409.6,1.53670420572394156023320785955176
146,8527.53808889369627362904559929940211,8526.0,1.53808889369627362904559929940211
147,8644.73946412978219627887465434832959,8643.2,1.53946412978219627887465434832959
148,8762.74083004235811648735233812781632,8761.2,1.54083004235811648735233812781632
149,8881.54218675720484754642329229425318,8880.0,1.54218675720484754642329229425318
150,9001.14353439757716761607996530635743,8999.6,1.54353439757716761607996530635743
151,9121.54487308427106459482720601403394,9120.0,1.54487308427106459482720601403394
152,9242.74620293568875760792402109529370,9241.2,1.54620293568875760792402109529370
153,9364.74752406790158406502489219562220,9363.2,1.54752406790158406502489219562220
154,9487.54883659471083618843497846450894,9486.0,1.54883659471083618843497846450894
155,9611.15014062770662524999062371432958,9609.6,1.55014062770662524999062371432958
156,9735.55143627632485138499911460013861,9734.0,1.55143627632485138499911460013861
157,9860.75272364790235003195522297956481,9859.2,1.55272364790235003195522297956481
158,9986.75400284773028681830921777323091,9985.2,1.55400284773028681830921777323091
159,10113.5552739791058645673376473073382,10112.0,1.5552739791058645673376473073382
160,10241.1565371433824087659346597797699,10239.6,1.5565371433824087659346597797699
161,10369.5577924400178899917714900262980,10368.0,1.5577924400178899917714900262980
162,10498.7590399666219427633161042249974,10497.2,1.5590399666219427633161042249974
163,10628.7602798190014356684548181015540,10627.2,1.5602798190014356684548181015540
164,10759.5615120912046474108204165837965,10758.0,1.5615120912046474108204165837965
165,10891.1627368755640973766131383615930,10889.6,1.5627368755640973766131383615930
166,11023.5639542627380812401332251057378,11022.0,1.5639542627380812401332251057378
167,11156.7651643417509588430442454090593,11155.2,1.5651643417509588430442454090593
168,11290.7663672000322370390472979858197,11289.2,1.5663672000322370390472979858197
169,11425.5675629234544925688886350491541,11424.0,1.5675629234544925688886350491541
170,11561.1687515963701747117246104739826,11559.6,1.5687515963701747117246104739826
171,11697.5699333016473279102822774737258,11696.0,1.5699333016473279102822774737258
172,11834.7711081207042722395288004081867,11833.2,1.5711081207042722395288004081867
173,11972.7722761335432771243099996962155,11971.2,1.5722761335432771243099996962155
174,12111.5734374187832641526851788504922,12110.0,1.5734374187832641526851788504922
175,12251.1745920536915729731826173475159,12249.6,1.5745920536915729731826173475159
176,12391.5757401142148199857050988558185,12390.0,1.5757401142148199857050988558185
177,12532.7768816750088830900860468247259,12531.2,1.5768816750088830900860468247259
178,12674.7780168094680416502447848207987,12673.2,1.5780168094680416502447848207987
179,12817.5791455897532981225292034293037,12816.0,1.5791455897532981225292034293037
180,12961.1802680868199122983836375589574,12959.6,1.5802680868199122983836375589574
181,13105.5813843704441708137599487114279,13104.0,1.5813843704441708137599487114279
182,13250.7824945092494196245923884202968,13249.2,1.5824945092494196245923884202968
183,13396.7835985707313825016463456902928,13395.2,1.5835985707313825016463456902928
184,13543.5846966212827897904172203072507,13542.0,1.5846966212827897904172203072507
185,13691.1857887262173392484548771423549,13689.6,1.5857887262173392484548771423549
186,13839.5868749497930099330903509079747,13838.0,1.5868749497930099330903509079747
187,13988.7879553552347529445438251056857,13987.2,1.5879553552347529445438251056857
188,14138.7890300047565744653191457415000,14137.2,1.5890300047565744653191457415000
189,14289.5900989595830348316904212958076,14288.0,1.5900989595830348316904212958076
190,14441.1911622799701792931975201315148,14439.6,1.5911622799701792931975201315148
191,14593.5922200252259196876689185050689,14592.0,1.5922200252259196876689185050689
192,14746.7932722537298834190761663791639,14745.2,1.5932722537298834190761663791639
193,14900.7943190229527480473041330188572,14899.2,1.5943190229527480473041330188572
194,15055.5953603894750748359966713045694,15054.0,1.5953603894750748359966713045694
195,15211.1963964090056591963594222608890,15209.6,1.5963964090056591963594222608890
196,15367.5974271363994117244901853530626,15366.0,1.5974271363994117244901853530626
197,15524.7984526256747842133854074267272,15523.2,1.5984526256747842133854074267272
198,15682.7994729300307548075837143154349,15681.2,1.5994729300307548075837143154349
199,15841.6004881018633851404526567684522,15840.0,1.6004881018633851404526567684522
200,16001.2014981927819634006320244122675,15999.6,1.6014981927819634006320244122675
201,16161.6025032536247443105427470974335,16160.0,1.6025032536247443105427470974335
202,16322.8035033344742993997884751042976,16321.2,1.6035033344742993997884751042976
203,16484.8044984846724882350182843443937,16483.2,1.6044984846724882350182843443937
204,16647.6054887528350622282073950571129,16646.0,1.6054887528350622282073950571129
205,16811.2064741868659109959450454023312,16809.6,1.6064741868659109959450454023312
206,16975.6074548339709642959182807865540,16974.0,1.6074548339709642959182807865540
207,17140.8084307406717554189117239047030,17139.2,1.6084307406717554189117239047030
208,17306.8094019528186602656421678694645,17305.2,1.6094019528186602656421678694645
209,17473.6103685156038178593921290244274,17472.0,1.6103685156038178593921290244274
210,17641.2113304735737437984095433614908,17639.6,1.6113304735737437984095433614908
211,17809.6122878706416440156327025846242,17808.0,1.6122878706416440156327025846242
212,17978.8132407500994390817147088066124,17977.2,1.6132407500994390817147088066124
213,18148.8141891546295034383407989365533,18147.2,1.6141891546295034383407989365533
214,18319.6151331263161345468830649911413,18318.0,1.6151331263161345468830649911413
215,18491.2160727066567511682571434648001,18489.6,1.6160727066567511682571434648001
216,18663.6170079365728347383440015135540,18662.0,1.6170079365728347383440015135540
217,18836.8179388564206178082148053221949,18835.2,1.6179388564206178082148053221949
218,19010.8188655060015285321002731378564,19009.2,1.6188655060015285321002731378564
219,19185.6197879245723944868451540109327,19184.0,1.6197879245723944868451540109327
220,19361.2207061508554183420882472118742,19359.6,1.6207061508554183420882472118742
221,19537.6216202230479232949060164458181,19536.0,1.6216202230479232949060164458181
222,19714.8225301788318854780700297336058,19713.2,1.6225301788318854780700297336058
223,19892.8234360553832469148832018259117,19891.2,1.6234360553832469148832018259117
224,20071.6243378893810240923870134407436,20070.0,1.6243378893810240923870134407436
225,20251.2252357170162147223640827394839,20249.6,1.6252357170162147223640827394839
226,20431.6261295740005062413219373411156,20430.0,1.6261295740005062413219373411156
227,20612.8270194955747947059687167191672,20611.2,1.6270194955747947059687167191672
228,20794.8279055165175159084533923173712,20793.2,1.6279055165175159084533923173712
229,20977.6287876711527958780145191480673,20976.0,1.6287876711527958780145191480673
230,21161.2296659933584254702115069825483,21159.6,1.6296659933584254702115069825483
231,21345.6305405165736608484099510029157,21344.0,1.6305405165736608484099510029157
232,21530.8314112738068602823043090777296,21529.2,1.6314112738068602823043090777296
233,21716.8322782976429522653391122064376,21715.2,1.6322782976429522653391122064376
234,21903.6331416202507511139649562121772,21902.0,1.6331416202507511139649562121772
235,22091.2340012733901132372171269404873,22089.6,1.6340012733901132372171269404873
236,22279.6348572884189437933168549113996,22278.0,1.6348572884189437933168549113996
237,22468.8357096963000573719286952611382,22467.2,1.6357096963000573719286952611382
238,22658.8365585276078944521591684480132,22657.2,1.6365585276078944521591684480132
