Eigenstate,Energy,Kinetic Energy,Potential Energy
1,0.500000000099340554118069658052659703,0.0,0.500000000099340554118069658052659703
2,1.84623093829955975213327886878644767,1.2,0.64623093829955975213327886878644767
3,3.93633761160973878082218582075779306,3.2,0.73633761160973878082218582075779306
4,6.79966528178166561305622025873865715,6.0,0.79966528178166561305622025873865715
5,10.4480465821581310586312867502264019,9.6,0.8480465821581310586312867502264019
6,14.8870660075048494728727117910695461,14.0,0.8870660075048494728727117910695461
7,20.1197208392651990133704472422081223,19.2,0.9197208392651990133704472422081223
8,26.1477838638189059120412897863424280,25.2,0.9477838638189059120412897863424280
9,32.9723835801739048612776059049656050,32.0,0.9723835801739048612776059049656050
10,40.5942802424798550933082734080348966,39.6,0.9942802424798550933082734080348966
11,49.0140094208785770171630142121980017,48.0,1.0140094208785770171630142121980017
12,58.2319622106753099883342045057820550,57.2,1.0319622106753099883342045057820550
13,68.2484327419363727818047114795406036,67.2,1.0484327419363727818047114795406036
14,79.0636477123453646472787896823688835,78.0,1.0636477123453646472787896823688835
15,90.6777855030173740444473870644247506,89.6,1.0777855030173740444473870644247506
16,103.090988983369438761538419849365021,102.0,1.090988983369438761538419849365021
17,116.303374344582060147046428109676274,115.2,1.103374344582060147046428109676274
18,130.315037350605409301843485476515498,129.2,1.115037350605409301843485476515498
19,145.126057861263309404711911181713867,144.0,1.126057861263309404711911181713867
20,160.736503169887175526683954713207782,159.6,1.136503169887175526683954713207782
21,177.146430509397714273556709833617652,176.0,1.146430509397714273556709833617652
22,194.355888963463665753226150178357343,193.2,1.155888963463665753226150178357343
23,212.364920944438329619407284939372548,211.2,1.164920944438329619407284939372548
24,231.173563350759988298981519180803151,230.0,1.173563350759988298981519180803151
25,250.781848483747834218134682956322382,249.6,1.181848483747834218134682956322382
26,271.189804781409558214719238850373177,270.0,1.189804781409558214719238850373177
27,292.397457411403925906109011403519989,291.2,1.197457411403925906109011403519989
28,314.404828754399817961120422429023320,313.2,1.204828754399817961120422429023320
29,337.211938801278182395053325278204766,336.0,1.211938801278182395053325278204766
30,360.818805481973859431969107435799302,359.6,1.218805481973859431969107435799302
31,385.225444939608300974226069687142094,384.0,1.225444939608300974226069687142094
32,410.431871760486307131668187550353172,409.2,1.231871760486307131668187550353172
33,436.438099168220254456622031413377246,435.2,1.238099168220254456622031413377246
34,463.244139188494744263150321922502861,462.0,1.244139188494744263150321922502861
35,490.850002789645404342165666322353931,489.6,1.250002789645404342165666322353931
36,519.255700003192098504606090388597980,518.0,1.255700003192098504606090388597980
37,548.461240027662713835717823347240792,547.2,1.261240027662713835717823347240792
38,578.466631318413276799864510885549040,577.2,1.266631318413276799864510885549040
39,609.271881665652300685392865245330463,608.0,1.271881665652300685392865245330463
40,640.876998262481446095252822048690166,639.6,1.276998262481446095252822048690166
41,673.281987764447825915125779702167256,672.0,1.281987764447825915125779702167256
42,706.486856341848293589134179662388209,705.2,1.286856341848293589134179662388209
43,740.491609725819567188151214063063808,739.2,1.291609725819567188151214063063808
44,775.296253249079947740115654520842463,774.0,1.296253249079947740115654520842463
45,810.900791882050820722672530372527918,809.6,1.300791882050820722672530372527918
46,847.305230264972993335797049652245911,846.0,1.305230264972993335797049652245911
47,884.509572736539443559671045269852046,883.2,1.309572736539443559671045269852046
48,922.513823359488470638787780168974806,921.2,1.313823359488470638787780168974806
49,961.317985943536574089326989934076099,960.0,1.317985943536574089326989934076099
50,1000.92206406597626561315823262504653,999.6,1.32206406597626561315823262504653
51,1041.32606109021855133933315432614302,1040.0,1.32606109021855133933315432614302
52,1082.52998018252147659960681525436291,1081.2,1.32998018252147659960681525436291
53,1124.53382432711367532596481012855969,1123.2,1.33382432711367532596481012855969
54,1167.33759633989430502666246764872184,1166.0,1.33759633989430502666246764872184
55,1210.94129888086727280475816819401386,1209.6,1.34129888086727280475816819401386
56,1255.34493446544758331298753752986334,1254.0,1.34493446544758331298753752986334
57,1300.54850547476044057369742816312783,1299.2,1.34850547476044057369742816312783
58,1346.55201416503893840626079924153916,1345.2,1.35201416503893840626079924153916
59,1393.35546267621342025711154395127721,1392.0,1.35546267621342025711154395127721
60,1440.95885303977456471983138717024439,1439.6,1.35885303977456471983138717024439
61,1489.36218718598268880521152915136864,1488.0,1.36218718598268880521152915136864
62,1538.56546695048746001609469709517725,1537.2,1.36546695048746001609469709517725
63,1588.56869408041496639277906316373627,1587.2,1.36869408041496639277906316373627
64,1639.37187023997278121484069175390576,1638.0,1.37187023997278121484069175390576
65,1690.97499701561812420525624930283408,1689.6,1.37499701561812420525624930283408
66,1743.37807592082937374365100325051790,1742.0,1.37807592082937374365100325051790
67,1796.58110840051692230416985361086631,1795.2,1.38110840051692230416985361086631
68,1850.58409583510561117265899222225955,1849.2,1.38409583510561117265899222225955
69,1905.38703954431766782711775851159073,1904.0,1.38703954431766782711775851159073
70,1960.98994079068214109711455139195733,1959.6,1.38994079068214109711455139195733
71,2017.39280078279423051412950649778492,2016.0,1.39280078279423051412950649778492
72,2074.59562067834560802240478605357917,2073.2,1.39562067834560802240478605357917
73,2132.59840158694477721348020338117294,2131.2,1.39840158694477721348020338117294
74,2191.40114457274469639903764258677691,2190.0,1.40114457274469639903764258677691
75,2251.00385065689326073557483137092291,2249.6,1.40385065689326073557483137092291
76,2311.40652081982078905767267449544413,2310.0,1.40652081982078905767267449544413
77,2372.60915600337735867820248742745724,2371.2,1.40915600337735867820248742745724
78,2434.61175711283166561563856222106427,2433.2,1.41175711283166561563856222106427
79,2497.41432501874204088864916275485489,2496.0,1.41432501874204088864916275485489
80,2561.01686055870931539249403904280892,2559.6,1.41686055870931539249403904280892
81,2625.41936453902037653028040323903463,2624.0,1.41936453902037653028040323903463
82,2690.62183773619049832157508154991749,2689.2,1.42183773619049832157508154991749
83,2756.62428089841183797708100104073479,2755.2,1.42428089841183797708100104073479
84,2823.42669474691486763637007159790739,2822.0,1.42669474691486763637007159790739
85,2891.02907997724895068949077909080086,2889.6,1.42907997724895068949077909080086
86,2959.43143726048775623787918784780594,2958.0,1.43143726048775623787918784780594
87,3028.63376724436474777920287567288389,3027.2,1.43376724436474777920287567288389
88,3098.63607055434355882303087003193677,3097.2,1.43607055434355882303087003193677
89,3169.43834779462768464206190233243154,3168.0,1.43834779462768464206190233243154
90,3241.04059954911357614691360126074644,3239.6,1.44059954911357614691360126074644
91,3313.44282638229090042042520257219044,3312.0,1.44282638229090042042520257219044
92,3386.64502884009344414988674970052159,3385.2,1.44502884009344414988674970052159
93,3460.64720745070387394055283118839511,3459.2,1.44720745070387394055283118839511
94,3535.44936272531532456506063111416230,3534.0,1.44936272531532456506063111416230
95,3611.05149515885256504934332906305525,3609.6,1.45149515885256504934332906305525
96,3687.45360523065529067351360415034419,3686.0,1.45360523065529067351360415034419
97,3764.65569340512590462408290711717526,3763.2,1.45569340512590462408290711717526
98,3842.65776013234398015958697234628989,3841.2,1.45776013234398015958697234628989
99,3921.45980584864944067950013659788773,3920.0,1.45980584864944067950013659788773
100,4001.06183097719634874590419665569458,3999.6,1.46183097719634874590419665569458
101,4081.46383592847906580322413550303172,4080.0,1.46383592847906580322413550303172
102,4162.66582110083241876662167783296070,4161.2,1.46582110083241876662167783296070
103,4244.66778688090740173602509470065481,4243.2,1.46778688090740173602509470065481
104,4327.46973364412383382806423098364416,4326.0,1.46973364412383382806423098364416
105,4411.07166175510130104442192973940786,4409.6,1.47166175510130104442192973940786
106,4495.47357156806961933087071147827583,4494.0,1.47357156806961933087071147827583
107,4580.67546342725997789930766998010373,4579.2,1.47546342725997789930766998010373
108,4666.67733766727784264554709666148284,4665.2,1.47733766727784264554709666148284
109,4753.47919461345863090209614674977055,4752.0,1.47919461345863090209614674977055
110,4841.08103458220710634501406908727339,4839.6,1.48103458220710634501406908727339
111,4929.48285788132137701275765120210156,4928.0,1.48285788132137701275765120210156
112,5018.68466481030232996128220634318312,5017.2,1.48466481030232996128220634318312
113,5108.68645566064928054387361700157265,5107.2,1.48645566064928054387361700157265
114,5199.48823071614256554643132497416615,5198.0,1.48823071614256554643132497416615
115,5291.08999025311376896041941596000970,5289.6,1.48999025311376896041941596000970
116,5383.49173454070422084405578083109222,5382.0,1.49173454070422084405578083109222
117,5476.69346384111237800930223190062665,5475.2,1.49346384111237800930223190062665
118,5570.69517840983065424111392303183336,5569.2,1.49517840983065424111392303183336
119,5665.49687849587223404168983253736887,5664.0,1.49687849587223404168983253736887
120,5761.09856434198837805023255724708565,5759.6,1.49856434198837805023255724708565
121,5857.50023618487669002148042806135345,5856.0,1.50023618487669002148042806135345
122,5954.70189425538079633314389856089993,5953.2,1.50189425538079633314389856089993
123,6052.70353877868185679944581016829962,6051.2,1.50353877868185679944581016829962
124,6151.50516997448230788815699454917252,6150.0,1.50516997448230788815699454917252
125,6251.10678805718220987225655832987049,6249.6,1.50678805718220987225655832987049
126,6351.50839323604855425004834313440602,6350.0,1.50839323604855425004834313440602
127,6452.70998571537786718967953340076006,6451.2,1.50998571537786718967953340076006
128,6554.71156569465242216681793405178411,6553.2,1.51156569465242216681793405178411
129,6657.51313336869036289100682013216970,6656.0,1.51313336869036289100682013216970
130,6761.11468892779001923434909378421356,6759.6,1.51468892779001923434909378421356
131,6865.51623255786868347205548107708887,6864.0,1.51623255786868347205548107708887
132,6970.71776444059609916719121655596925,6969.2,1.51776444059609916719121655596925
133,7076.71928475352290325037094288590324,7075.2,1.51928475352290325037094288590324
134,7183.52079367020425056919534586460627,7182.0,1.52079367020425056919534586460627
135,7291.12229136031883207387933642771894,7289.6,1.52229136031883207387933642771894
136,7399.52377798978349411799200224716795,7398.0,1.52377798978349411799200224716795
137,7508.72525372086365304528666565177230,7507.2,1.52525372086365304528666565177230
138,7618.72671871227968562160792549401158,7617.2,1.52671871227968562160792549401158
139,7729.52817311930947376495821407478442,7728.0,1.52817311930947376495821407478442
140,7841.12961709388726658083867677361455,7839.6,1.52961709388726658083867677361455
141,7953.53105078469901815248943053387642,7952.0,1.53105078469901815248943053387642
142,8066.73247433727435146238829477249868,8065.2,1.53247433727435146238829477249868
143,8180.73388789407529017119794422739158,8179.2,1.53388789407529017119794422739158
144,8295.53529159458189280071531502835630,8294.0,1.53529159458189280071531502835630
145,8411.13668557537491967961830436380988,8409.6,1.53668557537491967961830436380988
146,8527.53806997021565514205490766956885,8526.0,1.53806997021565514205490766956885
147,8644.73944491012299926615443616910770,8643.2,1.53944491012299926615443616910770
148,8762.74081052344794448150722623071648,8761.2,1.54081052344794448150722623071648
149,8881.54216693594553884658683546588328,8880.0,1.54216693594553884658683546588328
150,9001.14351427084443963701027660376357,8999.6,1.54351427084443963701027660376357
151,9121.54485264891415315891138560566621,9120.0,1.54485264891415315891138560566621
152,9242.74618218853005108661566295129190,9241.2,1.54618218853005108661566295129190
153,9364.74750300573625227433094015388244,9363.2,1.54750300573625227433094015388244
154,9487.54881521430645394111584694121228,9486.0,1.54881521430645394111584694121228
155,9611.15011892580279046513967255053152,9609.6,1.55011892580279046513967255053152
156,9735.55141424963279765361781810762523,9734.0,1.55141424963279765361781810762523
157,9860.75270129310455353504660437310738,9859.2,1.55270129310455353504660437310738
158,9986.75398016148006749186146248222485,9985.2,1.55398016148006749186146248222485
159,10113.5552509580269814063733802496644,10112.0,1.5552509580269814063733802496644
160,10241.1565137840686491575449619018190,10239.6,1.5565137840686491575449619018190
161,10369.5577687390326529647485588176415,10368.0,1.5577687390326529647485588176415
162,10498.7590159204978160396307756955459,10497.2,1.5590159204978160396307756955459
163,10628.7602554242397663994054736894278,10627.2,1.5602554242397663994054736894278
164,10759.5614873442751064781954014540905,10758.0,1.5614873442751064781954014540905
165,10891.1627117729042371366649862520816,10889.6,1.5627117729042371366649862520816
166,11023.5639288007528865855583097763826,11022.0,1.5639288007528865855583097763826
167,11156.7651385168123914554891715491531,11155.2,1.5651385168123914554891715491531
168,11290.7663410084787727019247338977665,11289.2,1.5663410084787727019247338977665
169,11425.5675363615906514074809365505095,11424.0,1.5675363615906514074809365505095
170,11561.1687246604660442246758126388575,11559.6,1.5687246604660442246758126388575
171,11697.5699059879380786536316566772303,11696.0,1.5699059879380786536316566772303
172,11834.7710804253896660214149396303403,11833.2,1.5710804253896660214149396303403
173,11972.7722480527871675653772337017586,11971.2,1.5722480527871675653772337017586
174,12111.5734089487130894640450632537456,12110.0,1.5734089487130894640450632537456
175,12251.1745631903978408005246998182525,12249.6,1.5745631903978408005246998182525
176,12391.5757108537505841648109927982485,12390.0,1.5757108537505841648109927982485
177,12532.7768520133892121555735402631201,12531.2,1.5768520133892121555735402631201
178,12674.7779867426694789358532386107451,12673.2,1.5779867426694789358532386107451
179,12817.5791151137133132876541994173049,12816.0,1.5791151137133132876541994173049
180,12961.1802371974363441118688952133811,12959.6,1.5802371974363441118688952133811
181,13105.5813530635746610221626350926739,13104.0,1.5813530635746610221626350926739
182,13250.7824627807108377282450461975815,13249.2,1.5824627807108377282450461975815
183,13396.7835664162992412578446502622432,13395.2,1.5835664162992412578446502622432
184,13543.5846640366906512589662170121009,13542.0,1.5846640366906512589662170121009
185,13691.1857557071562111906000679579787,13689.6,1.5857557071562111906000679579787
186,13839.5868414919107323705461469435279,13838.0,1.5868414919107323705461469435279
187,13988.7879214541353746809004616766749,13987.2,1.5879214541353746809004616766749
188,14138.7889956559997193675639316069049,14137.2,1.5889956559997193675639316069049
189,14289.5900641586832576649119213496282,14288.0,1.5900641586832576649119213496282
190,14441.1911270223963108967491707428032,14439.6,1.5911270223963108967491707428032
191,14593.5921843064004012761507657758076,14592.0,1.5921843064004012761507657758076
192,14746.7932360690280897864403357310085,14745.2,1.5932360690280897864403357310085
193,14900.7942823677022994472043480388133,14899.2,1.5942823677022994472043480388133
194,15055.5953232589551373061743831615866,15054.0,1.5953232589551373061743831615866
195,15211.1963587984462330893889601553286,15209.6,1.5963587984462330893889601553286
196,15367.5973890409806082015854243376534,15366.0,1.5973890409806082015854243376534
197,15524.7984140405260894521977873908757,15523.2,1.5984140405260894521977873908757
198,15682.7994338502302816689924364135032,15681.2,1.5994338502302816689924364135032
199,15841.6004485224371120332528523799910,15840.0,1.6004485224371120332528523799910
200,16001.2014581087029600767683502421192,15999.6,1.6014581087029600767683502421192
201,16161.6024626598123843171024550837666,16160.0,1.6024626598123843171024550837666
202,16322.8034622257934589073530783522988,16321.2,1.6034622257934589073530783522988
203,16484.8044568559327309551836751656993,16483.2,1.6044568559327309551836751656993
204,16647.6054465987898101260912194837565,16646.0,1.6054465987898101260912194837565
205,16811.2064315022116004963248188163248,16809.6,1.6064315022116004963248188163248
206,16975.6074116133461876742582222101759,16974.0,1.6074116133461876742582222101759
207,17140.8083869786563870609483374663939,17139.2,1.6083869786563870609483374663939
208,17306.8093576439329674713926928973634,17305.2,1.6093576439329674713926928973634
209,17473.6103236543075558594249502183946,17472.0,1.6103236543075558594249502183946
210,17641.2112850542652346419588803294691,17639.6,1.6112850542652346419588803294691
211,17809.6122418876568389816515408893362,17808.0,1.6122418876568389816515408893362
212,17978.8131941977109642552247340007140,17977.2,1.6131941977109642552247340007140
213,18148.8141420270456880854500622082709,18147.2,1.6141420270456880854500622082709
214,18319.6150854176800219126009839597682,18318.0,1.6150854176800219126009839597682
215,18491.2160244110450913117190792965463,18489.6,1.6160244110450913117190792965463
216,18663.6169590479950590102693110757284,18662.0,1.6169590479950590102693110757284
217,18836.8178893688177945653450714538024,18835.2,1.6178893688177945653450714538024
218,19010.8188154132452996729944725841180,19009.2,1.6188154132452996729944725841180
219,19185.6197372204638923827284273455716,19184.0,1.6197372204638923827284273455716
220,19361.2206548291241627254615990476506,19359.6,1.6206548291241627254615990476506
221,19537.6215682773506976573056510890784,19536.0,1.6215682773506976573056510890784
222,19714.8224776027515925167089703644669,19713.2,1.6224776027515925167089703644669
223,19892.8233828424277425559064506014495,19891.2,1.6233828424277425559064506014495
224,20071.6242840329819296061117553291023,20070.0,1.6242840329819296061117553291023
225,20251.2251812105277064331312149110386,20249.6,1.6251812105277064331312149110386
226,20431.6260744106980823214798406061657,20430.0,1.6260744106980823214798406061657
227,20612.8269636686540185299854594933498,20611.2,1.6269636686540185299854594933498
228,20794.8278490190927354292267840937001,20793.2,1.6278490190927354292267840937001
229,20977.6287304962558384730936621113682,20976.0,1.6287304962558384730936621113682
230,21161.2296081339372676908550034689910,21159.6,1.6296081339372676908550034689910
231,21345.6304819654910724891492691901560,21344.0,1.6304819654910724891492691901560
232,21530.8313520238390221729649077348773,21529.2,1.6313520238390221729649077348773
233,21716.8322183414780471712634476746352,21715.2,1.6322183414780471712634476746352
234,21903.6330809504875271134640235935779,21902.0,1.6330809504875271134640235935779
235,22091.2339398825364189280433300080909,22089.6,1.6339398825364189280433300080909
236,22279.6347951688902346621770785919503,22278.0,1.6347951688902346621770785919503
237,22468.8356468404178726427098356079492,22467.2,1.6356468404178726427098356079492
238,22658.8364949275983037096282932255944,22657.2,1.6364949275983037096282932255944
