Eigenstate,Energy,Kinetic Energy,Potential Energy
1,0.500000000059723273436332205477410910,0.0,0.500000000059723273436332205477410910
2,1.84623093804095736608412691286009429,1.2,0.64623093804095736608412691286009429
3,3.93633761085010864468363396833728644,3.2,0.73633761085010864468363396833728644
4,6.79966528019942424636765385922288459,6.0,0.79966528019942424636765385922288459
5,10.4480465794173243245388142412442422,9.6,0.8480465794173243245388142412442422
6,14.8870660032636177067276778178980246,14.0,0.8870660032636177067276778178980246
7,20.1197208331788922762729715486577058,19.2,0.9197208331788922762729715486577058
8,26.1477838555413797135510397274928218,25.2,0.9477838555413797135510397274928218
9,32.9723835693581194860076383495098143,32.0,0.9723835693581194860076383495098143
10,40.5942802287781768494218016555752859,39.6,0.9942802287781768494218016555752859
11,49.0140094039429391593818529508033423,48.0,1.0140094039429391593818529508033423
12,58.2319621901573021292992389615367658,57.2,1.0319621901573021292992389615367658
13,68.2484327174872913682976521439816735,67.2,1.0484327174872913682976521439816735
14,79.0636476836162410252387015391677852,78.0,1.0636476836162410252387015391677852
15,90.6777854696589889997066491011476485,89.6,1.0777854696589889997066491011476485
16,103.090988945032328561188445489985305,102.0,1.090988945032328561188445489985305
17,116.303374300916517047929252635696234,115.2,1.103374300916517047929252635696234
18,130.315037301261478344363064856198345,129.2,1.115037301261478344363064856198345
19,145.126057805890782643520294461476623,144.0,1.126057805890782643520294461476623
20,160.736503108135584448963765440268968,159.6,1.136503108135584448963765440268968
21,177.146430440916320906997538734725616,176.0,1.146430440916320906997538734725616
22,194.355888887901452807244093323150567,193.2,1.155888887901452807244093323150567
23,212.364920861443989899505276761858855,211.2,1.164920861443989899505276761858855
24,231.173563259981913564850666537820503,230.0,1.173563259981913564850666537820503
25,250.781848384834103608817984446696963,249.6,1.181848384834103608817984446696963
26,271.189804674007926331302484022956028,270.0,1.189804674007926331302484022956028
27,292.397457295161810619182169237406225,291.2,1.197457295161810619182169237406225
28,314.404828628964287993585846375421983,313.2,1.204828628964287993585846375421983
29,337.211938666295944718723738676426401,336.0,1.211938666295944718723738676426401
30,360.818805337091246507449021800506578,359.6,1.218805337091246507449021800506578
31,385.225444784471257856889029845947937,384.0,1.225444784471257856889029845947937
32,410.431871594740378461497936888777906,409.2,1.231871594740378461497936888777906
33,436.438098991510571345837122937835284,435.2,1.238098991510571345837122937835284
34,463.244139000466011092566692791916509,462.0,1.244139000466011092566692791916509
35,490.850002589941885474946342508064907,489.6,1.250002589941885474946342508064907
36,519.255699791457604924239367289341090,518.0,1.255699791457604924239367289341090
37,548.461239803540589713635951213608760,547.2,1.261239803540589713635951213608760
38,578.466631081546385996976353823314575,577.2,1.266631081546385996976353823314575
39,609.271881415683013190890373424202181,608.0,1.271881415683013190890373424202181
40,640.876997999051624405312929610583779,639.6,1.276997999051624405312929610583779
41,673.281987487198811353529051059585439,672.0,1.281987487198811353529051059585439
42,706.486856050420892571330171616383062,705.2,1.286856050420892571330171616383062
43,740.491609419854037429895969680932074,739.2,1.291609419854037429895969680932074
44,775.296252928215984411471734549857676,774.0,1.296252928215984411471734549857676
45,810.900791545927542547882953709797457,809.6,1.300791545927542547882953709797457
46,847.305229913228928639310748043905525,846.0,1.305229913228928639310748043905525
47,884.509572368812516258400762022544374,883.2,1.309572368812516258400762022544374
48,922.513822975415986180514671628782828,921.2,1.313822975415986180514671628782828
49,961.317985542755205337024434895155789,960.0,1.317985542755205337024434895155789
50,1000.92206364812203867488615044808088,999.6,1.32206364812203867488615044808088
51,1041.32606065492683134324973927281672,1040.0,1.32606065492683134324973927281672
52,1082.52997972942695341355446689824439,1081.2,1.32997972942695341355446689824439
53,1124.53382385585034922100870246174445,1123.2,1.33382385585034922100870246174445
54,1167.33759585009547228389163860982829,1166.0,1.33759585009547228389163860982829
55,1210.94129837216551126459888823805256,1209.6,1.34129837216551126459888823805256
56,1255.34493393747473786622553532052220,1254.0,1.34493393747473786622553532052220
57,1300.54850492714760859335833991678612,1299.2,1.34850492714760859335833991678612
58,1346.55201359741645511945586405433667,1345.2,1.35201359741645511945586405433667
59,1393.35546208821084405591776864647305,1392.0,1.35546208821084405591776864647305
60,1440.95885243102066241024097843331964,1439.6,1.35885243102066241024097843331964
61,1489.36218655610542079315421311798855,1488.0,1.36218655610542079315421311798855
62,1538.56546629911396542950787026161109,1537.2,1.36546629911396542950787026161109
63,1588.56869340717154813867448708738244,1587.2,1.36869340717154813867448708738244
64,1639.37186954448489097029208326721186,1638.0,1.37186954448489097029208326721186
65,1690.97499629751034734120920080832113,1689.6,1.37499629751034734120920080832113
66,1743.37807517972541418043555802245770,1742.0,1.37807517972541418043555802245770
67,1796.58110763603958729757586973693636,1795.2,1.38110763603958729757586973693636
68,1850.58409504687679602941534661734681,1849.2,1.38409504687679602941534661734681
69,1905.38703873195834054859824831813103,1904.0,1.38703873195834054859824831813103
70,1960.98993995381232695007608050583566,1959.6,1.38993995381232695007608050583566
71,2017.39279992103299652727107802970930,2016.0,1.39279992103299652727107802970930
72,2074.59561979131104740751992158125870,2073.2,1.39561979131104740751992158125870
73,2132.59840067425399370995930223765965,2131.2,1.39840067425399370995930223765965
74,2191.40114363401378854046161687169040,2190.0,1.40114363401378854046161687169040
75,2251.00384969173730603712607717141727,2249.6,1.40384969173730603712607717141727
76,2311.40651982785382812307477288251415,2310.0,1.40651982785382812307477288251415
77,2372.60915498421237922488525868761671,2371.2,1.40915498421237922488525868761671
78,2434.61175606608058641681062297107668,2433.2,1.41175606608058641681062297107668
79,2497.41432394401569563094576935693109,2496.0,1.41432394401569563094576935693109
80,2561.01685945561743644785381405775155,2559.6,1.41685945561743644785381405775155
81,2625.41936340717157864069013068989544,2624.0,1.41936340717157864069013068989544
82,2690.62183657519226219530761716334767,2689.2,1.42183657519226219530761716334767
83,2756.62427970787049379503712524423291,2755.2,1.42427970787049379503712524423291
84,2823.42669352643557846712084665891238,2822.0,1.42669352643557846712084665891238
85,2891.02907872643569581160255969427962,2889.6,1.42907872643569581160255969427962
86,2959.43143597894331436808926195953847,2958.0,1.43143597894331436808926195953847
87,3028.63376593169068020499895384461039,3027.2,1.43376593169068020499895384461039
88,3098.63606921014019243817334967487836,3097.2,1.43606921014019243817334967487836
89,3169.43834641849409488357290337808532,3168.0,1.43834641849409488357290337808532
90,3241.04059814064756983204216618496918,3239.6,1.44059814064756983204216618496918
91,3313.44282494108899848208283404904473,3312.0,1.44282494108899848208283404904473
92,3386.64502736575086426903259326276515,3385.2,1.44502736575086426903259326276515
93,3460.64720594281451307399232335169936,3459.2,1.44720594281451307399232335169936
94,3535.44936118347174136710603170984773,3534.0,1.44936118347174136710603170984773
95,3611.05149358264596218576897510826978,3609.6,1.45149358264596218576897510826978
96,3687.45360361967549702622277545387145,3686.0,1.45360361967549702622277545387145
97,3764.65569175896135738488716495239504,3763.2,1.45569175896135738488716495239504
98,3842.65775845058170681148268997160503,3841.2,1.45775845058170681148268997160503
99,3921.45980413087504086381026154174723,3920.0,1.45980413087504086381026154174723
100,4001.06182922299397601363679074260075,3999.6,1.46182922299397601363679074260075
101,4081.46383413743140924898215447829114,4080.0,1.46383413743140924898215447829114
102,4162.66581927252068454338134480325649,4161.2,1.46581927252068454338134480325649
103,4244.66778501491129444908290742473098,4243.2,1.46778501491129444908290742473098
104,4327.46973174002153780643474433769289,4326.0,1.46973174002153780643474433769289
105,4411.07165981246946148795071450438805,4409.6,1.47165981246946148795071450438805
106,4495.47356958648332333130864202327301,4494.0,1.47356958648332333130864202327301
107,4580.67546140629273533357428579921977,4579.2,1.47546140629273533357428579921977
108,4666.67733560650156693939196181328952,4665.2,1.47733560650156693939196181328952
109,4753.47919251244361966234811276201545,4752.0,1.47919251244361966234811276201545
110,4841.08103244052202185858921834108985,4839.6,1.48103244052202185858921834108985
111,4929.48285569853322661057689306567461,4928.0,1.48285569853322661057689306567461
112,5018.68466258597644624522966505842936,5017.2,1.48466258597644624522966505842936
113,5108.68645339434930147490691060100318,5107.2,1.48645339434930147490691060100318
114,5199.48822840743041439193399563222060,5198.0,1.48822840743041439193399563222060
115,5291.08998790154963409886538906688011,5289.6,1.48998790154963409886538906688011
116,5383.49173214584653542503408119065364,5382.0,1.49173214584653542503408119065364
117,5476.69346140251779946692925131009404,5475.2,1.49346140251779946692925131009404
118,5570.69517592705404365883818291951231,5569.2,1.49517592705404365883818291951231
119,5665.49687596846663536647262251931317,5664.0,1.49687596846663536647262251931317
120,5761.09856176950499715406474200893798,5759.6,1.49856176950499715406474200893798
121,5857.50023356686487360817339340050123,5856.0,1.50023356686487360817339340050123
122,5954.70189159138801068830909968844469,5953.2,1.50189159138801068830909968844469
123,6052.70353606825366638155390704991020,6051.2,1.50353606825366638155390704991020
124,6151.50516721716235375854384635004001,6150.0,1.50516721716235375854384635004001
125,6251.10678525251218796191861901016827,6249.6,1.50678525251218796191861901016827
126,6351.50839038356819346104573809602643,6350.0,1.50839038356819346104573809602643
127,6452.70998281462490732893981765719315,6451.2,1.50998281462490732893981765719315
128,6554.71156274516259171010815738086981,6553.2,1.51156274516259171010815738086981
129,6657.51313036999735657481559397395305,6656.0,1.51313036999735657481559397395305
130,6761.11468587942547547339422332432458,6759.6,1.51468587942547547339422332432458
131,6865.51622945936216160010594666956487,6864.0,1.51622945936216160010594666956487
132,6970.71776129147505649886508845376667,6969.2,1.51776129147505649886508845376667
133,7076.71928155331267196154374412928858,7075.2,1.51928155331267196154374412928858
134,7183.52079041842801439362477785241244,7182.0,1.52079041842801439362477785241244
135,7291.12228805649760281362431177921191,7289.6,1.52228805649760281362431177921191
136,7399.52377463343608796517529563414744,7398.0,1.52377463343608796517529563414744
137,7508.72525031150666671272053649231882,7507.2,1.52525031150666671272053649231882
138,7618.72671524942747227977283048981091,7617.2,1.52671524942747227977283048981091
139,7729.52816960247411878279444462949326,7728.0,1.52816960247411878279444462949326
140,7841.12961352257856306777984202294389,7839.6,1.52961352257856306777984202294389
141,7953.53104715842444229913572683179652,7952.0,1.53104715842444229913572683179652
142,8066.73247065553903767718577506269658,8065.2,1.53247065553903767718577506269658
143,8180.73388415638200601045768905311703,8179.2,1.53388415638200601045768905311703
144,8295.53528780043101368927393980216745,8294.0,1.53528780043101368927393980216745
145,8411.13668172426440341940789447201913,8409.6,1.53668172426440341940789447201913
146,8527.53806606164101620581676031072601,8526.0,1.53806606164101620581676031072601
147,8644.73944094357728287349662150005941,8643.2,1.53944094357728287349662150005941
148,8762.74080649842170045447149457580592,8761.2,1.54080649842170045447149457580592
149,8881.54216285192679524185452142543699,8880.0,1.54216285192679524185452142543699
150,9001.14351012731867615184165542149476,8999.6,1.54351012731867615184165542149476
151,9121.54484844536427430787554443155654,9120.0,1.54484844536427430787554443155654
152,9242.74617792443635914613159100452851,9241.2,1.54617792443635914613159100452851
153,9364.74749868057641999200255973829712,9363.2,1.54749868057641999200255973829712
154,9487.54881082755549700680561723316314,9486.0,1.54881082755549700680561723316314
155,9611.15011447693303974068630221452977,9609.6,1.55011447693303974068630221452977
156,9735.55140973811387115806415720279164,9734.0,1.55140973811387115806415720279164
157,9860.75269671840332818220398696268060,9859.2,1.55269671840332818220398696268060
158,9986.75397552306065057699550592915646,9985.2,1.55397552306065057699550592915646
159,10113.5552462553506818387552880665126,10112.0,1.5552462553506818387552880665126
160,10241.1565090165939484355698846148919,10239.6,1.5565090165939484355698846148919
161,10369.5577639062151758902801796712182,10368.0,1.5577639062151758902801796712182
162,10498.7590110217903011681874344471971,10497.2,1.5590110217903011681874344471971
163,10628.7602504590920362227596792348473,10627.2,1.5602504590920362227596792348473
164,10759.5614823121340373359128713988934,10758.0,1.5614823121340373359128713988934
165,10891.1627066732137288530642548780203,10889.6,1.5627066732137288530642548780203
166,11023.5639236329538318285257892799651,11022.0,1.5639236329538318285257892799651
167,11156.7651332803426448135372280153274,11155.2,1.5651332803426448135372280153274
168,11290.7663357027731194758323661673602,11289.2,1.5663357027731194758323661673602
169,11425.5675309860807761128085270532764,11424.0,1.5675309860807761128085270532764
170,11561.1687192145804988013958729873970,11559.6,1.5687192145804988013958729873970
171,11697.5699004711022503790668046652996,11696.0,1.5699004711022503790668046652996
172,11834.7710748370257451226243561534600,11833.2,1.5710748370257451226243561534600
173,11972.7722423923141145270803217660682,11971.2,1.5722423923141145270803217660682
174,12111.5734032155466020281181504754956,12110.0,1.5734032155466020281181504754956
175,12251.1745573839503206530540659074081,12249.6,1.5745573839503206530540659074081
176,12391.5757049734311033066301638602771,12390.0,1.5757049734311033066301638602771
177,12532.7768460586034789521579705514665,12531.2,1.5768460586034789521579705514665
178,12674.7779807128198038423895748107985,12673.2,1.5779807128198038423895748107985
179,12817.5791090081985742450435506028249,12816.0,1.5791090081985742450435506028249
180,12961.1802310156519516093658672669117,12959.6,1.5802310156519516093658672669117
181,13105.5813468049125228222932596385156,13104.0,1.5813468049125228222932596385156
182,13250.7824564445593232495861399609749,13249.2,1.5824564445593232495861399609749
183,13396.7835600020431456111866049132118,13395.2,1.5835600020431456111866049132118
184,13543.5846575437111589323193662618014,13542.0,1.5846575437111589323193662618014
185,13691.1857491348308593784408299097503,13689.6,1.5857491348308593784408299097503
186,13839.5868348396133739426373317607995,13838.0,1.5868348396133739426373317607995
187,13988.7879147212361407859522834431377,13987.2,1.5879147212361407859522834431377
188,14138.7889888418649816669384434523223,14137.2,1.5889888418649816669384434523223
189,14289.5900572626755901915051503150655,14288.0,1.5900572626755901915051503150655
190,14441.1911200438744515341172629379569,14439.6,1.5911200438744515341172629379569
191,14593.5921772447192128528765194622917,14592.0,1.5921772447192128528765194622917
192,14746.7932289235385207806668778211439,14745.2,1.5932289235385207806668778211439
193,14900.7942751377513442961894389708981,14899.2,1.5942751377513442961894389708981
194,15055.5953159438857963156474538303569,15054.0,1.5953159438857963156474538303569
195,15211.1963513975974719374169680478566,15209.6,1.5963513975974719374169680478566
196,15367.5973815536873170315799555321714,15366.0,1.5973815536873170315799555321714
197,15524.7984064661190415496173913837145,15523.2,1.5984064661190415496173913837145
198,15682.7994261880360917162175964969760,15681.2,1.5994261880360917162175964969760
199,15841.6004407717781939370302421912277,15840.0,1.6004407717781939370302421912277
200,16001.2014502688974843625411644030407,15999.6,1.6014502688974843625411644030407
201,16161.6024547301742350844623100600706,16160.0,1.6024547301742350844623100600706
202,16322.8034542056321903407630326729474,16321.2,1.6034542056321903407630326729474
203,16484.8044487445535233840399644438622,16483.2,1.6044487445535233840399644438622
204,16647.6054383954934256281028871106539,16646.0,1.6054383954934256281028871106539
205,16811.2064232062943380381037486496592,16809.6,1.6064232062943380381037486496592
206,16975.6074032240998377829222872441794,16974.0,1.6074032240998377829222872441794
207,17140.8083784953681860204498530749197,17139.2,1.6083784953681860204498530749197
208,17306.8093490658855510371918540911047,17305.2,1.6093490658855510371918540911047
209,17473.6103149807789124850339947324818,17472.0,1.6103149807789124850339947324818
210,17641.2112762845286582107871322866640,17639.6,1.6112762845286582107871322866640
211,17809.6122330209808810374849292928985,17808.0,1.6122330209808810374849292928985
212,17978.8131852333593857245733304424189,17977.2,1.6131852333593857245733304424189
213,18148.8141329642774104848975609179453,18147.2,1.6141329642774104848975609179453
214,18319.6150762557490780341875085539485,18318.0,1.6150762557490780341875085539485
215,18491.2160151492005753792846358266204,18489.6,1.6160151492005753792846358266204
216,18663.6169496854810762995788344555587,18662.0,1.6169496854810762995788344555587
217,18836.8178799048734104807091587664877,18835.2,1.6178799048734104807091587664877
218,19010.8188058471044882729899578323669,19009.2,1.6188058471044882729899578323669
219,19185.6197275513554843475106157800144,19184.0,1.6197275513554843475106157800144
220,19361.2206450562717927580482242660824,19359.6,1.6206450562717927580482242660824
221,19537.6215583999727513110954848706890,19536.0,1.6215583999727513110954848706890
222,19714.8224676200611524413816737143054,19713.2,1.6224676200611524413816737143054
223,19892.8233727536325341537302059431499,19891.2,1.6233727536325341537302059431499
224,20071.6242738372842660905636531048781,20070.0,1.6242738372842660905636531048781
225,20251.2251709071244332816120084079313,20249.6,1.6251709071244332816120084079313
226,20431.6260639987805211137774649383339,20430.0,1.6260639987805211137774649383339
227,20612.8269531474079101640159693168035,20611.2,1.6269531474079101640159693168035
228,20794.8278383876981827054479327742929,20793.2,1.6278383876981827054479327742929
229,20977.6287197538872480388554893531471,20976.0,1.6287197538872480388554893531471
230,21161.2295972797632913358162790336313,21159.6,1.6295972797632913358162790336313
231,21345.6304709986745477827511318592131,21344.0,1.6304709986745477827511318592131
232,21530.8313409435369124348120723265909,21529.2,1.6313409435369124348120723265909
233,21716.8322071468413807651225254050905,21715.2,1.6322071468413807651225254050905
234,21903.6330696406613360554418030651633,21902.0,1.6330696406613360554418030651633
235,22091.2339284566596767993611816849191,22089.6,1.6339284566596767993611816849191
236,22279.6347836260957938168069310440564,22278.0,1.6347836260957938168069310440564
237,22468.8356351798324006999843903754164,22467.2,1.6356351798324006999843903754164
238,22658.8364831483422193217815443342563,22657.2,1.6364831483422193217815443342563
