Eigenstate,Energy,Kinetic Energy,Potential Energy
1,0.500000000635701783523498532678633170,0.0,0.500000000635701783523498532678633170
2,1.84623094180072912176467047521591775,1.2,0.64623094180072912176467047521591775
3,3.93633762189451887341090351924979012,3.2,0.73633762189451887341090351924979012
4,6.79966530320476572683510881109713537,6.0,0.79966530320476572683510881109713537
5,10.4480466192697030149252931996434564,9.6,0.8480466192697030149252931996434564
6,14.8870660649361867449312352056380009,14.0,0.8870660649361867449312352056380009
7,20.1197209216868660571486630202137759,19.2,0.9197209216868660571486630202137759
8,26.1477839759235019700328284194814515,25.2,0.9477839759235019700328284194814515
9,32.9723837266682566629949965329599611,32.0,0.9723837266682566629949965329599611
10,40.5942804280812458564164832143797783,39.6,0.9942804280812458564164832143797783
11,49.0140096503128760725024544898303221,48.0,1.0140096503128760725024544898303221
12,58.2319624886760714632878179242523797,57.2,1.0319624886760714632878179242523797
13,68.2484330732444623838014478568069252,67.2,1.0484330732444623838014478568069252
14,79.0636481017088909222538907899898541,78.0,1.0636481017088909222538907899898541
15,90.6777859551918038822407803039442364,89.6,1.0777859551918038822407803039442364
16,103.090989503117829208599083560339357,102.0,1.090989503117829208599083560339357
17,116.303374936675366456547111024274618,115.2,1.103374936675366456547111024274618
18,130.315038019822844699121089538085039,129.2,1.115038019822844699121089538085039
19,145.126058612392741072526577433778849,144.0,1.126058612392741072526577433778849
20,160.736504007725546742625905788534787,159.6,1.136504007725546742625905788534787
21,177.146431438751485998988925817205714,176.0,1.146431438751485998988925817205714
22,194.355889989149273120678231334350408,193.2,1.155889989149273120678231334350408
23,212.364922071282650169623515426046458,211.2,1.164922071282650169623515426046458
24,231.173564583600819758009086056687959,230.0,1.173564583600819758009086056687959
25,250.781849827434380245932794166110354,249.6,1.181849827434380245932794166110354
26,271.189806240802921002629778715635784,270.0,1.189806240802921002629778715635784
27,292.397458991377604815972139075189327,291.2,1.197458991377604815972139075189327
28,314.404830459840213625554807425323953,313.2,1.204830459840213625554807425323953
29,337.211940637085105863815935189058038,336.0,1.211940637085105863815935189058038
30,360.818807453061046071636454294289435,359.6,1.218807453061046071636454294289435
31,385.225447050903928920102607413908193,384.0,1.225447050903928920102607413908193
32,410.431874016933520160374223191065970,409.2,1.231874016933520160374223191065970
33,436.438101574777689201217803712438962,435.2,1.238101574777689201217803712438962
34,463.244141750137061734143952851915677,462.0,1.244141750137061734143952851915677
35,490.850005511363825750363047741206962,489.6,1.250005511363825750363047741206962
36,519.255702889994945407686419865793466,518.0,1.255702889994945407686419865793466
37,548.461243084575952651272902610830113,547.2,1.261243084575952651272902610830113
38,578.466634550481067744612204324294171,577.2,1.266634550481067744612204324294171
39,609.271885077937551214257962237750467,608.0,1.271885077937551214257962237750467
40,640.877001860066368925673211587005449,639.6,1.277001860066368925673211587005449
41,673.281991552434501731797893522983192,672.0,1.281991552434501731797893522983192
42,706.486860325359238532852354856444494,705.2,1.286860325359238532852354856444494
43,740.491613909998305239722211133460160,739.2,1.291613909998305239722211133460160
44,775.296257639091588116777048005978610,774.0,1.296257639091588116777048005978610
45,810.900796483082640410197443466962559,809.6,1.300796483082640410197443466962559
46,847.305235082235024884673502876941330,846.0,1.305235082235024884673502876941330
47,884.509577775265068278515623188158273,883.2,1.309577775265068278515623188158273
48,922.513828624935017322585879538544225,921.2,1.313828624935017322585879538544225
49,961.317991440985923424257630967757181,960.0,1.317991440985923424257630967757181
50,1000.92206980073546040372080913966070,999.6,1.32206980073546040372080913966070
51,1041.32606706762041270729848238560126,1040.0,1.32606706762041270729848238560126
52,1082.52998640792522630800136491447997,1081.2,1.32998640792522630800136491447997
53,1124.53383080590556438490165373729675,1123.2,1.33383080590556438490165373729675
54,1167.33760307748824874138273579295667,1166.0,1.33760307748824874138273579295667
55,1210.94130588270549242976458455777676,1209.6,1.34130588270549242976458455777676
56,1255.34494173700125447965686382728104,1254.0,1.34494173700125447965686382728104
57,1300.54851302153034866226874165588996,1299.2,1.34851302153034866226874165588996
58,1346.55202199255614103662788155500614,1345.2,1.35202199255614103662788155500614
59,1393.35547079003991707640573039358707,1392.0,1.35547079003991707640573039358707
60,1440.95886144550397466838551609813336,1439.6,1.35886144550397466838551609813336
61,1489.36219588924093504615065767409186,1488.0,1.36219588924093504615065767409186
62,1538.56547595693346271751464879858329,1537.2,1.36547595693346271751464879858329
63,1588.56870339574134355525666540866436,1587.2,1.36870339574134355525666540866436
64,1639.37187986990655774087829610033951,1638.0,1.37187986990655774087829610033951
65,1690.97500696592144941120483334785867,1689.6,1.37500696592144941120483334785867
66,1743.37808619730024751868268965619379,1742.0,1.37808619730024751868268965619379
67,1796.58111900898993012499272381365917,1795.2,1.38111900898993012499272381365917
68,1850.58410678145266818688681138011623,1849.2,1.38410678145266818688681138011623
69,1905.38705083444877222253324414604359,1904.0,1.38705083444877222253324414604359
70,1960.98995243054613697849395680705637,1959.6,1.38995243054613697849395680705637
71,2017.39281277837958051384744072116464,2016.0,1.39281277837958051384744072116464
72,2074.59563303568117587569901113409554,2073.2,1.39563303568117587569901113409554
73,2132.59841431210062053404831874892782,2131.2,1.39841431210062053404831874892782
74,2191.40115767183286989555104221269401,2190.0,1.40115767183286989555104221269401
75,2251.00386413606863011474658376354417,2249.6,1.40386413606863011474658376354417
76,2311.40653468528185586469985371598664,2310.0,1.40653468528185586469985371598664
77,2372.60917026136709633073333566813218,2371.2,1.40917026136709633073333566813218
78,2434.61177176963836689289037636094676,2433.2,1.41177176963836689289037636094676
79,2497.41434008070017714292938963164559,2496.0,1.41434008070017714292938963164559
80,2561.01687603220040775616000302374044,2559.6,1.41687603220040775616000302374044
81,2625.41938043047387939712132496846759,2624.0,1.41938043047387939712132496846759
82,2690.62185405208469538771048571567146,2689.2,1.42185405208469538771048571567146
83,2756.62429764527475113275702384640700,2755.2,1.42429764527475113275702384640700
84,2823.42671193132517900649697693238462,2822.0,1.42671193132517900649697693238462
85,2891.02909760583693812741380254492627,2889.6,1.42909760583693812741380254492627
86,2959.43145533993624258370868621015330,2958.0,1.43145533993624258370868621015330
87,3028.63378578141006420106420878232966,3027.2,1.43378578141006420106420878232966
88,3098.63608955577652256682649351133925,3097.2,1.43608955577652256682649351133925
89,3169.43836726729459152277845341816267,3168.0,1.43836726729459152277845341816267
90,3241.04061949991720812216351199478006,3239.6,1.44061949991720812216351199478006
91,3313.44284681819154859478944178699518,3312.0,1.44284681819154859478944178699518
92,3386.64504976810994756672837637612676,3385.2,1.44504976810994756672837637612676
93,3460.64722887791467452631372362137945,3459.2,1.44722887791467452631372362137945
94,3535.44938465885953859963460233548162,3534.0,1.44938465885953859963460233548162
95,3611.05151760593107154495521231352667,3609.6,1.45151760593107154495521231352667
96,3687.45362819853183705362371822546619,3686.0,1.45362819853183705362371822546619
97,3764.65571690112823010319826210315152,3763.2,1.45571690112823010319826210315152
98,3842.65778416386495723449317106444845,3841.2,1.45778416386495723449317106444845
99,3921.45983042314823515234823007270717,3920.0,1.45983042314823515234823007270717
100,4001.06185610219959870979944371074056,3999.6,1.46185610219959870979944371074056
101,4081.46386161158208003147873161047362,4080.0,1.46386161158208003147873161047362
102,4162.66584734970039495766276231392618,4161.2,1.46584734970039495766276231392618
103,4244.66781370327666507710058931989633,4243.2,1.46781370327666507710058931989633
104,4327.46976104780309635237603330393434,4326.0,1.46976104780309635237603330393434
105,4411.07168974797294226814454314041190,4409.6,1.47168974797294226814454314041190
106,4495.47360015809098866870137971208322,4494.0,1.47360015809098866870137971208322
107,4580.67549262246471936974809049832283,4579.2,1.47549262246471936974809049832283
108,4666.67736747577724239005015862288870,4665.2,1.47736747577724239005015862288870
109,4753.47922504344298805554322000741106,4752.0,1.47922504344298805554322000741106
110,4841.08106564194712780871705894789863,4839.6,1.48106564194712780871705894789863
111,4929.48288957916959669533854529684134,4928.0,1.48288957916959669533854529684134
112,5018.68469715469455306736808083515857,5017.2,1.48469715469455306736808083515857
113,5108.68648866010605350558240613514010,5107.2,1.48648866010605350558240613514010
114,5199.48826437927067220812703719651626,5198.0,1.48826437927067220812703719651626
115,5291.09002458860775364319452894303842,5289.6,1.49002458860775364319452894303842
116,5383.49176955734793893287863574653258,5382.0,1.49176955734793893287863574653258
117,5476.69349954778057472275736592749763,5475.2,1.49349954778057472275736592749763
118,5570.69521481549057226119054170710542,5569.2,1.49521481549057226119054170710542
119,5665.49691560958525069914298515496573,5664.0,1.49691560958525069914298515496573
120,5761.09860217291167277969037332311995,5759.6,1.49860217291167277969037332311995
121,5857.50027474226494281970216378701550,5856.0,1.50027474226494281970216378701550
122,5954.70193354858791797367634813462412,5953.2,1.50193354858791797367634813462412
123,6052.70357881716275157740486032950459,6051.2,1.50357881716275157740486032950459
124,6151.50521076779466968998854454394450,6150.0,1.50521076779466968998854454394450
125,6251.10682961498835238714224160286266,6249.6,1.50682961498835238714224160286266
126,6351.50843556811727616213316912963773,6350.0,1.50843556811727616213316912963773
127,6452.71002883158635321353565822265537,6451.2,1.51002883158635321353565822265537
128,6554.71160960498818081255409273248489,6553.2,1.51160960498818081255409273248489
129,6657.51317808325320187020888467807341,6656.0,1.51317808325320187020888467807341
130,6761.11473445679405944361835519126793,6759.6,1.51473445679405944361835519126793
131,6865.51627891164441251734166747754894,6864.0,1.51627891164441251734166747754894
132,6970.71781162959246541941210754578952,6969.2,1.51781162959246541941210754578952
133,7076.71933278830945145100731310646219,7075.2,1.51933278830945145100731310646219
134,7183.52084256147330003368919867687894,7182.0,1.52084256147330003368919867687894
135,7291.12234111888769857077295625707993,7289.6,1.52234111888769857077295625707993
136,7399.52382862659675653285653562257455,7398.0,1.52382862659675653285653562257455
137,7508.72530524699546597065751945264198,7507.2,1.52530524699546597065751945264198
138,7618.72677113893613904739067058911341,7617.2,1.52677113893613904739067058911341
139,7729.52822645783100107814343372278994,7728.0,1.52822645783100107814343372278994
140,7841.12967135575110211891489414700959,7839.6,1.52967135575110211891489414700959
141,7953.53110598152170559169766072046769,7952.0,1.53110598152170559169766072046769
142,8066.73253048081430435999370535925109,8065.2,1.53253048081430435999370535925109
143,8180.73394499623540602028168968346366,8179.2,1.53394499623540602028168968346366
144,8295.53534966741222199669194788640604,8294.0,1.53534966741222199669194788640604
145,8411.13674463107539083978716650471304,8409.6,1.53674463107539083978716650471304
146,8527.53813002113885826308562676366448,8526.0,1.53813002113885826308562676366448
147,8644.73950596877702824951162167384424,8643.2,1.53950596877702824951162167384424
148,8762.74087260249930060351820855909778,8761.2,1.54087260249930060351820855909778
149,8881.54223004822209679821445757551205,8880.0,1.54223004822209679821445757551205
150,9001.14357842933847780845238200923334,8999.6,1.54357842933847780845238200923334
151,9121.54491786678544989601918624698876,9120.0,1.54491786678544989601918624698876
152,9242.74624847910904869983144550693638,9241.2,1.54624847910904869983144550693638
153,9364.74757038252729063650082951782064,9363.2,1.54757038252729063650082951782064
154,9487.54888369099107556819698514058431,9486.0,1.54888369099107556819698514058431
155,9611.15018851624311903358587138311012,9609.6,1.55018851624311903358587138311012
156,9735.55148496787499197017176291878827,9734.0,1.55148496787499197017176291878827
157,9860.75277315338233903887712781853150,9859.2,1.55277315338233903887712781853150
158,9986.75405317821834743557553129247105,9985.2,1.55405317821834743557553129247105
159,10113.5553251458455299314728622084437,10112.0,1.5553251458455299314728622084437
160,10241.1565891577858885515213593426029,10239.6,1.5565891577858885515213593426029
161,10369.5578453136695174612948449106749,10368.0,1.5578453136695174612948449106749
162,10498.7590937112817046005427478025781,10497.2,1.5590937112817046005427478025781
163,10628.7603344466085869967256075545932,10627.2,1.5603344466085869967256075545932
164,10759.5615676138814144781842354115014,10758.0,1.5615676138814144781842354115014
165,10891.1627933056194704733750021266503,10889.6,1.5627933056194704733750021266503
166,11023.5640116126717005012612355870619,11022.0,1.5640116126717005012612355870619
167,11156.7652226242570956781496722814895,11155.2,1.5652226242570956781496722814895
168,11290.7664264280038740264313098546790,11289.2,1.5664264280038740264313098546790
169,11425.5676231099875047476135435629181,11424.0,1.5676231099875047476135435629181
170,11561.1688127547676153069829643844632,11559.6,1.5688127547676153069829643844632
171,11697.5699954454238216326636385480799,11696.0,1.5699954454238216326636385480799
172,11834.7711712635905194083064348624046,11833.2,1.5711712635905194083064348624046
173,11972.7723402894906719787720858692074,11971.2,1.5723402894906719787720858692074
174,12111.5735026019686308340354184532462,12110.0,1.5735026019686308340354184532462
175,12251.1746582785220227828102695223491,12249.6,1.5746582785220227828102695223491
176,12391.5758073953327336539199270724065,12390.0,1.5758073953327336539199270724065
177,12532.7769500272970219229358412134898,12531.2,1.5769500272970219229358412134898
178,12674.7780862480547915610629541037782,12673.2,1.5780862480547915610629541037782
179,12817.5792161300180506995937577913919,12816.0,1.5792161300180506995937577913919
180,12961.1803397443985872108303968751708,12959.6,1.5803397443985872108303968751708
181,13105.5814571612348840149349388004603,13104.0,1.5814571612348840149349388004603
182,13250.7825684494183019756363778690904,13249.2,1.5825684494183019756363778690904
183,13396.7836736767185536086338977508599,13395.2,1.5836736767185536086338977508599
184,13543.5847729098084920260942074056702,13542.0,1.5847729098084920260942074056702
185,13691.1858662142882371149328546993366,13689.6,1.5858662142882371149328546993366
186,13839.5869536547086601150811952394197,13838.0,1.5869536547086601150811952394197
187,13988.7880352945942506042757020682102,13987.2,1.5880352945942506042757020682102
188,14138.7891111964653815405478501454848,14137.2,1.5891111964653815405478501454848
189,14289.5901814218599963176411568227202,14288.0,1.5901814218599963176411568227202
190,14441.1912460313547337182814926201422,14439.6,1.5912460313547337182814926201422
191,14593.5923050845855102319262681702087,14592.0,1.5923050845855102319262681702087
192,14746.7933586402675763739458599738184,14745.2,1.5933586402675763739458599738184
193,14900.7944067562150655761128709942753,14899.2,1.5944067562150655761128709942753
194,15055.5954494893600492669745137562159,15054.0,1.5954494893600492669745137562159
195,15211.1964868957711163646828312065558,15209.6,1.5964868957711163646828312065558
196,15367.5975190306714911774284061627542,15366.0,1.5975190306714911774284061627542
197,15524.7985459484567044037117098953847,15523.2,1.5985459484567044037117098953847
198,15682.7995677027118317257640005089951,15681.2,1.5995677027118317257640005089951
199,15841.6005843462283131764272286835705,15840.0,1.6005843462283131764272286835705
200,16001.2015959310203675820639037062872,15999.6,1.6015959310203675820639037062872
201,16161.6026025083410134370506807628288,16160.0,1.6026025083410134370506807628288
202,16322.8036041286977099827762458870857,16321.2,1.6036041286977099827762458870857
203,16484.8046008418676295611761815235326,16483.2,1.6046008418676295611761815235326
204,16647.6055926969125732926070562549640,16646.0,1.6055926969125732926070562549640
205,16811.2065797421935404988549698575963,16809.6,1.6065797421935404988549698575963
206,16975.6075620253849653672277151658276,16974.0,1.6075620253849653672277151658276
207,17140.8085395934886272264368310749846,17139.2,1.6085395934886272264368310749846
208,17306.8095124928472491799071377517613,17305.2,1.6095124928472491799071377517613
209,17473.6104807691577913890239153401789,17472.0,1.6104807691577913890239153401789
210,17641.2114444674844510784424582370590,17639.6,1.6114444674844510784424582370590
211,17809.6124036322713772273136030326717,17808.0,1.6124036322713772273136030326717
212,17978.8133583073551108083336637407271,17977.2,1.6133583073551108083336637407271
213,18148.8143085359767556189619551591710,18147.2,1.6143085359767556189619551591710
214,18319.6152543607938953803091799213691,18318.0,1.6152543607938953803091799213691
215,18491.2161958238922570450634932428249,18489.6,1.6161958238922570450634932428249
216,18663.6171329667971350413879364993324,18662.0,1.6171329667971350413879364993324
217,18836.8180658304845812237949005560674,18835.2,1.6180658304845812237949005560674
218,19010.8189944553923703571919767583318,19009.2,1.6189944553923703571919767583318
219,19185.6199188814307453050423273473328,19184.0,1.6199188814307453050423273473328
220,19361.2208391479929553745719203714281,19359.6,1.6208391479929553745719203714281
221,19537.6217552939655867157840559441875,19536.0,1.6217552939655867157840559441875
222,19714.8226673577387030186655531231225,19713.2,1.6226673577387030186655531231225
223,19892.8235753772157911722172224763574,19891.2,1.6235753772157911722172224763574
224,20071.6244793898235281065075628304081,20070.0,1.6244793898235281065075628304081
225,20251.2253794325213725989565247187854,20249.6,1.6253794325213725989565247187854
226,20431.6262755418109868740161696554227,20430.0,1.6262755418109868740161696554227
227,20612.8271677537454980010480216835373,20611.2,1.6271677537454980010480216835373
228,20794.8280561039386023376596623581555,20793.2,1.6280561039386023376596623581555
229,20977.6289406275735216875614534136902,20976.0,1.6289406275735216875614534136902
230,21161.2298213594118174609457111638896,21159.6,1.6298213594118174609457111638896
231,21345.6306983338020663187298634894262,21344.0,1.6306983338020663187298634894262
232,21530.8315715846884094977472372696515,21529.2,1.6315715846884094977472372696515
233,21716.8324411456189726928248580196510,21715.2,1.6324411456189726928248580196510
234,21903.6333070497541746412338902914807,21902.0,1.6333070497541746412338902914807
235,22091.2341693298749196961346591073648,22089.6,1.6341693298749196961346591073648
236,22279.6350280183906863270894587987220,22278.0,1.6350280183906863270894587987220
237,22468.8358831473475175391549522648326,22467.2,1.6358831473475175391549522648326
238,22658.8367347484359174538236517342798,22657.2,1.6367347484359174538236517342798
