Eigenstate,Energy,Kinetic Energy,Potential Energy
1,0.500000000060399169037159658063608797,0.0,0.500000000060399169037159658063608797
2,1.84623093804536927676924190048589725,1.2,0.64623093804536927676924190048589725
3,3.93633761086306835129196440622082812,3.2,0.73633761086306835129196440622082812
4,6.79966528022641804937156418547522986,6.0,0.79966528022641804937156418547522986
5,10.4480465794640835874644490164892968,9.6,0.8480465794640835874644490164892968
6,14.8870660033359743981072051195789345,14.0,0.8870660033359743981072051195789345
7,20.1197208332827257837693750629208973,19.2,0.9197208332827257837693750629208973
8,26.1477838556825947003706970643429079,25.2,0.9477838556825947003706970643429079
9,32.9723835695426356282185215564759037,32.0,0.9723835695426356282185215564759037
10,40.5942802290119236586214979126687812,39.6,0.9942802290119236586214979126687812
11,49.0140094042318531993550779171292016,48.0,1.0140094042318531993550779171292016
12,58.2319621905073254526546399555362710,57.2,1.0319621905073254526546399555362710
13,68.2484327179043706173045647108758125,67.2,1.0484327179043706173045647108758125
14,79.0636476841063269149510393038870019,78.0,1.0636476841063269149510393038870019
15,90.6777854702280360317529306615342843,89.6,1.0777854702280360317529306615342843
16,103.090988945686294882495115236135343,102.0,1.090988945686294882495115236135343
17,116.303374301661364403762123539712640,115.2,1.103374301661364403762123539712640
18,130.315037302103172094662346088633587,129.2,1.115037302103172094662346088633587
19,145.126057806835291822877848982280740,144.0,1.126057806835291822877848982280740
20,160.736503109188881857429643834065205,159.6,1.136503109188881857429643834065205
21,177.146430442084383223144456784843609,176.0,1.146430442084383223144456784843609
22,194.355888889190260717623404395016561,193.2,1.155888889190260717623404395016561
23,212.364920862859528240396310251835724,211.2,1.164920862859528240396310251835724
24,231.173563261530171473387521627335017,230.0,1.173563261530171473387521627335017
25,250.781848386521074681384440554006915,249.6,1.181848386521074681384440554006915
26,271.189804675839608787646209425918187,270.0,1.189804675839608787646209425918187
27,292.397457297144207471095552702530495,291.2,1.197457297144207471095552702530495
28,314.404828631103407217285091563065835,313.2,1.204828631103407217285091563065835
29,337.211938668597799430264837752264596,336.0,1.211938668597799430264837752264596
30,360.818805339561855140671869164753644,359.6,1.218805339561855140671869164753644
31,385.225444787116644343494901634556358,384.0,1.225444787116644343494901634556358
32,410.431871597566572412951579330196066,409.2,1.231871597566572412951579330196066
33,436.438098994523608236850329794577941,435.2,1.238098994523608236850329794577941
34,463.244139003671932445970798835805411,462.0,1.244139003671932445970798835805411
35,490.850002593346739047800361522694601,489.6,1.250002593346739047800361522694601
36,519.255699795067444895051311915234229,518.0,1.255699795067444895051311915234229
37,548.461239807361476870599218099566104,547.2,1.261239807361476870599218099566104
38,578.466631085584387927142457076283419,577.2,1.266631085584387927142457076283419
39,609.271881419944204470214849899455144,608.0,1.271881419944204470214849899455144
40,640.876998003542086789523804916228010,639.6,1.276998003542086789523804916228010
41,673.281987491924633969777454120505315,672.0,1.281987491924633969777454120505315
42,706.486856055388172110591032530888150,705.2,1.286856055388172110591032530888150
43,740.491609425068878340093596383450751,739.2,1.291609425068878340093596383450751
44,775.296252933684499091310736872157515,774.0,1.296252933684499091310736872157515
45,810.900791551655851541369708531977627,809.6,1.300791551655851541369708531977627
46,847.305229919223160830954531898073813,846.0,1.305229919223160830954531898073813
47,884.509572375078809069087004369391061,883.2,1.309572375078809069087004369391061
48,922.513822981960485764045565084344693,921.2,1.313822981960485764045565084344693
49,961.317985549584066777324526769725580,960.0,1.317985549584066777324526769725580
50,1000.92206365524142618387254078072000,999.6,1.32206365524142618387254078072000
51,1041.32606066234291845936826416972393,1040.0,1.32606066234291845936826416972393
52,1082.52997973714592320098471201669829,1081.2,1.32997973714592320098471201669829
53,1124.53382386387839446954199767710390,1123.2,1.33382386387839446954199767710390
54,1167.33759585843879570948728383906447,1166.0,1.33759585843879570948728383906447
55,1210.94129838083032571062485190275619,1209.6,1.34129838083032571062485190275619
56,1255.34493394646726650539068987728877,1254.0,1.34493394646726650539068987728877
57,1300.54850493647408513034408990602779,1299.2,1.34850493647408513034408990602779
58,1346.55201360708312399425564609817540,1345.2,1.35201360708312399425564609817540
59,1393.35546209822396064789351135593765,1392.0,1.35546209822396064789351135593765
60,1440.95885244138649324290613896148273,1439.6,1.35885244138649324290613896148273
61,1489.36218656683024373969347093769060,1488.0,1.36218656683024373969347093769060
62,1538.56546631020406991904397060903472,1537.2,1.36546631020406991904397060903472
63,1588.56869341863323536329314213396813,1587.2,1.36869341863323536329314213396813
64,1639.37186955632447409283616805765454,1638.0,1.37186955632447409283616805765454
65,1690.97499630973415170385380911771792,1689.6,1.37499630973415170385380911771792
66,1743.37807519233977751405577266529532,1742.0,1.37807519233977751405577266529532
67,1796.58110764905085993191938105684450,1795.2,1.38110764905085993191938105684450
68,1850.58409506029134110409230124482988,1849.2,1.38409506029134110409230124482988
69,1905.38703874578253422490096651462691,1904.0,1.38703874578253422490096651462691
70,1960.98993996805255862364146195948545,1959.6,1.38993996805255862364146195948545
71,2017.39279993569566904159878565800635,2016.0,1.39279993569566904159878565800635
72,2074.59561980640257726835956827398456,2073.2,1.39561980640257726835956827398456
73,2132.59840068978081130058011248981283,2131.2,1.39840068978081130058011248981283
74,2191.40114364998233833781818752390995,2190.0,1.40114364998233833781818752390995
75,2251.00384970815404682893402845331834,2249.6,1.40384970815404682893402845331834
76,2311.40651984472523322581029011180726,2310.0,1.40651984472523322581029011180726
77,2372.60915500154493670272263023752326,2371.2,1.40915500154493670272263023752326
78,2434.61175608388079930151212033190637,2433.2,1.41175608388079930151212033190637
79,2497.41432396229008214271828683362990,2496.0,1.41432396229008214271828683362990
80,2561.01685947437253021718689584056146,2559.6,1.41685947437253021718689584056146
81,2625.41936342641392893119014666454987,2624.0,1.41936342641392893119014666454987
82,2690.62183659492843412754298404953846,2689.2,1.42183659492843412754298404953846
83,2756.62427972810706857140966422949132,2755.2,1.42427972810706857140966422949132
84,2823.42669354717915359777843859581370,2822.0,1.42669354717915359777843859581370
85,2891.02907874769288534140847443560930,2889.6,1.42907874769288534140847443560930
86,2959.43143600072074910466364277099402,2958.0,1.43143600072074910466364277099402
87,3028.63376595399500794784810432787938,3027.2,1.43376595399500794784810432787938
88,3098.63606923297807820892259385070080,3097.2,1.43606923297807820892259385070080
89,3169.43834644187222115731894670620593,3168.0,1.43834644187222115731894670620593
90,3241.04059816457263676984101961037923,3239.6,1.44059816457263676984101961037923
91,3313.44282496556772416458953443274274,3312.0,1.44282496556772416458953443274274
92,3386.64502739078998493130905640576678,3385.2,1.44502739078998493130905640576678
93,3460.64720596842078334149983692716521,3459.2,1.44720596842078334149983692716521
94,3535.44936120965193449289905722945673,3534.0,1.44936120965193449289905722945673
95,3611.05149360940687028890703150165651,3609.6,1.45149360940687028890703150165651
96,3687.45360364702393133141737873418586,3686.0,1.45360364702393133141737873418586
97,3764.65569178690414846340089473523062,3763.2,1.45569178690414846340089473523062
98,3842.65775847912570482329766497457618,3841.2,1.45775847912570482329766497457618
99,3921.45980416002711580108339454878333,3920.0,1.45980416002711580108339454878333
100,4001.06182925276101794545939608643159,3999.6,1.46182925276101794545939608643159
101,4081.46383416782032856746162864565108,4080.0,1.46383416782032856746162864565108
102,4162.66581930353841221106277644258151,4161.2,1.46581930353841221106277644258151
103,4244.66778504656478224772865562550956,4243.2,1.46778504656478224772865562550956
104,4327.46973177231775858718018834882820,4326.0,1.46973177231775858718018834882820
105,4411.07165984541540942285451470678007,4409.6,1.47165984541540942285451470678007
106,4495.47356962008601416631603199307503,4494.0,1.47356962008601416631603199307503
107,4580.67546144055920664291208279655159,4579.2,1.47546144055920664291208279655159
108,4666.67733564143887838141419273240977,4665.2,1.47733564143887838141419273240977
109,4753.47919254805885323685123953812620,4752.0,1.47919254805885323685123953812620
110,4841.08103247682228216561619402471726,4839.6,1.48103247682228216561619402471726
111,4929.48285573552564111072938791529345,4928.0,1.48285573552564111072938791529345
112,5018.68466262366816552150809988408260,5017.2,1.48466262366816552150809988408260
113,5108.68645343274749949609793898082226,5107.2,1.48645343274749949609793898082226
114,5199.48822844654228877756547200018910,5198.0,1.48822844654228877756547200018910
115,5291.08998794138240638574880653480947,5289.6,1.48998794138240638574880653480947
116,5383.49173218640745133541487302651258,5382.0,1.49173218640745133541487302651258
117,5476.69346144381412917826539285898789,5475.2,1.49346144381412917826539285898789
118,5570.69517596909308207522778081787129,5569.2,1.49517596909308207522778081787129
119,5665.49687601125570239175139674095540,5664.0,1.49687601125570239175139674095540
120,5761.09856181305143796659442976887257,5759.6,1.49856181305143796659442976887257
121,5857.50023361117605893734242291656603,5856.0,1.50023361117605893734242291656603
122,5954.70189163647133709276691710933108,5953.2,1.50189163647133709276691710933108
123,6052.70353611411655652920073051858802,6051.2,1.50353611411655652920073051858802
124,6151.50516726381225670829769350006257,6150.0,1.50516726381225670829769350006257
125,6251.10678529995657944728173912474976,6249.6,1.50678529995657944728173912474976
126,6351.50839043181457617549279402722850,6350.0,1.50839043181457617549279402722850
127,6452.70998286368081121315029076557321,6451.2,1.50998286368081121315029076557321
128,6554.71156279503557424106586741070215,6553.2,1.51156279503557424106586741070215
129,6657.51313042069500305679816058626221,6656.0,1.51313042069500305679816058626221
130,6761.11468593095539933087589272953392,6759.6,1.51468593095539933087589272953392
131,6865.51622951173200467259701475586807,6864.0,1.51622951173200467259701475586807
132,6970.71776134469248933771179349674461,6969.2,1.51776134469248933771179349674461
133,7076.71928160738539412871241105934689,7075.2,1.51928160738539412871241105934689
134,7183.52079047336375476249450443751292,7182.0,1.52079047336375476249450443751292
135,7291.12228811230411987181251224185450,7289.6,1.52228811230411987181251224185450
136,7399.52377469012117011942079181199337,7398.0,1.52377469012117011942079181199337
137,7508.72525036907813259584912541274508,7507.2,1.52525036907813259584912541274508
138,7618.72671530789317105977045932281711,7617.2,1.52671530789317105977045932281711
139,7729.52816966184193047401344669434150,7728.0,1.52816966184193047401344669434150
140,7841.12961358285639884430386649074784,7839.6,1.52961358285639884430386649074784
141,7953.53104721962024481032940813620786,7952.0,1.53104721962024481032940813620786
142,8066.73247071766078136545527662304661,8065.2,1.53247071766078136545527662304661
143,8180.73388421943769743124867978281264,8179.2,1.53388421943769743124867978281264
144,8295.53528786442869183333369276890340,8294.0,1.53528786442869183333369276890340
145,8411.13668178921214003733864011960858,8409.6,1.53668178921214003733864011960858
146,8527.53806612754691613494761475358026,8526.0,1.53806612754691613494761475358026
147,8644.73944101044948436710172416604921,8643.2,1.53944101044948436710172416604921
148,8762.74080656626837551336224965752328,8761.2,1.54080656626837551336224965752328
149,8881.54216292075614994837418780623366,8880.0,1.54216292075614994837418780623366
150,9001.14351019713895100629076287318986,8999.6,1.54351019713895100629076287318986
151,9121.54484851618374456739704929623916,9120.0,1.54484851618374456739704929623916
152,9242.74617799626333516608484312927173,9241.2,1.54617799626333516608484312927173
153,9364.74749875341924756985559139274438,9363.2,1.54749875341924756985559139274438
154,9487.54881090142255772857542774173848,9486.0,1.54881090142255772857542774173848
155,9611.15011455183275132995734033751333,9609.6,1.55011455183275132995734033751333
156,9735.55140981405468782761537715211321,9734.0,1.55140981405468782761537715211321
157,9860.75269679539374098827523351976679,9859.2,1.55269679539374098827523351976679
158,9986.75397560110918777622434794763759,9985.2,1.55397560110918777622434794763759
159,10113.5552463344659092478156967065532,10112.0,1.5552463344659092478156967065532
160,10241.1565090967844697935446686171295,10239.6,1.5565090967844697935446686171295
161,10369.5577639874896332237991019857911,10368.0,1.5577639874896332237991019857911
162,10498.7590111041573751593637341187431,10497.2,1.5590111041573751593637341187431
163,10628.7602505425604465799576564495920,10627.2,1.5602505425604465799576564495920
164,10759.5614823967125431673799574012389,10758.0,1.5614823967125431673799574012389
165,10891.1627067589111290434609982640372,10889.6,1.5627067589111290434609982640372
166,11023.5639237197789654183878378949293,11022.0,1.5639237197789654183878378949293
167,11156.7651333683043913817036494927445,11155.2,1.5651333683043913817036494927445
168,11290.7663357918803995248750314088691,11289.2,1.5663357918803995248750314088691
169,11425.5675310763425514574977691363644,11424.0,1.5675310763425514574977691363644
170,11561.1687193060057729602378256551269,11559.6,1.5687193060057729602378256551269
171,11697.5699005637000689689485574529202,11696.0,1.5699005637000689689485574529202
172,11834.7710749308051962566031379524831,11833.2,1.5710749308051962566031379524831
173,11972.7722424872843292153536112696901,11971.2,1.5722424872843292153536112696901
174,12111.5734033117167545822118599807761,12110.0,1.5734033117167545822118599807761
175,12251.1745574813296290932664076283424,12249.6,1.5745574813296290932664076283424
176,12391.5757050720288297727693603765106,12390.0,1.5757050720288297727693603765106
177,12532.7768461584289301176122168499418,12531.2,1.5768461584289301176122168499418
178,12674.7779808138823313315682842960736,12673.2,1.5779808138823313315682842960736
179,12817.5791091105075750542292935040721,12816.0,1.5791091105075750542292935040721
180,12961.1802311192168685310168443764605,12959.6,1.5802311192168685310168443764605
181,13105.5813469097428448728367801165556,13104.0,1.5813469097428448728367801165556
182,13250.7824565506645861007437263034891,13249.2,1.5824565506645861007437263034891
183,13396.7835601094329320248722260456640,13395.2,1.5835601094329320248722260456640
184,13543.5846576523950991991523951467381,13542.0,1.5846576523950991991523951467381
185,13691.1857492448186317599162378563061,13689.6,1.5857492448186317599162378563061
186,13839.5868349509147051169957437980564,13838.0,1.5868349509147051169957437980564
187,13988.7879148338608062977932896281196,13987.2,1.5879148338608062977932896281196
188,14138.7889889558228063806209006657075,14137.2,1.5889889558228063806209006657075
189,14289.5900573779764487483788990013002,14288.0,1.5900573779764487483788990013002
190,14441.1911201605282688136310913342428,14439.6,1.5911201605282688136310913342428
191,14593.5921773627359644376078529157225,14592.0,1.5921773627359644376078529157225
192,14746.7932290429282334253190843992071,14745.2,1.5932290429282334253190843992071
193,14900.7942752585240964006033267617641,14899.2,1.5942752585240964006033267617641
194,15055.5953160660517184018739932039238,15054.0,1.5953160660517184018739932039238
195,15211.1963515211667471308989842752573,15209.6,1.5963515211667471308989842752573
196,15367.5973816786701815464909723867655,15366.0,1.5973816786701815464909723867655
197,15524.7984065925257851784064836815939,15523.2,1.5984065925257851784064836815939
198,15682.7994263158770583234096465011511,15681.2,1.5994263158770583234096465011511
199,15841.6004409010637819573316487462936,15840.0,1.6004409010637819573316487462936
200,16001.2014503996381473033017488933868,15999.6,1.6014503996381473033017488933868
201,16161.6024548623804820325445759675516,16160.0,1.6024548623804820325445759675516
202,16322.8034543393145864738707419873339,16321.2,1.6034543393145864738707419873339
203,16484.8044488797226904865585763909810,16483.2,1.6044488797226904865585763909810
204,16647.6054385321600426115050538636811,16646.0,1.6054385321600426115050538636811
205,16811.2064233444691414659737170498640,16809.6,1.6064233444691414659737170498640
206,16975.6074033637936224006539056143279,16974.0,1.6074033637936224006539056143279
207,17140.8083786365918052896731664982264,17139.2,1.6083786365918052896731664982264
208,17306.8093492086499176749844856657963,17305.2,1.6093492086499176749844856657963
209,17473.6103151250949990079736432064217,17472.0,1.6103151250949990079736432064217
210,17641.2112764304074974839027275375439,17639.6,1.6112764304074974839027275375439
211,17809.6122331684335668281644003051567,17808.0,1.6122331684335668281644003051567
212,17978.8131853823970732614868550346509,17977.2,1.6131853823970732614868550346509
213,18148.8141331149113170219957637559889,18147.2,1.6141331149113170219957637559889
214,18319.6150764079904834198349227343959,18318.0,1.6150764079904834198349227343959
215,18491.2160153030608226305895477837101,18489.6,1.6160153030608226305895477837101
216,18663.6169498409715721819812009119511,18662.0,1.6169498409715721819812009119511
217,18836.8178800620056260928894548293533,18835.2,1.6178800620056260928894548293533
218,19010.8188060058899596371621212542775,19009.2,1.6188060058899596371621212542775
219,19185.6197277118058130051636781928263,19184.0,1.6197277118058130051636781928263
220,19361.2206452183986463712013794277007,19359.6,1.6206452183986463712013794277007
221,19537.6215585637878642691326217652374,19536.0,1.6215585637878642691326217652374
222,19714.8224677855763264735322449719308,19713.2,1.6224677855763264735322449719308
223,19892.8233729208596389472638860027194,19891.2,1.6233729208596389472638860027194
224,20071.6242740062352399147676185791285,20070.0,1.6242740062352399147676185791285
225,20251.2251710778112836176197488404097,20249.6,1.6251710778112836176197488404097
226,20431.6260641712153252903200591422087,20430.0,1.6260641712153252903200591422087
227,20612.8269533216028159991662695775355,20611.2,1.6269533216028159991662695775355
228,20794.8278385636654091544305858603829,20793.2,1.6278385636654091544305858603829
229,20977.6287199316390858479953543387741,20976.0,1.6287199316390858479953543387741
230,21161.2295974593121037026998289651300,21159.6,1.6295974593121037026998289651300
231,21345.6304711800327710226752609386792,21344.0,1.6304711800327710226752609386792
232,21530.8313411267170566535969095757816,21529.2,1.6313411267170566535969095757816
233,21716.8322073318560305383648739614883,21715.2,1.6322073318560305383648739614883
234,21903.6330698275231511142875670405742,21902.0,1.6330698275231511142875670405742
235,22091.2339286453813927228757961046759,22089.6,1.6339286453813927228757961046759
236,22279.6347838166902227310238581760076,22278.0,1.6347838166902227310238581760076
237,22468.8356353723124319837129800069221,22467.2,1.6356353723124319837129800069221
238,22658.8364833427208203192566368805240,22657.2,1.6364833427208203192566368805240
