Eigenstate,Energy,Kinetic Energy,Potential Energy
1,0.500000000036145419171042014336860526,0.0,0.500000000036145419171042014336860526
2,1.84623093788705303831075894991634856,1.2,0.64623093788705303831075894991634856
3,3.93633761039802535619399353112452387,3.2,0.73633761039802535619399353112452387
4,6.79966527925778139982517497039428443,6.0,0.79966527925778139982517497039428443
5,10.4480465777861952333812866991599287,9.6,0.8480465777861952333812866991599287
6,14.8870660007395697663919655242334117,14.0,0.8870660007395697663919655242334117
7,20.1197208295568432097795855883597100,19.2,0.9197208295568432097795855883597100
8,26.1477838506153709429663271182481968,25.2,0.9477838506153709429663271182481968
9,32.9723835629216750529475477278616210,32.0,0.9723835629216750529475477278616210
10,40.5942802206244849398834674597949924,39.6,0.9942802206244849398834674597949924
11,49.0140093938649501179918694213505752,48.0,1.0140093938649501179918694213505752
12,58.2319621779477839170453264160425993,57.2,1.0319621779477839170453264160425993
13,68.2484327029388618515417055668869896,67.2,1.0484327029388618515417055668869896
14,79.0636476665213869302966716918032303,78.0,1.0636476665213869302966716918032303
15,90.6777854498100768222054907171492509,89.6,1.0777854498100768222054907171492509
16,103.090988922221610420982054907640985,102.0,1.090988922221610420982054907640985
17,116.303374274936133255318891264394178,115.2,1.103374274936133255318891264394178
18,130.315037271903457759973421203729694,129.2,1.115037271903457759973421203729694
19,145.126057772947041517443842023535428,144.0,1.126057772947041517443842023535428
20,160.736503071397924186237746345864170,159.6,1.136503071397924186237746345864170
21,177.146430400176425058515070448951860,176.0,1.146430400176425058515070448951860
22,194.355888842950883490845061451311738,193.2,1.155888842950883490845061451311738
23,212.364920812074183794307775000736604,211.2,1.164920812074183794307775000736604
24,231.173563205984177580644097349473565,230.0,1.173563205984177580644097349473565
25,250.781848325999610304203289954789998,249.6,1.181848325999610304203289954789998
26,271.189804610127709134712449237651398,270.0,1.189804610127709134712449237651398
27,292.397457226026758893096352585081046,291.2,1.197457226026758893096352585081046
28,314.404828554365141972337132057410340,313.2,1.204828554365141972337132057410340
29,337.211938586023290343074019453880524,336.0,1.211938586023290343074019453880524
30,360.818805250935510173787000724708030,359.6,1.218805250935510173787000724708030
31,385.225444692222701094928416662876079,384.0,1.225444692222701094928416662876079
32,410.431871496189092551353819547575446,409.2,1.231871496189092551353819547575446
33,436.438098886446471883069456307615322,435.2,1.238098886446471883069456307615322
34,463.244138888678832508016881126188690,462.0,1.244138888678832508016881126188690
35,490.850002471221175514822533601204401,489.6,1.250002471221175514822533601204401
36,519.255699665592719094831857632100113,518.0,1.255699665592719094831857632100113
37,548.461239670320685694195182741501846,547.2,1.261239670320685694195182741501846
38,578.466630940760418023610158902455382,577.2,1.266630940760418023610158902455382
39,609.271881267119726413795179760358526,608.0,1.271881267119726413795179760358526
40,640.876997842499549221216161656860894,639.6,1.276997842499549221216161656860894
41,673.281987322446257714864601547143883,672.0,1.281987322446257714864601547143883
42,706.486855877255944273378356494425440,705.2,1.286855877255944273378356494425440
43,740.491609238064546376880594641114305,739.2,1.291609238064546376880594641114305
44,775.296252737589564862409607999456795,774.0,1.296252737589564862409607999456795
45,810.900791346251565342817205446944710,809.6,1.300791346251565342817205446944710
46,847.305229704290515406422358029745054,846.0,1.305229704290515406422358029745054
47,884.509572150398533602377862366589430,883.2,1.309572150398533602377862366589430
48,922.513822747313039852462261893396272,921.2,1.313822747313039852462261893396272
49,961.317985304749634386115143504754646,960.0,1.317985304749634386115143504754646
50,1000.92206339999990958188288378239239,999.6,1.32206339999990958188288378239239
51,1041.32606039647393213597141052836115,1040.0,1.32606039647393213597141052836115
52,1082.52997946042878776430483466357165,1081.2,1.32997946042878776430483466357165
53,1124.53382357609213052594430719277175,1123.2,1.33382357609213052594430719277175
54,1167.33759555936211772426664322944392,1166.0,1.33759555936211772426664322944392
55,1210.94129807024163584979152430596151,1209.6,1.34129807024163584979152430596151
56,1255.34493362414464845842193111349072,1254.0,1.34493362414464845842193111349072
57,1300.54850460219529791374427342326995,1299.2,1.34850460219529791374427342326995
58,1346.55201326062559573574459213637896,1345.2,1.35201326062559573574459213637896
59,1393.35546173936478235102256749963395,1392.0,1.35546173936478235102256749963395
60,1440.95885206990241253188352407773947,1439.6,1.35885206990241253188352407773947
61,1489.36218618249765858418444153409630,1488.0,1.36218618249765858418444153409630
62,1538.56546591279902233869703367368060,1537.2,1.36546591279902233869703367368060
63,1588.56869300793140511173069936619635,1587.2,1.36869300793140511173069936619635
64,1639.37186913210117232083641488642547,1638.0,1.37186913210117232083641488642547
65,1690.97499587176431460144012849230365,1689.6,1.37499587176431460144012849230365
66,1743.37807474039795993120033711886937,1742.0,1.37807474039795993120033711886937
67,1796.58110718291122897755891890988720,1795.2,1.38110718291122897755891890988720
68,1850.58409457972766972314593739459800,1849.2,1.38409457972766972314593739459800
69,1905.38703825056819475297251261310621,1904.0,1.38703825056819475297251261310621
70,1960.98993945796051631908184568466307,1959.6,1.38993945796051631908184568466307
71,2017.39279941049847559459763269040260,2016.0,1.39279941049847559459763269040260
72,2074.59561926587236428672913719342894,2073.2,1.39561926587236428672913719342894
73,2132.59840013368928377188897095648191,2131.2,1.39840013368928377188897095648191
74,2191.40114307810076806752674858979982,2190.0,1.40114307810076806752674858979982
75,2251.00384912025326585417891967386661,2249.6,1.40384912025326585417891967386661
76,2311.40651924057562720447975067410874,2310.0,1.40651924057562720447975067410874
77,2372.60915438091643827746043380831611,2371.2,1.40915438091643827746043380831611
78,2434.61175544654288143828305842627185,2433.2,1.41175544654288143828305842627185
79,2497.41432330801175144356393378517992,2496.0,1.41432330801175144356393378517992
80,2561.01685880292232020679627926656988,2559.6,1.41685880292232020679627926656988
81,2625.41936273755989331690574673138004,2624.0,1.41936273755989331690574673138004
82,2690.62183588843814003241864627962698,2689.2,1.42183588843814003241864627962698
83,2756.62427900374758973993306439361877,2755.2,1.42427900374758973993306439361877
84,2823.42669280471706357386695746469696,2822.0,1.42669280471706357386695746469696
85,2891.02907798689425061828358577137304,2889.6,1.42907798689425061828358577137304
86,2959.43143522135112224620524596243562,2958.0,1.43143522135112224620524596243562
87,3028.63376515581942068102650338155615,3027.2,1.43376515581942068102650338155615
88,3098.63606841576103448690227760928525,3097.2,1.43606841576103448690227760928525
89,3169.43834560537769019282469008212513,3168.0,1.43834560537769019282469008212513
90,3241.04059730856404603837324681757477,3239.6,1.44059730856404603837324681757477
91,3313.44282408980795237707228189237393,3312.0,1.44282408980795237707228189237393
92,3386.64502649504135497575035912238604,3385.2,1.44502649504135497575035912238604
93,3460.64720505244505519324075642310367,3459.2,1.44720505244505519324075642310367
94,3535.44936027321029809302399505563876,3534.0,1.44936027321029809302399505563876
95,3611.05149265225993839038439708684068,3609.6,1.45149265225993839038439708684068
96,3687.45360266893173231253614365090667,3686.0,1.45360266893173231253614365090667
97,3764.65569078762611910806482158424277,3763.2,1.45569078762611910806482158424277
98,3842.65775745842068306773554220662054,3841.2,1.45775745842068306773554220662054
99,3921.45980311765333344652981525318841,3920.0,1.45980311765333344652981525318841
100,4001.06182818847609333635704519487742,3999.6,1.46182818847609333635704519487742
101,4081.46383308138125923473224228087246,4080.0,1.46383308138125923473224228087246
102,4162.66581819470156747999032186772901,4161.2,1.46581819470156747999032186772901
103,4244.66778391508589580999450301310459,4243.2,1.46778391508589580999450301310459
104,4327.46973061795192103658603331032913,4326.0,1.46973061795192103658603331032913
105,4411.07165866791706075426534670575791,4409.6,1.47165866791706075426534670575791
106,4495.47356841920893623735121922416178,4494.0,1.47356841920893623735121922416178
107,4580.67546021605651559790904527330467,4579.2,1.47546021605651559790904527330467
108,4666.67733439306301703718487671665970,4665.2,1.47733439306301703718487671665970
109,4753.47919127556158342974787723288220,4752.0,1.47919127556158342974787723288220
110,4841.08103117995467705941860383414055,4839.6,1.48103117995467705941860383414055
111,4929.48285441403807746486214617741375,4928.0,1.48285441403807746486214617741375
112,5018.68466127731031591909163460020537,5017.2,1.48466127731031591909163460020537
113,5108.68645206126832453133351932446701,5107.2,1.48645206126832453133351932446701
114,5199.48822704969002920194977130215313,5198.0,1.48822704969002920194977130215313
115,5291.08998651890457521260952448068352,5289.6,1.48998651890457521260952448068352
116,5383.49173073805082590225449166537169,5382.0,1.49173073805082590225449166537169
117,5476.69345996932474316639569062158936,5475.2,1.49345996932474316639569062158936
118,5570.69517446821621748617355863238840,5569.2,1.49517446821621748617355863238840
119,5665.49687448373588147989708238664892,5664.0,1.49687448373588147989708238664892
120,5761.09856025863241512754274994943415,5759.6,1.49856025863241512754274994943415
121,5857.50023202960081255144982317935073,5856.0,1.50023202960081255144982317935073
122,5954.70189002748206132331567664169891,5953.2,1.50189002748206132331567664169891
123,6052.70353447745465307466296456469757,6051.2,1.50353447745465307466296456469757
124,6151.50516559921832650814170730178802,6150.0,1.50516559921832650814170730178802
125,6251.10678360717041434076629931385110,6249.6,1.50678360717041434076629931385110
126,6351.50838871057515051288994239260695,6350.0,1.50838871057515051288994239260695
127,6452.70998111372627341883250082959877,6451.2,1.50998111372627341883250082959877
128,6554.71156101610323832788804627910860,6553.2,1.51156101610323832788804627910860
129,6657.51312861252134009120015765010139,6656.0,1.51312861252134009120015765010139
130,6761.11468409327602884812577409850687,6759.6,1.51468409327602884812577409850687
131,6865.51622764428168604159039453293388,6864.0,1.51622764428168604159039453293388
132,6970.71775944720511307473677375580454,6969.2,1.51775944720511307473677375580454
133,7076.71927967959397315958482146256842,7075.2,1.51927967959397315958482146256842
134,7183.52078851500041563246222199395906,7182.0,1.52078851500041563246222199395906
135,7291.12228612310009390262241149121526,7289.6,1.52228612310009390262241149121526
136,7399.52377266980678451293613012080311,7398.0,1.52377266980678451293613012080311
137,7508.72524831738280148359957282740810,7507.2,1.52524831738280148359957282740810
138,7618.72671322454538649781120859368917,7617.2,1.52671322454538649781120859368917
139,7729.52816754656925338246395408362959,7728.0,1.52816754656925338246395408362959
140,7841.12961143538544989093099374899201,7839.6,1.52961143538544989093099374899201
141,7953.53104503967669523753366194801683,7952.0,1.53104503967669523753366194801683
142,8066.73246850496934376001280791323410,8065.2,1.53246850496934376001280791323410
143,8180.73388197372211643615560458708457,8179.2,1.53388197372211643615560458708457
144,8295.53528558541173480109302313933043,8294.0,1.53528558541173480109302313933043
145,8411.13667947661558762402383891213237,8409.6,1.53667947661558762402383891213237
146,8527.53806378109155283437038788470174,8526.0,1.53806378109155283437038788470174
147,8644.73943862985508898440518196308640,8643.2,1.53943862985508898440518196308640
148,8762.74080415125371157735408037590023,8761.2,1.54080415125371157735408037590023
149,8881.54216047103895606190766671542638,8880.0,1.54216047103895606190766671542638
150,9001.14350771243593113399505723580137,8999.6,1.54350771243593113399505723580137
151,9121.54484599621055826005087881303170,9120.0,1.54484599621055826005087881303170
152,9242.74617544073458772092118355199807,9241.2,1.54617544073458772092118355199807
153,9364.74749616204848012607778698455799,9363.2,1.54749616204848012607778698455799
154,9487.54880827392223729735818024753038,9486.0,1.54880827392223729735818024753038
155,9611.15011188791426075819868892410768,9609.6,1.55011188791426075819868892410768
156,9735.55140711342831569469841178054198,9734.0,1.55140711342831569469841178054198
157,9860.75269405776867143509129349198757,9859.2,1.55269405776867143509129349198757
158,9986.75397282619349026570145673230535,9985.2,1.55397282619349026570145673230535
159,10113.5552435219665282561888668251278,10112.0,1.5552435219665282561888668251278
160,10241.1565062464072144315965829634967,10239.6,1.5565062464072144315965829634967
161,10369.5577610989391667872922878998851,10368.0,1.5577610989391667872922878998851
162,10498.7590081771372046078771423211531,10497.2,1.5590081771372046078771423211531
163,10628.7602475767729119433328062356275,10627.2,1.5602475767729119433328062356275
164,10759.5614793918588068789734876405615,10758.0,1.5614793918588068789734876405615
165,10891.1627037146911651993923261525810,10889.6,1.5627037146911651993923261525810
166,11023.5639206358915489619623696952505,11022.0,1.5639206358915489619623696952505
167,11156.7651302444470872121835098066499,11155.2,1.5651302444470872121835098066499
168,11290.7663326277495515297606289379161,11289.2,1.5663326277495515297606289379161
169,11425.5675278716332714674750329857701,11424.0,1.5675278716332714674750329857701
170,11561.1687160604119296259369808625967,11559.6,1.5687160604119296259369808625967
171,11697.5698972769142765586515464929486,11696.0,1.5698972769142765586515464929486
172,11834.7710716025188033740276864516306,11833.2,1.5710716025188033740276864516306
173,11972.7722391171874074366328885928336,11971.2,1.5722391171874074366328885928336
174,12111.5733998994980870111793064156398,12110.0,1.5733998994980870111793064156398
175,12251.1745540266766988341460361562499,12249.6,1.5745540266766988341460361562499
176,12391.5757015746278083193622033456565,12390.0,1.5757015746278083193622033456565
177,12532.7768426179646656580600441917307,12531.2,1.5768426179646656580600441917307
178,12674.7779772300383369677659748527796,12673.2,1.5779772300383369677659748527796
179,12817.5791054829660169349471813837134,12816.0,1.5791054829660169349471813837134
180,12961.1802274476585538977844791266361,12959.6,1.5802274476585538977844791266361
181,13105.5813431938472100176292393498034,13104.0,1.5813431938472100176292393498034
182,13250.7824527901096842345015757911065,13249.2,1.5824527901096842345015757911065
183,13396.7835563038954210558753620322598,13395.2,1.5835563038954210558753620322598
184,13543.5846538015502294202578089170066,13542.0,1.5846538015502294202578089170066
185,13691.1857453483402334436586893483688,13689.6,1.5857453483402334436586893483688
186,13839.5868310084751760175397463219168,13838.0,1.5868310084751760175397463219168
187,13988.7879108451310990587135544758998,13987.2,1.5879108451310990587135544758998
188,14138.7889849204724158474773899959763,14137.2,1.5889849204724158474773899959763
189,14289.5900532956733991850411144399463,14288.0,1.5900532956733991850411144399463
190,14441.1911160309391010212949469184783,14439.6,1.5911160309391010212949469184783
191,14593.5921731855257227754367358694594,14592.0,1.5921731855257227754367358694594
192,14746.7932248177604527316288752307048,14745.2,1.5932248177604527316288752307048
193,14900.7942709850607888134994001221841,14899.2,1.5942709850607888134994001221841
194,15055.5953117439533600782358174607556,15054.0,1.5953117439533600782358174607556
195,15211.1963471500922648625958687755010,15209.6,1.5963471500922648625958687755010
196,15367.5973772582769392727000244638021,15366.0,1.5973772582769392727000244638021
197,15524.7984021224695703928911521118686,15523.2,1.5984021224695703928911521118686
198,15682.7994217958120683756045030755584,15681.2,1.5994217958120683756045030755584
199,15841.6004363306426102460660033843707,15840.0,1.6004363306426102460660033843707
200,16001.2014457785117693619817644723463,15999.6,1.6014457785117693619817644723463
201,16161.6024501901982415045998740629547,16160.0,1.6024501901982415045998740629547
202,16322.8034496157241809772583882572851,16321.2,1.6034496157241809772583882572851
203,16484.8044441043701573661032950509833,16483.2,1.6044441043701573661032950509833
204,16647.6054337046897445778408028262286,16646.0,1.6054337046897445778408028262286
205,16811.2064184645237521198378562586119,16809.6,1.6064184645237521198378562586119
206,16975.6073984310141116412705608632289,16974.0,1.6073984310141116412705608632289
207,17140.8083736506174246059480289437063,17139.2,1.6083736506174246059480289437063
208,17306.8093441691181853182189939114347,17305.2,1.6093441691181853182189939114347
209,17473.6103100316416850447910362453780,17472.0,1.6103100316416850447910362453780
210,17641.2112712826666087280639959954582,17639.6,1.6112712826666087280639959954582
211,17809.6122279660373316499364032596467,17808.0,1.6122279660373316499364032596467
212,17978.8131801249759262732096027298039,17977.2,1.6131801249759262732096027298039
213,18148.8141278020938836384801284197114,18147.2,1.6141278020938836384801284197114
214,18319.6150710394035642922062017388885,18318.0,1.6150710394035642922062017388885
215,18491.2160098783293779521759260851793,18489.6,1.6160098783293779521759260851793
216,18663.6169443597187058648301179766441,18662.0,1.6169443597187058648301179766441
217,18836.8178745238525698134778883912920,18835.2,1.6178745238525698134778883912920
218,19010.8188004104560567498505970185971,19009.2,1.6188004104560567498505970185971
219,19185.6197220587085023219257499193177,19184.0,1.6197220587085023219257499193177
220,19361.2206395072534458061441544996235,19359.6,1.6206395072534458061441544996235
221,19537.6215527942083543463056378736769,19536.0,1.6215527942083543463056378736769
222,19714.8224619571741336965042975047893,19713.2,1.6224619571741336965042975047893
223,19892.8233670332444190289297266976444,19891.2,1.6233670332444190289297266976444
224,20071.6242680590146608658275650137156,20070.0,1.6242680590146608658275650137156
225,20251.2251650705910086921574698678373,20249.6,1.6251650705910086921574698678373
226,20431.6260581035989957868840036915446,20430.0,1.6260581035989957868840036915446
227,20612.8269471931920339157423499969371,20611.2,1.6269471931920339157423499969371
228,20794.8278323740597196956730702473372,20793.2,1.6278323740597196956730702473372
229,20977.6287136804359597830643462458306,20976.0,1.6287136804359597830643462458306
230,21161.2295911461069195720331669225277,21159.6,1.6295911461069195720331669225277
231,21345.6304648044187971920028926441001,21344.0,1.6304648044187971920028926441001
232,21530.8313346882854332134851365514387,21529.2,1.6313346882854332134851365514387
233,21716.8322008301957510475570486103254,21715.2,1.6322008301957510475570486103254
234,21903.6330632622210441850869132847238,21902.0,1.6330632622210441850869132847238
235,22091.2339220160221034467945206269297,22089.6,1.6339220160221034467945206269297
236,22279.6347771228561939429013284256386,22278.0,1.6347771228561939429013284256386
237,22468.8356286135838853624834758826673,22467.2,1.6356286135838853624834758826673
238,22658.8364765186757373235248928046503,22657.2,1.6364765186757373235248928046503
