Eigenstate,Energy,Kinetic Energy,Potential Energy
1,0.500000000041140194039828208818242845,0.0,0.500000000041140194039828208818242845
2,1.84623093791965637432226412383664615,1.2,0.64623093791965637432226412383664615
3,3.93633761049379524676625360491926317,3.2,0.73633761049379524676625360491926317
4,6.79966527945725977944706883851987772,6.0,0.79966527945725977944706883851987772
5,10.4480465781317340045931003854700399,9.6,0.8480465781317340045931003854700399
6,14.8870660012742629256606434478083072,14.0,0.8870660012742629256606434478083072
7,20.1197208303241334617261033321266688,19.2,0.9197208303241334617261033321266688
8,26.1477838516588857124225513098962707,25.2,0.9477838516588857124225513098962707
9,32.9723835642851502948840778090904892,32.0,0.9723835642851502948840778090904892
10,40.5942802223517265289933863265652421,39.6,0.9942802223517265289933863265652421
11,49.0140093959998129291422613177208715,48.0,1.0140093959998129291422613177208715
12,58.2319621805341599208071556469665248,57.2,1.0319621805341599208071556469665248
13,68.2484327060206731176428464479446220,67.2,1.0484327060206731176428464479446220
14,79.0636476701425814556741542819885253,78.0,1.0636476701425814556741542819885253
15,90.6777854540146260631685757262115365,89.6,1.0777854540146260631685757262115365
16,103.090988927053507895900001888439766,102.0,1.090988927053507895900001888439766
17,116.303374280439393843760543141138526,115.2,1.103374280439393843760543141138526
18,130.315037278122117468996741315875892,129.2,1.115037278122117468996741315875892
19,145.126057779925157569778981493039915,144.0,1.126057779925157569778981493039915
20,160.736503079179575335641459177730204,159.6,1.136503079179575335641459177730204
21,177.146430408805712068918795117582506,176.0,1.146430408805712068918795117582506
22,194.355888852471929735907328110392501,193.2,1.155888852471929735907328110392501
23,212.364920822531135947048896373057658,211.2,1.164920822531135947048896373057658
24,231.173563217421206371577262470840908,230.0,1.173563217421206371577262470840908
25,250.781848338460911332336380070010106,249.6,1.181848338460911332336380070010106
26,271.189804623657503719936841951440070,270.0,1.189804623657503719936841951440070
27,292.397457240669294961406204408799469,291.2,1.197457240669294961406204408799469
28,314.404828570164694967423502521926839,313.2,1.204828570164694967423502521926839
29,337.211938603024164159367508467172458,336.0,1.211938603024164159367508467172458
30,360.818805269182038107150451963511349,359.6,1.218805269182038107150451963511349
31,385.225444711759246808043175343989805,384.0,1.225444711759246808043175343989805
32,410.431871517060051051478583340124134,409.2,1.231871517060051051478583340124134
33,436.438098908696270510335569366459187,435.2,1.238098908696270510335569366459187
34,463.244138912351931932797300370022996,462.0,1.244138912351931932797300370022996
35,490.850002496362070743001932830172477,489.6,1.250002496362070743001932830172477
36,519.255699692245940480032815414875947,518.0,1.255699692245940480032815414875947
37,548.461239698530799956195165303136738,547.2,1.261239698530799956195165303136738
38,578.466630970572029272327096018279292,577.2,1.266630970572029272327096018279292
39,609.271881298577477178334155317304432,608.0,1.271881298577477178334155317304432
40,640.876997875648121483562339007038471,639.6,1.276997875648121483562339007038471
41,673.281987357330373947882696908842407,672.0,1.281987357330373947882696908842407
42,706.486855913920368482840424561163516,705.2,1.286855913920368482840424561163516
43,740.491609276554085147294378152404844,739.2,1.291609276554085147294378152404844
44,775.296252777949068406461422805034714,774.0,1.296252777949068406461422805034714
45,810.900791388525928554277964659288543,809.6,1.300791388525928554277964659288543
46,847.305229748524678916394265375677110,846.0,1.305229748524678916394265375677110
47,884.509572196637484838783532749938074,883.2,1.309572196637484838783532749938074
48,922.513822795601814102698463982811962,921.2,1.313822795601814102698463982811962
49,961.317985355133315862810632831165258,960.0,1.317985355133315862810632831165258
50,1000.92206345252363249171446856235430,999.6,1.32206345252363249171446856235430
51,1041.32606045118288175150493668717967,1040.0,1.32606045118288175150493668717967
52,1082.52997951736820149883849096470303,1081.2,1.32997951736820149883849096470303
53,1124.53382363530729901134088760795062,1123.2,1.33382363530729901134088760795062
54,1167.33759562089838589176936540711790,1166.0,1.33759562089838589176936540711790
55,1210.94129813414440401382491261195496,1209.6,1.34129813414440401382491261195496
56,1255.34493369045937340338527377667135,1254.0,1.34493369045937340338527377667135
57,1300.54850467096749398381039389580641,1299.2,1.34850467096749398381039389580641
58,1346.55201333190083592768128940560659,1345.2,1.35201333190083592768128940560659
59,1393.35546181318869941005810595210308,1392.0,1.35546181318869941005810595210308
60,1440.95885214632070005064110532898743,1439.6,1.35885214632070005064110532898743
61,1489.36218626155607210471376956466795,1488.0,1.36218626155607210471376956466795
62,1538.56546599454338045763388380654341,1537.2,1.36546599454338045763388380654341
63,1588.56869309240759058861790907640951,1587.2,1.36869309240759058861790907640951
64,1639.37186921935513318964193642646735,1638.0,1.37186921935513318964193642646735
65,1690.97499596184206528530984463193090,1689.6,1.37499596184206528530984463193090
66,1743.37807483334558236048511409448398,1742.0,1.37807483334558236048511409448398
67,1796.58110727877487371115705923242309,1795.2,1.38110727877487371115705923242309
68,1850.58409467855355707320366931129133,1849.2,1.38409467855355707320366931129133
69,1905.38703835240261591298655669112111,1904.0,1.38703835240261591298655669112111
70,1960.98993956284983449544931116737288,1959.6,1.38993956284983449544931116737288
71,2017.39279951848912714165970285866209,2016.0,1.39279951848912714165970285866209
72,2074.59561937701085984535603896722653,2073.2,1.39561937701085984535603896722653
73,2132.59840024802220941165474086538953,2131.2,1.39840024802220941165474086538953
74,2191.40114319567478643252321765370549,2190.0,1.40114319567478643252321765370549
75,2251.00384924111511731251923376600331,2249.6,1.40384924111511731251923376600331
76,2311.40651936477213100154252989100955,2310.0,1.40651936477213100154252989100955
77,2372.60915450849449369292646585666244,2371.2,1.40915450849449369292646585666244
78,2434.61175557754946894701714512209729,2433.2,1.41175557754946894701714512209729
79,2497.41432344249393388039522188378575,2496.0,1.41432344249393388039522188378575
80,2561.01685894092724393525103091713242,2559.6,1.41685894092724393525103091713242
81,2625.41936287913478940194720213061902,2624.0,1.41936287913478940194720213061902
82,2690.62183603363032541724919309290049,2689.2,1.42183603363032541724919309290049
83,2756.62427915260446842691454793812335,2755.2,1.42427915260446842691454793812335
84,2823.42669295728612780961554548470582,2822.0,1.42669295728612780961554548470582
85,2891.02907814322308208299613736573404,2889.6,1.42907814322308208299613736573404
86,2959.43143538148739324727469721507815,2958.0,1.43143538148739324727469721507815
87,3028.63376531981089535100432586401638,3027.2,1.43376531981089535100432586401638
88,3098.63606858365556998586655776645820,3097.2,1.43606858365556998586655776645820
89,3169.43834577722323791521292655687983,3168.0,1.43834577722323791521292655687983
90,3241.04059748440865282433944172535166,3239.6,1.44059748440865282433944172535166
91,3313.44282426969976172842842998416590,3312.0,1.44282426969976172842842998416590
92,3386.64502667902860827655290551085184,3385.2,1.44502667902860827655290551085184
93,3460.64720524057609293508311302844479,3459.2,1.44720524057609293508311302844479
94,3535.44936046553356110509668175020949,3534.0,1.44936046553356110509668175020949
95,3611.05149284882396907436486335503874,3609.6,1.45149284882396907436486335503874
96,3687.45360286978517588237080008895733,3686.0,1.45360286978517588237080008895733
97,3764.65569099281772483470632750511885,3763.2,1.45569099281772483470632750511885
98,3842.65775766799930552889883190911560,3841.2,1.45775766799930552889883190911560
99,3921.45980333166793378153087368023809,3920.0,1.45980333166793378153087368023809
100,4001.06182840697574050609891243619651,3999.6,1.46182840697574050609891243619651
101,4081.46383330441513128690319431875162,4080.0,1.46383330441513128690319431875162
102,4162.66581842231895281953970763907734,4161.2,1.46581842231895281953970763907734
103,4244.66778414733619447495214164152330,4243.2,1.46778414733619447495214164152330
104,4327.46973085488464597929165900745520,4326.0,1.46973085488464597929165900745520
105,4411.07165890958183912807497983623645,4409.6,1.47165890958183912807497983623645
106,4495.47356866565551068888793700205820,4494.0,1.47356866565551068888793700205820
107,4580.67546046733474556492606357013800,4579.2,1.47546046733474556492606357013800
108,4666.67733464922288005210937958452037,4665.2,1.47733464922288005210937958452037
109,4753.47919153665317642897456347802394,4752.0,1.47919153665317642897456347802394
110,4841.08103144602821769842238471819206,4839.6,1.48103144602821769842238471819206
111,4929.48285468514390543920000581372655,4928.0,1.48285468514390543920000581372655
112,5018.68466155349889429136414071897180,5017.2,1.48466155349889429136414071897180
113,5108.68645234259024106417701829670482,5107.2,1.48645234259024106417701829670482
114,5199.48822733619599769713085075511952,5198.0,1.48822733619599769713085075511952
115,5291.08998681064543685629382771703385,5289.6,1.48998681064543685629382771703385
116,5383.49173103507755061652254594882139,5382.0,1.49173103507755061652254594882139
117,5476.69346027168843096707899668474275,5475.2,1.49346027168843096707899668474275
118,5570.69517477596809984708458146332262,5569.2,1.49517477596809984708458146332262
119,5665.49687479692732270352754344692604,5664.0,1.49687479692732270352754344692604
120,5761.09856057731491372230514766688359,5759.6,1.49856057731491372230514766688359
121,5857.50023235382600261553754573017934,5856.0,1.50023235382600261553754573017934
122,5954.70189035730171393525780192705742,5953.2,1.50189035730171393525780192705742
123,6052.70353481292067769065037094033837,6051.2,1.50353481292067769065037094033837
124,6151.50516594038277236620168534636400,6150.0,1.50516594038277236620168534636400
125,6251.10678395408547187186353230951278,6249.6,1.50678395408547187186353230951278
126,6351.50838906329315275903225016193166,6350.0,1.50838906329315275903225016193166
127,6452.70998147229969745826039255246373,6451.2,1.50998147229969745826039255246373
128,6554.71156138058470670742778616487294,6553.2,1.51156138058470670742778616487294
129,6657.51312898296362226586057489108357,6656.0,1.51312898296362226586057489108357
130,6761.11468446973204262801978031844723,6759.6,1.51468446973204262801978031844723
131,6865.51622802680449904626279622832478,6864.0,1.51622802680449904626279622832478
132,6970.71775983584794419498057974193467,6969.2,1.51775983584794419498057974193467
133,7076.71928007441019402682893274945354,7075.2,1.51928007441019402682893274945354
134,7183.52078891604355209581406415347173,7182.0,1.52078891604355209581406415347173
135,7291.12228653042382751364973759005958,7289.6,1.52228653042382751364973759005958
136,7399.52377308346495401827288678020373,7398.0,1.52377308346495401827288678020373
137,7508.72524873742940432546147738400553,7507.2,1.52524873742940432546147738400553
138,7618.72671365103458032250726522156295,7617.2,1.52671365103458032250726522156295
139,7729.52816797955535755699096779357973,7728.0,1.52816797955535755699096779357973
140,7841.12961187492294702773880309254965,7839.6,1.52961187492294702773880309254965
141,7953.53104548582023272754954774398356,7952.0,1.53104548582023272754954774398356
142,8066.73246895777373531401423258138509,8065.2,1.53246895777373531401423258138509
143,8180.73388243324234363458125728703378,8179.2,1.53388243324234363458125728703378
144,8295.53528605170294865238281758508614,8294.0,1.53528605170294865238281758508614
145,8411.13667994973311013157930728176168,8409.6,1.53667994973311013157930728176168
146,8527.53806426109087857222771774826488,8526.0,1.53806426109087857222771774826488
147,8644.73943911679188668171384567084309,8643.2,1.53943911679188668171384567084309
148,8762.74080464518382571175488820019140,8761.2,1.54080464518382571175488820019140
149,8881.54216097201840846190481036979340,8880.0,1.54216097201840846190481036979340
150,9001.14350822052092259041747689773121,8999.6,1.54350822052092259041747689773121
151,9121.54484651145747014669926648382968,9120.0,1.54484651145747014669926648382968
152,9242.74617596319998362449760997732746,9241.2,1.54617596319998362449760997732746
153,9364.74749669178910748549582969215892,9363.2,1.54749669178910748549582969215892
154,9487.54880881099502905253227996319265,9486.0,1.54880881099502905253227996319265
155,9611.15011243237633700841230757437405,9609.6,1.55011243237633700841230757437405
156,9735.55140766533698536665152489036615,9734.0,1.55140766533698536665152489036615
157,9860.75269461718143396072847471782256,9859.2,1.55269461718143396072847471782256
158,9986.75397339316803726992283182332660,9985.2,1.55397339316803726992283182332660
159,10113.5552440965607452545470204317588,10112.0,1.5552440965607452545470204317588
160,10241.1565068286791825380835332513102,10239.6,1.5565068286791825380835332513102
161,10369.5577616889471644323214523258986,10368.0,1.5577616889471644323214523258986
162,10498.7590087749397092665662467212277,10497.2,1.5590087749397092665662467212277
163,10628.7602481824286018741944911734034,10627.2,1.5602481824286018741944911734034
164,10759.5614800054265628731215647941071,10758.0,1.5614800054265628731215647941071
165,10891.1627043362300723403723650356479,10889.6,1.5627043362300723403723650356479
166,11023.5639212654608983963164721376527,11022.0,1.5639212654608983963164721376527
167,11156.7651308821063779308599225329454,11155.2,1.5651308821063779308599225329454
168,11290.7663332735584921604800444599353,11289.2,1.5663332735584921604800444599353
169,11425.5675285256517820781663374910610,11424.0,1.5675285256517820781663374910610
170,11561.1687167227001435393563137766850,11559.6,1.5687167227001435393563137766850
171,11697.5698979475325421782994487922736,11696.0,1.5698979475325421782994487922736
172,11834.7710722815276860214803466425607,11833.2,1.5710722815276860214803466425607
173,11972.7722398046476912004044427732068,11971.2,1.5722398046476912004044427732068
174,12111.5734005954707766072332223705550,12110.0,1.5734005954707766072332223705550
175,12251.1745547312230214781748572418804,12249.6,1.5745547312230214781748572418804
176,12391.5757022878092156109558262783330,12390.0,1.5757022878092156109558262783330
177,12532.7768433398428354768839791807871,12531.2,1.5768433398428354768839791807871
178,12674.7779779606751753818721419411170,12673.2,1.5779779606751753818721419411170
179,12817.5791062224236601213409190733817,12816.0,1.5791062224236601213409190733817
180,12961.1802281959993700753726248547765,12959.6,1.5802281959993700753726248547765
181,13105.5813439511338013926753275770521,13104.0,1.5813439511338013926753275770521
182,13250.7824535564048889587153363552060,13249.2,1.5824535564048889587153363552060
183,13396.7835570792623151972650578104695,13395.2,1.5835570792623151972650578104695
184,13543.5846545860521289468749558564088,13542.0,1.5846545860521289468749558564088
185,13691.1857461420406962203661534045793,13689.6,1.5857461420406962203661534045793
186,13839.5868318114380038159353052905253,13838.0,1.5868318114380038159353052905253
187,13988.7879116574203395803424409910507,13987.2,1.5879116574203395803424409910507
188,14138.7889857421523647604683854049765,14137.2,1.5889857421523647604683854049765
189,14289.5900541268086021743023174817686,14288.0,1.5900541268086021743023174817686
190,14441.1911168715943558524065244166193,14439.6,1.5911168715943558524065244166193
191,14593.5921740357660813723792301594408,14592.0,1.5921740357660813723792301594408
192,14746.7932256776512232684872263312398,14745.2,1.5932256776512232684872263312398
193,14900.7942718546675378202838766608468,14899.2,1.5942718546675378202838766608468
194,15055.5953126233419145609627910403084,15054.0,1.5953126233419145609627910403084
195,15211.1963480393287144377724054289291,15209.6,1.5963480393287144377724054289291
196,15367.5973781574276383163580349907451,15366.0,1.5973781574276383163580349907451
197,15524.7984030316011402043179690969257,15523.2,1.5984030316011402043179690969257
198,15682.7994227149913993559184358432602,15681.2,1.5994227149913993559184358432602
199,15841.6004372599368640917867640971568,15840.0,1.6004372599368640917867640971568
200,16001.2014467179883812737471519358945,15999.6,1.6014467179883812737471519358945
201,16161.6024511399249224111816949691353,16160.0,1.6024511399249224111816949691353
202,16322.8034505757689197750320059203047,16321.2,1.6034505757689197750320059203047
203,16484.8044450748012231741268529910647,16483.2,1.6044450748012231741268529910647
204,16647.6054346855756890087016456013909,16646.0,1.6054346855756890087016456013909
205,16811.2064194559334115664252580713473,16809.6,1.6064194559334115664252580713473
206,16975.6073994330166095796355605298226,16974.0,1.6073994330166095796355605298226
207,17140.8083746632821739144126849465324,17139.2,1.6083746632821739144126849465324
208,17306.8093451925148906128990867585025,17305.2,1.6093451925148906128990867585025
209,17473.6103110658403450316978795583065,17472.0,1.6103110658403450316978795583065
210,17641.2112723277375185719527041998153,17639.6,1.6112723277375185719527041998153
211,17809.6122290220510853600696785076349,17808.0,1.6122290220510853600696785076349
212,17978.8131811920034191062077633651786,17977.2,1.6131811920034191062077633651786
213,18148.8141288802063145184300222871771,18147.2,1.6141288802063145184300222871771
214,18319.6150721286724382482031918374559,18318.0,1.6150721286724382482031918374559
215,18491.2160109788265085734750474222715,18489.6,1.6160109788265085734750474222715
216,18663.6169454715162177737843499276562,18662.0,1.6169454715162177737843499276562
217,18836.8178756470229011564433089339598,18835.2,1.6178756470229011564433089339598
218,19010.8188015450719617062398553362369,19009.2,1.6188015450719617062398553362369
219,19185.6197232048430536315935360739585,19184.0,1.6197232048430536315935360739585
220,19361.2206406649800373152898457684112,19359.6,1.6206406649800373152898457684112
221,19537.6215539636007035720806505966824,19536.0,1.6215539636007035720806505966824
222,19714.8224631383062844105132426971601,19713.2,1.6224631383062844105132426971601
223,19892.8233682261907438598166368275863,19891.2,1.6233682261907438598166368275863
224,20071.6242692638498639211405463431506,20070.0,1.6242692638498639211405463431506
225,20251.2251662873901281996868935541789,20249.6,1.6251662873901281996868935541789
226,20431.6260593324374067556718100007324,20430.0,1.6260593324374067556718100007324
227,20612.8269484341454508169615046495440,20611.2,1.6269484341454508169615046495440
228,20794.8278336272041991635790512404043,20793.2,1.6278336272041991635790512404043
229,20977.6287149458479033362221728758521,20976.0,1.6287149458479033362221728758521
230,21161.2295924238630763550256888439988,21159.6,1.6295924238630763550256888439988
231,21345.6304660945962667378285500228330,21344.0,1.6304660945962667378285500228330
232,21530.8313359909616682268551394476877,21529.2,1.6313359909616682268551394476877
233,21716.8322021454485602093047327200041,21715.2,1.6322021454485602093047327200041
234,21903.6330645901285949779036581683743,21902.0,1.6330645901285949779036581683743
235,22091.2339233566629250025096322678209,22089.6,1.6339233566629250025096322678209
236,22279.6347784763091799115249048805223,22278.0,1.6347784763091799115249048805223
237,22468.8356299799282968032342066867581,22467.2,1.6356299799282968032342066867581
238,22658.8364778979912056180667918572218,22657.2,1.6364778979912056180667918572218
