Eigenstate,Energy,Kinetic Energy,Potential Energy
1,0.500000000039939743094034898672952579,0.0,0.500000000039939743094034898672952579
2,1.84623093791182044278995470990075065,1.2,0.64623093791182044278995470990075065
3,3.93633761047077776924788769268841507,3.2,0.73633761047077776924788769268841507
4,6.79966527940931682814906066252607186,6.0,0.79966527940931682814906066252607186
5,10.4480465780486866183091696412132821,9.6,0.8480465780486866183091696412132821
6,14.8870660011457537560794908800626267,14.0,0.8870660011457537560794908800626267
7,20.1197208301397213122887307348100693,19.2,0.9197208301397213122887307348100693
8,26.1477838514080849433870093930636364,25.2,0.9477838514080849433870093930636364
9,32.9723835639574491269232933685415093,32.0,0.9723835639574491269232933685415093
10,40.5942802219365963148399270319368847,39.6,0.9942802219365963148399270319368847
11,49.0140093954867131733782077400318837,48.0,1.0140093954867131733782077400318837
12,58.2319621799125411329497768808401300,57.2,1.0319621799125411329497768808401300
13,68.2484327052799784856449118063339970,67.2,1.0484327052799784856449118063339970
14,79.0636476692722478405472692563933754,78.0,1.0636476692722478405472692563933754
15,90.6777854530040845840286647318041891,89.6,1.0777854530040845840286647318041891
16,103.090988925892184257711267667895607,102.0,1.090988925892184257711267667895607
17,116.303374279116708497682431701375515,115.2,1.103374279116708497682431701375515
18,130.315037276627485660443956675962841,129.2,1.115037276627485660443956675962841
19,145.126057778247989309104981561559402,144.0,1.126057778247989309104981561559402
20,160.736503077309275314210382827930660,159.6,1.136503077309275314210382827930660
21,177.146430406731679535797380982888981,176.0,1.146430406731679535797380982888981
22,194.355888850183558345604351572738263,193.2,1.155888850183558345604351572738263
23,212.364920820017813585589032671346829,211.2,1.164920820017813585589032671346829
24,231.173563214672314966096617825750487,230.0,1.173563214672314966096617825750487
25,250.781848335465826647954443551562905,249.6,1.181848335465826647954443551562905
26,271.189804620405595146664126757007130,270.0,1.189804620405595146664126757007130
27,292.397457237149925293143309766704265,291.2,1.197457237149925293143309766704265
28,314.404828566367220174602396359096464,313.2,1.204828566367220174602396359096464
29,337.211938598937933156418273191250214,336.0,1.211938598937933156418273191250214
30,360.818805264796392515705652129149638,359.6,1.218805264796392515705652129149638
31,385.225444707063520716589656475593283,384.0,1.225444707063520716589656475593283
32,410.431871512043570772013753468432673,409.2,1.231871512043570772013753468432673
33,436.438098903348354332468693057056950,435.2,1.238098903348354332468693057056950
34,463.244138906661889875646595208046886,462.0,1.244138906661889875646595208046886
35,490.850002490319204305168498426131344,489.6,1.250002490319204305168498426131344
36,519.255699685839542387877747496179184,518.0,1.255699685839542387877747496179184
37,548.461239691750153910602999284584080,547.2,1.261239691750153910602999284584080
38,578.466630963406409694104331623013428,577.2,1.266630963406409694104331623013428
39,609.271881291016148952364042869100674,608.0,1.271881291016148952364042869100674
40,640.876997867680339701814836760728993,639.6,1.276997867680339701814836760728993
41,673.281987348945383651360447464901436,672.0,1.281987348945383651360447464901436
42,706.486855905107404402526816213809397,705.2,1.286855905107404402526816213809397
43,740.491609267302371444157623101136280,739.2,1.291609267302371444157623101136280
44,775.296252768247818410558552219803702,774.0,1.296252768247818410558552219803702
45,810.900791378364344502994311563895115,809.6,1.300791378364344502994311563895115
46,847.305229737891951691847052751713230,846.0,1.305229737891951691847052751713230
47,884.509572185522793704412359310957922,883.2,1.309572185522793704412359310957922
48,922.513822783994326439060557551116939,921.2,1.313822783994326439060557551116939
49,961.317985343022186902594590170456934,960.0,1.317985343022186902594590170456934
50,1000.92206343989800505398266939608109,999.6,1.32206343989800505398266939608109
51,1041.32606043803188597517179860748715,1040.0,1.32606043803188597517179860748715
52,1082.52997950368095457538915339892756,1081.2,1.32997950368095457538915339892756
53,1124.53382362107290491679268655265959,1123.2,1.33382362107290491679268655265959
54,1167.33759560610593511787654906031895,1166.0,1.33759560610593511787654906031895
55,1210.94129811878297329852537298897082,1209.6,1.34129811878297329852537298897082
56,1255.34493367451802546048662771107722,1254.0,1.34493367451802546048662771107722
57,1300.54850465443527723191148361099994,1299.2,1.34850465443527723191148361099994
58,1346.55201331476678421832406412906049,1345.2,1.35201331476678421832406412906049
59,1393.35546179544183175510386002493349,1392.0,1.35546179544183175510386002493349
60,1440.95885212795002034886420198087157,1439.6,1.35885212795002034886420198087157
61,1489.36218624255056886760520193278831,1488.0,1.36218624255056886760520193278831
62,1538.56546597489202653440635806318350,1537.2,1.36546597489202653440635806318350
63,1588.56869307209934289040350670223738,1587.2,1.36869307209934289040350670223738
64,1639.37186919837893241287289350169843,1638.0,1.37186919837893241287289350169843
65,1690.97499594018683563427246849011699,1689.6,1.37499594018683563427246849011699
66,1743.37807481100023126903643858650018,1742.0,1.37807481100023126903643858650018
67,1796.58110725572829156359341563561894,1795.2,1.38110725572829156359341563561894
68,1850.58409465479461692427000646957957,1849.2,1.38409465479461692427000646957957
69,1905.38703832792017320701497472004601,1904.0,1.38703832792017320701497472004601
70,1960.98993953763272678461500228296173,1959.6,1.38993953763272678461500228296173
71,2017.39279949252617380334217583180157,2016.0,1.39279949252617380334217583180157
72,2074.59561935029086179859326270794913,2073.2,1.39561935029086179859326270794913
73,2132.59840022053394883267757732130204,2131.2,1.39840022053394883267757732130204
74,2191.40114316740702646935730856911414,2190.0,1.40114316740702646935730856911414
75,2251.00384921205660179864125467509296,2249.6,1.40384921205660179864125467509296
76,2311.40651933491158416857755891556834,2310.0,1.40651933491158416857755891556834
77,2372.60915447782061988237299852185584,2371.2,1.40915447782061988237299852185584
78,2434.61175554605095232098610682202038,2433.2,1.41175554605095232098610682202038
79,2497.41432341015943813134915879132871,2496.0,1.41432341015943813134915879132871
80,2561.01685890774541199472949644629671,2559.6,1.41685890774541199472949644629671
81,2625.41936284509424314826418119254422,2624.0,1.41936284509424314826418119254422
82,2690.62183599871966538214826252109700,2689.2,1.42183599871966538214826252109700
83,2756.62427911681227350116732078828263,2755.2,1.42427911681227350116732078828263
84,2823.42669292060095494754878845932445,2822.0,1.42669292060095494754878845932445
85,2891.02907810563346600593282464802934,2889.6,1.42907810563346600593282464802934
86,2959.43143534298184614587410819341301,2958.0,1.43143534298184614587410819341301
87,3028.63376528037790658648616645644398,3027.2,1.43376528037790658648616645644398
88,3098.63606854328360579010396462860478,3097.2,1.43606854328360579010396462860478
89,3169.43834573590074108967902930567040,3168.0,1.43834573590074108967902930567040
90,3241.04059744212404243789210186453130,3239.6,1.44059744212404243789210186453130
91,3313.44282422644143281391758171817040,3312.0,1.44282422644143281391758171817040
92,3386.64502663478493152623482936058038,3385.2,1.44502663478493152623482936058038
93,3460.64720519533541439482583476621675,3459.2,1.44720519533541439482583476621675
94,3535.44936041928420186736056042206279,3534.0,1.44936041928420186736056042206279
95,3611.05149280155422496994230790107388,3609.6,1.45149280155422496994230790107388
96,3687.45360282148331717086893598805515,3686.0,1.45360282148331717086893598805515
97,3764.65569094347199589375627777186670,3763.2,1.45569094347199589375627777186670
98,3842.65775761759792454207520558696072,3841.2,1.45775761759792454207520558696072
99,3921.45980328019909242496486023441226,3920.0,1.45980328019909242496486023441226
100,4001.06182835442760363376830994611790,3999.6,1.46182835442760363376830994611790
101,4081.46383325077583661458253948133471,4080.0,1.46383325077583661458253948133471
102,4162.66581836757661060739355677390900,4161.2,1.46581836757661060739355677390900
103,4244.66778409147888720875443355587632,4243.2,1.46778409147888720875443355587632
104,4327.46973079790042805025393050565588,4326.0,1.46973079790042805025393050565588
105,4411.07165885145873651126611841294895,4409.6,1.47165885145873651126611841294895
106,4495.47356860638152062022797954626699,4494.0,1.47356860638152062022797954626699
107,4580.67546040689783621673643996947140,4579.2,1.47546040689783621673643996947140
108,4666.67733458761099020720187804620693,4665.2,1.47733458761099020720187804620693
109,4753.47919147385421515326112464071792,4752.0,1.47919147385421515326112464071792
110,4841.08103138203006401202773195302702,4839.6,1.48103138203006401202773195302702
111,4929.48285461993440798605895900813845,4928.0,1.48285461993440798605895900813845
112,5018.68466148706587100728532719004266,5017.2,1.48466148706587100728532719004266
113,5108.68645227492147884335457171211757,5107.2,1.48645227492147884335457171211757
114,5199.48822726727925205708550191575959,5198.0,1.48822726727925205708550191575959
115,5291.08998674046843160122471545796531,5289.6,1.48998674046843160122471545796531
116,5383.49173096362797749905086718030623,5382.0,1.49173096362797749905086718030623
117,5476.69346019895394934836450842390665,5475.2,1.49346019895394934836450842390665
118,5570.69517470193633635529581521956226,5569.2,1.49517470193633635529581521956226
119,5665.49687472158587089064643162147000,5664.0,1.49687472158587089064643162147000
120,5761.09856050065133371924660161943225,5759.6,1.49856050065133371924660161943225
121,5857.50023227582782078556441474536759,5856.0,1.50023227582782078556441474536759
122,5954.70189027795642252567143522659311,5953.2,1.50189027795642252567143522659311
123,6052.70353473221573448273689151268339,6051.2,1.50353473221573448273689151268339
124,6151.50516585830560032341391606533766,6150.0,1.50516585830560032341391606533766
125,6251.10678387062345878621830657588462,6249.6,1.50678387062345878621830657588462
126,6351.50838897843365089570277491920551,6350.0,1.50838897843365089570277491920551
127,6452.70998138603002319834307908992166,6451.2,1.50998138603002319834307908992166
128,6554.71156129289214018886282637241665,6553.2,1.51156129289214018886282637241665
129,6657.51312889383540702248541183623064,6656.0,1.51312889383540702248541183623064
130,6761.11468437915538522673440055091058,6759.6,1.51468437915538522673440055091058
131,6865.51622793476656872228560343178651,6864.0,1.51622793476656872228560343178651
132,6970.71775974233587248517348472854144,6969.2,1.51775974233587248517348472854144
133,7076.71927997941107440107004984221921,7075.2,1.51927997941107440107004984221921
134,7183.52078881954443958639630091532665,7182.0,1.52078881954443958639630091532665
135,7291.12228643241173834268331282528147,7289.6,1.52228643241173834268331282528147
136,7399.52377298392686522306968130785190,7398.0,1.52377298392686522306968130785190
137,7508.72524863635225338187892039533434,7507.2,1.52524863635225338187892039533434
138,7618.72671354840526476622925267679756,7617.2,1.52671354840526476622925267679756
139,7729.52816787536073460272315341497587,7728.0,1.52816787536073460272315341497587
140,7841.12961176914983318629541440607112,7839.6,1.52961176914983318629541440607112
141,7953.53104537845540342080862440857724,7952.0,1.53104537845540342080862440857724
142,8066.73246884880392448771807789551624,8065.2,1.53246884880392448771807789551624
143,8180.73388232265424336895859983448374,8179.2,1.53388232265424336895859983448374
144,8295.53528593948320877056907906077200,8294.0,1.53528593948320877056907906077200
145,8411.13667983586833780581109998839271,8409.6,1.53667983586833780581109998839271
146,8527.53806414556763792778748701962578,8526.0,1.53806414556763792778748701962578
147,8644.73943899959669839860042452876215,8643.2,1.53943899959669839860042452876215
148,8762.74080452630316662405543891605842,8761.2,1.54080452630316662405543891605842
149,8881.54216085143871115484347724444186,8880.0,1.54216085143871115484347724444186
150,9001.14350809822857499505585354994608,8999.6,1.54350809822857499505585354994608
151,9121.54484638743881513226350790478178,9120.0,1.54484638743881513226350790478178
152,9242.74617583744131858830687960468392,9241.2,1.54617583744131858830687960468392
153,9364.74749656427668394046646229493777,9363.2,1.54749656427668394046646229493777
154,9487.54880868171505221223186927116869,9486.0,1.54880868171505221223186927116869
155,9611.15011230131496536963770924219681,9609.6,1.55011230131496536963770924219681
156,9735.55140753248033028950445661646576,9734.0,1.55140753248033028950445661646576
157,9860.75269448251555924616224638212302,9859.2,1.55269448251555924616224638212302
158,9986.75397325667895873473345776900026,9985.2,1.55397325667895873473345776900026
159,10113.5552439582344303037817203752177,10112.0,1.5552439582344303037817203752177
160,10241.1565066885015497348393830884097,10239.6,1.5565066885015497348393830884097
161,10369.5577615469040830649067447534560,10368.0,1.5577615469040830649067447534560
162,10498.7590086310169989129967650316474,10497.2,1.5590086310169989129967650316474
163,10628.7602480366120319639968143809534,10627.2,1.5602480366120319639968143809534
164,10759.5614798577018522464150583388858,10758.0,1.5614798577018522464150583388858
165,10891.1627041865828888042014502157469,10889.6,1.5627041865828888042014502157469
166,11023.5639211138768582782043293859331,11022.0,1.5639211138768582782043293859331
167,11156.7651307285710456295546662272902,11155.2,1.5651307285710456295546662272902
168,11290.7663331180573796938640413121825,11289.2,1.5663331180573796938640413121825
169,11425.5675283681703486282990980147417,11424.0,1.5675283681703486282990980147417
170,11561.1687165632237949946210683145463,11559.6,1.5687165632237949946210683145463
171,11697.5698977860466306726233855327540,11696.0,1.5698977860466306726233855327540
172,11834.7710721180175094705979618201689,11833.2,1.5710721180175094705979618201689
173,11972.7722396390984928351334001428628,11971.2,1.5722396390984928351334001428628
174,12111.5734004278677445037316904473633,12110.0,1.5734004278677445037316904473633
175,12251.1745545615512880851490547730617,12249.6,1.5745545615512880851490547730617
176,12391.5757021160538572737861583387793,12390.0,1.5757021160538572737861583387793
177,12532.7768431659888719586379285434514,12531.2,1.5768431659888719586379285434514
178,12674.7779777847075693811716727407297,12673.2,1.5779777847075693811716727407297
179,12817.5791060443273167870519347793058,12816.0,1.5791060443273167870519347793058
180,12961.1802280157591365180836118389108,12959.6,1.5802280157591365180836118389108
181,13105.5813437687344661929321196513807,13104.0,1.5813437687344661929321196513807
182,13250.7824533718311816719785101657258,13249.2,1.5824533718311816719785101657258
183,13396.7835568924989058555561314095748,13395.2,1.5835568924989058555561314095748
184,13543.5846543970836275570774233139719,13542.0,1.5846543970836275570774233139719
185,13691.1857459508516522591467582067291,13689.6,1.5857459508516522591467582067291
186,13839.5868316180129057212508691270895,13838.0,1.5868316180129057212508691270895
187,13988.7879114617436142394970837643543,13987.2,1.5879114617436142394970837643543
188,14138.7889855442083769946857135954174,14137.2,1.5889855442083769946857135954174
189,14289.5900539265816542197767391193294,14288.0,1.5900539265816542197767391193294
190,14441.1911166690686868377974900035717,14439.6,1.5911166690686868377974900035717
191,14593.5921738309258667927119372666182,14592.0,1.5921738309258667927119372666182
192,14746.7932254704805744554228460231592,14745.2,1.5932254704805744554228460231592
193,14900.7942716451505014087220301329406,14899.2,1.5942716451505014087220301329406
194,15055.5953124114624719519386824224768,15054.0,1.5953124114624719519386824224768
195,15211.1963478250707812576106003232596,15209.6,1.5963478250707812576106003232596
196,15367.5973779407750638720444503294541,15366.0,1.5973779407750638720444503294541
197,15524.7984028125377069350513225192549,15523.2,1.5984028125377069350513225192549
198,15682.7994224935008222808019650129930,15681.2,1.5994224935008222808019650129930
199,15841.6004370360027902536206692222056,15840.0,1.6004370360027902536206692222056
200,16001.2014464915943891788817743383644,15999.6,1.6014464915943891788817743383644
201,16161.6024509110545214653910842741617,16160.0,1.6024509110545214653910842741617
202,16322.8034503444055497153670186539930,16321.2,1.6034503444055497153670186539930
203,16484.8044448409282534967066695464296,16483.2,1.6044448409282534967066695464296
204,16647.6054344491764183924019437096229,16646.0,1.6054344491764183924019437096229
205,16811.2064192169910672924211850632701,16809.6,1.6064192169910672924211850632701
206,16975.6073991915143469467567902688419,16974.0,1.6073991915143469467567902688419
207,17140.8083744192030756502678201527610,17139.2,1.6083744192030756502678201527610
208,17306.8093449458419662807259337821393,17305.2,1.6093449458419662807259337821393
209,17473.6103108165565304328957628888360,17472.0,1.6103108165565304328957628888360
210,17641.2112720758256751442526115573436,17639.6,1.6112720758256751442526115573436
211,17809.6122287674939995712974557086652,17808.0,1.6122287674939995712974557086652
212,17978.8131809347838018435951723773663,17977.2,1.6131809347838018435951723773663
213,18148.8141286203068004734279539387401,18147.2,1.6141286203068004734279539387401
214,18319.6150718660755852967508965560398,18318.0,1.6150718660755852967508965560398
215,18491.2160107135147971516787879798467,18489.6,1.6160107135147971516787879798467
216,18663.6169452034720502489582659747129,18662.0,1.6169452034720502489582659747129
217,18836.8178753762286011934648529928742,18835.2,1.6178753762286011934648529928742
218,19010.8188012715097736291718019465677,19009.2,1.6188012715097736291718019465677
219,19185.6197229284951417805237477086955,19184.0,1.6197229284951417805237477086955
220,19361.2206403858284853983397949649274,19359.6,1.6206403858284853983397949649274
221,19537.6215536816275140125328207377387,19536.0,1.6215536816275140125328207377387
222,19714.8224628534933776890074336669570,19713.2,1.6224628534933776890074336669570
223,19892.8233679385199578515642191917470,19891.2,1.6233679385199578515642191917470
224,20071.6242689733029532281054494225697,20070.0,1.6242689733029532281054494225697
225,20251.2251659939487634776815133820802,20249.6,1.6251659939487634776815133820802
226,20431.6260590360831740363153808784186,20430.0,1.6260590360831740363153808784186
227,20612.8269481348598508244479955977888,20611.2,1.6269481348598508244479955977888
228,20794.8278333249686466262010552260319,20793.2,1.6278333249686466262010552260319
229,20977.6287146406437262925966006528125,20976.0,1.6287146406437262925966006528125
230,21161.2295921156715154549666849388717,21159.6,1.6295921156715154549666849388717
231,21345.6304657833984745378122419274329,21344.0,1.6304657833984745378122419274329
232,21530.8313356767387084800203342060784,21529.2,1.6313356767387084800203342060784
233,21716.8322018281814071499329944201850,21715.2,1.6322018281814071499329944201850
234,21903.6330642697981326003217722133467,21902.0,1.6330642697981326003217722133467
235,22091.2339230332499463343565812656714,22089.6,1.6339230332499463343565812656714
236,22279.6347781497943862813250334993010,22278.0,1.6347781497943862813250334993010
237,22468.8356296502922971022174659170591,22467.2,1.6356296502922971022174659170591
238,22658.8364775652145155561764808878673,22657.2,1.6364775652145155561764808878673
