Eigenstate,Energy,Kinetic Energy,Potential Energy
1,0.500000000345713160044773972247355103,0.0,0.500000000345713160044773972247355103
2,1.84623093990777697289782651881639176,1.2,0.64623093990777697289782651881639176
3,3.93633761633386223407883656549139790,3.2,0.73633761633386223407883656549139790
4,6.79966529162180390794282802944126704,6.0,0.79966529162180390794282802944126704
5,10.4480465992039894914263303743255277,9.6,0.8480465992039894914263303743255277
6,14.8870660338831655768423126915159159,14.0,0.8870660338831655768423126915159159
7,20.1197208771204481222642605844266664,19.2,0.9197208771204481222642605844266664
8,26.1477839153053221874555186720182312,25.2,0.9477839153053221874555186720182312
9,32.9723836474518332245954680215624361,32.0,0.9723836474518332245954680215624361
10,40.5942803277139570052264886018506262,39.6,0.9942803277139570052264886018506262
11,49.0140095262369090820827792366739107,48.0,1.0140095262369090820827792366739107
12,58.2319623383288474567422021466717926,57.2,1.0319623383288474567422021466717926
13,68.2484328940587753785401449552393036,67.2,1.0484328940587753785401449552393036
14,79.0636478911128819826323155824835571,78.0,1.0636478911128819826323155824835571
15,90.6777857106088353589189203397867580,89.6,1.0777857106088353589189203397867580
16,103.090989221966295772762997936477257,102.0,1.090989221966295772762997936477257
17,116.303374616368464568690256694623771,115.2,1.103374616368464568690256694623771
18,130.315037657768313745659925622918507,129.2,1.115037657768313745659925622918507
19,145.126058205992584522901170370918078,144.0,1.126058205992584522901170370918078
20,160.736503554375738744625142444905064,159.6,1.136503554375738744625142444905064
21,177.146430935841667009316310323375962,176.0,1.146430935841667009316310323375962
22,194.355889434062437006404466677167786,193.2,1.155889434062437006404466677167786
23,212.364921461394824456639412676443001,211.2,1.164921461394824456639412676443001
24,231.173563916280740194517418940587467,230.0,1.173563916280740194517418940587467
25,250.781849100043160502098791596404585,249.6,1.181849100043160502098791596404585
26,271.189805450693718086136845372611371,270.0,1.189805450693718086136845372611371
27,292.397458135895280612356183017116924,291.2,1.197458135895280612356183017116924
28,314.404829536320992849265015195892510,313.2,1.204829536320992849265015195892510
29,337.211939642856230616175659441357843,336.0,1.211939642856230616175659441357843
30,360.818806385440427135375026425055130,359.6,1.218806385440427135375026425055130
31,385.225445907199793870189557674202627,384.0,1.225445907199793870189557674202627
32,410.431872794444058332890843336402710,409.2,1.231872794444058332890843336402710
33,436.438100270790693532716216056460884,435.2,1.238100270790693532716216056460884
34,463.244140361929567461083723181908681,462.0,1.244140361929567461083723181908681
35,490.850004036201745940140235657730119,489.6,1.250004036201745940140235657730119
36,519.255701325132703278291559831104369,518.0,1.255701325132703278291559831104369
37,548.461241427256110624860528943521610,547.2,1.261241427256110624860528943521610
38,578.466632797933953170591250652730072,577.2,1.266632797933953170591250652730072
39,609.271883227380878689437140768487718,608.0,1.271883227380878689437140768487718
40,640.876999908704859132154543464478166,639.6,1.276999908704859132154543464478166
41,673.281989497459496707429087369974907,672.0,1.281989497459496707429087369974907
42,706.486858163948313283911796872353463,705.2,1.286858163948313283911796872353463
43,740.491611639314875600955171871372137,739.2,1.291611639314875600955171871372137
44,775.296255256284514759801333622804561,774.0,1.296255256284514759801333622804561
45,810.900793985285828897549868812554252,809.6,1.300793985285828897549868812554252
46,847.305232466567021663296148699609229,846.0,1.305232466567021663296148699609229
47,884.509575038828652503221096231873875,883.2,1.309575038828652503221096231873875
48,922.513825764816788396941097109105407,921.2,1.313825764816788396941097109105407
49,961.317988454255884143346561668699489,960.0,1.317988454255884143346561668699489
50,1000.92206668444659558035553683905933,999.6,1.32206668444659558035553683905933
51,1041.32606381880826316041497029267522,1040.0,1.32606381880826316041497029267522
52,1082.52998302360745808918228037258799,1081.2,1.32998302360745808918228037258799
53,1124.53382728308153311619293391125746,1123.2,1.33382728308153311619293391125746
54,1167.33759941313855893479739456959908,1166.0,1.33759941313855893479739456959908
55,1210.94130207379155165608401865325433,1209.6,1.34130207379155165608401865325433
56,1255.34493778046482225133594341194901,1254.0,1.34493778046482225133594341194901
57,1300.54850891429307989241456394288568,1299.2,1.34850891429307989241456394288568
58,1346.55201773151912393314503778108858,1345.2,1.35201773151912393314503778108858
59,1393.35546637208320532747885045851920,1392.0,1.35546637208320532747885045851920
60,1440.95885686748611377249097258137585,1439.6,1.35885686748611377249097258137585
61,1489.36219114799848263675137435412954,1488.0,1.36219114799848263675137435412954
62,1538.56547104928050272948778580604047,1537.2,1.36547104928050272948778580604047
63,1588.56869831846899407692902685923527,1587.2,1.36869831846899407692902685923527
64,1639.37187461978247239229387455864873,1638.0,1.37187461978247239229387455864873
65,1690.97500153968931208591685151016547,1689.6,1.37500153968931208591685151016547
66,1743.37808059167926032294793452390724,1742.0,1.37808059167926032294793452390724
67,1796.58111322067429434474122632745133,1795.2,1.38111322067429434474122632745133
68,1850.58410080711105810924285114859867,1849.2,1.38410080711105810924285114859867
69,1905.38704467072380163496939953847803,1904.0,1.38704467072380163496939953847803
70,1960.98994607405381816490717615238883,1959.6,1.38994607405381816490717615238883
71,2017.39280622570877556294501402729638,2016.0,1.39280622570877556294501402729638
72,2074.59562628339304011307774852113688,2073.2,1.39562628339304011307774852113688
73,2132.59840735672803788522871102232551,2131.2,1.39840735672803788522871102232551
74,2191.40115050987987998299425274143899,2190.0,1.40115050987987998299425274143899
75,2251.00385676400984688752540819005473,2249.6,1.40385676400984688752540819005473
76,2311.40652709956187755501604451516747,2310.0,1.40652709956187755501604451516747
77,2372.60916245839990652686546571875527,2371.2,1.40916245839990652686546571875527
78,2434.61176374580672651341505825860212,2433.2,1.41176374580672651341505825860212
79,2497.41433183235500709218252554997953,2496.0,1.41433183235500709218252554997953
80,2561.01686755566016203588612149887517,2559.6,1.41686755566016203588612149887517
81,2625.41937172202390844409403958781327,2624.0,1.41937172202390844409403958781327
82,2690.62184510797659940179387148001923,2689.2,1.42184510797659940179387148001923
83,2756.62428846172572315440673486825392,2755.2,1.42428846172572315440673486825392
84,2823.42670250451733749707129886842743,2822.0,1.42670250451733749707129886842743
85,2891.02908793191664879986836802349119,2889.6,1.42908793191664879986836802349119
86,2959.43144541501342922528483881501330,2958.0,1.43144541501342922528483881501330
87,3028.63377560155750822343772507965445,3027.2,1.43377560155750822343772507965445
88,3098.63607911702915101286127239748280,3097.2,1.43607911702915101286127239748280
89,3169.43835656564875325251984176590556,3168.0,1.43835656564875325251984176590556
90,3241.04060853132993789400157619853620,3239.6,1.44060853132993789400157619853620
91,3313.44283557857981875081928861181884,3312.0,1.44283557857981875081928861181884
92,3386.64503825334990702422639933990808,3385.2,1.44503825334990702422639933990808
93,3460.64721708384087476992553298580501,3459.2,1.44721708384087476992553298580501
94,3535.44937258126414636133091145154006,3534.0,1.44937258126414636133091145154006
95,3611.05150524056306785104189564529139,3609.6,1.45150524056306785104189564529139
96,3687.45361554109620231009225534690709,3686.0,1.45361554109620231009225534690709
97,3764.65570394728511488245804804588954,3763.2,1.45570394728511488245804804588954
98,3842.65777090922883841803419802209593,3841.2,1.45777090922883841803419802209593
99,3921.45981686328705707513268957321484,3920.0,1.45981686328705707513268957321484
100,4001.06184223263389894316124365350429,3999.6,1.46184223263389894316124365350429
101,4081.46384742778409943201967535546462,4080.0,1.46384742778409943201967535546462
102,4162.66583284709317160005583006244642,4161.2,1.46583284709317160005583006244642
103,4244.66779887723311167884005192214720,4243.2,1.46779887723311167884005192214720
104,4327.46974589364506078833966124471991,4326.0,1.46974589364506078833966124471991
105,4411.07167426097025076234507493387871,4409.6,1.47167426097025076234507493387871
106,4495.47358433346047123978992289724262,4494.0,1.47358433346047123978992289724262
107,4580.67547645536921709568480368848639,4579.2,1.47547645536921709568480368848639
108,4666.67735096132459604586168987862632,4665.2,1.47735096132459604586168987862632
109,4753.47920817668500766622850079726577,4752.0,1.47920817668500766622850079726577
110,4841.08104841787854264714098999450332,4839.6,1.48104841787854264714098999450332
111,4929.48287199272698524233911282935559,4928.0,1.48287199272698524233911282935559
112,5018.68467920075525243829711249988621,5017.2,1.48467920075525243829711249988621
113,5108.68647033348704783407961214370672,5107.2,1.48647033348704783407961214370672
114,5199.48824567472745946408241031407518,5198.0,1.48824567472745946408241031407518
115,5291.09000550083319034756893696541542,5289.6,1.49000550083319034756893696541542
116,5383.49175008097106221730971350631352,5382.0,1.49175008097106221730971350631352
117,5476.69347967736540116666707457930155,5475.2,1.49347967736540116666707457930155
118,5570.69519454553487292340287757793162,5569.2,1.49519454553487292340287757793162
119,5665.49689493451930174481737622646117,5664.0,1.49689493451930174481737622646117
120,5761.09858108709698108663602942227630,5759.6,1.49858108709698108663602942227630
121,5857.50025323999294593086479298809160,5856.0,1.50025323999294593086479298809160
122,5954.70191162407865774474944343810533,5953.2,1.50191162407865774474944343810533
123,6052.70355646456352085008943105171044,6051.2,1.50355646456352085008943105171044
124,6151.50518798117863130240119499305193,6150.0,1.50518798117863130240119499305193
125,6251.10680638835312981321335108615374,6249.6,1.50680638835312981321335108615374
126,6351.50841189538351505153185939646313,6350.0,1.50841189538351505153185939646313
127,6452.71000470659625308268095596005786,6451.2,1.51000470659625308268095596005786
128,6554.71158502150399611559283674514991,6553.2,1.51158502150399611559283674514991
129,6657.51315303495571165643662668863473,6656.0,1.51315303495571165643662668863473
130,6761.11470893728100478467143919199309,6759.6,1.51470893728100478467143919199309
131,6865.51625291442890086354849941815466,6864.0,1.51625291442890086354849941815466
132,6970.71778514810134101995155541216839,6969.2,1.51778514810134101995155541216839
133,7076.71930581588163094694019391409650,7075.2,1.51930581588163094694019391409650
134,7183.52081509135807230647414180277039,7182.0,1.52081509135807230647414180277039
135,7291.12231314424298790151601241192379,7289.6,1.52231314424298790151601241192379
136,7399.52380014048734809925035017510120,7398.0,1.52380014048734809925035017510120
137,7508.72527624239119267928859998572368,7507.2,1.52527624239119267928859998572368
138,7618.72674160871002866880509389221952,7617.2,1.52674160871002866880509389221952
139,7729.52819639475738262072569703659031,7728.0,1.52819639475738262072569703659031
140,7841.12964075250367034519733251241566,7839.6,1.52964075250367034519733251241566
141,7953.53107483067154254715272357964904,7952.0,1.53107483067154254715272357964904
142,8066.73249877482785674960645028589544,8065.2,1.53249877482785674960645028589544
143,8180.73391272747241723222852319806626,8179.2,1.53391272747241723222852319806626
144,8295.53531682812361753519168551385641,8294.0,1.53531682812361753519168551385641
145,8411.13671121340111589061875252753505,8409.6,1.53671121340111589061875252753505
146,8527.53809601710566607530036167718434,8526.0,1.53809601710566607530036167718434
147,8644.73947137029621797547530655853586,8643.2,1.53947137029621797547530655853586
148,8762.74083740136440319653389293445564,8761.2,1.54083740136440319653389293445564
149,8881.54219423610650752252999466234189,8880.0,1.54219423610650752252999466234189
150,9001.14354199779303387040846972462924,8999.6,1.54354199779303387040846972462924
151,9121.54488080723595165734404863511558,9120.0,1.54488080723595165734404863511558
152,9242.74621078285372288460250026957870,9241.2,1.54621078285372288460250026957870
153,9364.74753204073419389197811994089542,9363.2,1.54753204073419389197811994089542
154,9487.54884469469543668651841790166915,9486.0,1.54884469469543668651841790166915
155,9611.15014885634461808611966061276130,9609.6,1.55014885634461808611966061276130
156,9735.55144463513497454906857421013400,9734.0,1.55144463513497454906857421013400
157,9860.75273213842096374096562688064950,9859.2,1.55273213842096374096562688064950
158,9986.75401147151166466210093046997786,9985.2,1.55401147151166466210093046997786
159,10113.5552827377224900132090041962904,10112.0,1.5552827377224900132090041962904
160,10241.1565460384252771423799681714132,10239.6,1.5565460384252771423799681714132
161,10369.5578014730968160746186617580885,10368.0,1.5578014730968160746186617580885
162,10498.7590491393658740906745961111469,10497.2,1.5590491393658740906745961111469
163,10628.7602891330587717141089158708199,10627.2,1.5602891330587717141089158708199
164,10759.5615215482435647490196989702480,10758.0,1.5615215482435647490196989702480
165,10891.1627464772728809746254810475582,10889.6,1.5627464772728809746254810475582
166,11023.5639640108254620184405002776328,11022.0,1.5639640108254620184405002776328
167,11156.7651742379464576466777738323003,11155.2,1.5651742379464576466777738323003
168,11290.7663772460865151672856118944105,11289.2,1.5663772460865151672856118944105
169,11425.5675731211397090143723202341293,11424.0,1.5675731211397090143723202341293
170,11561.1687619474803502639952552295318,11559.6,1.5687619474803502639952552295318
171,11697.5699438079987162828147931350461,11696.0,1.5699438079987162828147931350461
172,11834.7711187841357383835173828843447,11833.2,1.5711187841357383835173828843447
173,11972.7722869559166828967802058480618,11971.2,1.5722869559166828967802058480618
174,12111.5734484019838615109487260427598,12110.0,1.5734484019838615109487260427598
175,12251.1746031996284048722287033897285,12249.6,1.5746031996284048722287033897285
176,12391.5757514248211291598398968093098,12390.0,1.5757514248211291598398968093098
177,12532.7768931522425289049903793508790,12531.2,1.5768931522425289049903793508790
178,12674.7780284553119252166306341995755,12673.2,1.5780284553119252166306341995755
179,12817.5791574062157958677357511599267,12816.0,1.5791574062157958677357511599267
180,12961.1802800759353181975755205730857,12959.6,1.5802800759353181975755205730857
181,13105.5813965342731474878754364309500,13104.0,1.5813965342731474878754364309500
182,13250.7825068498794585178421002767409,13249.2,1.5825068498794585178421002767409
183,13396.7836110902772733571952432721171,13395.2,1.5836110902772733571952432721171
184,13543.5847093218870996488936699597485,13542.0,1.5847093218870996488936699597485
185,13691.1858016100509012001324017899532,13689.6,1.5858016100509012001324017899532
186,13839.5868880190554218609795421284420,13838.0,1.5868880190554218609795421284420
187,13988.7879686121548865022313391365474,13987.2,1.5879686121548865022313391365474
188,14138.7890434515930945401947224648446,14137.2,1.5890434515930945401947224648446
189,14289.5901125986249297512230866402773,14288.0,1.5901125986249297512230866402773
190,14441.1911761135373020391675936201201,14439.6,1.5911761135373020391675936201201
191,14593.5922340556695403907399657974652,14592.0,1.5922340556695403907399657974652
192,14746.7932864834332534138047832266000,14745.2,1.5932864834332534138047832266000
193,14900.7943334543316757756527116906272,14899.2,1.5943334543316757756527116906272
194,15055.5953750249785138956352822855835,15054.0,1.5953750249785138956352822855835
195,15211.1964112511163088385318335735679,15209.6,1.5964112511163088385318335735679
196,15367.5974421876343301149864791978953,15366.0,1.5974421876343301149864791978953
197,15524.7984678885860147792136169959549,15523.2,1.5984678885860147792136169959549
198,15682.7994884072059660012840029236041,15681.2,1.5994884072059660012840029236041
199,15841.6005037959265239636530557279760,15840.0,1.6005037959265239636530557279760
200,16001.2015141063939230384237996915208,15999.6,1.6015141063939230384237996915208
201,16161.6025193894840462385565106801180,16160.0,1.6025193894840462385565106801180
202,16322.8035196953177903365093402072162,16321.2,1.6035196953177903365093402072162
203,16484.8045150732760523228816479097399,16483.2,1.6045150732760523228816479097399
204,16647.6055055720143488383933313561039,16646.0,1.6055055720143488383933313561039
205,16811.2064912394770785635527889432309,16809.6,1.6064912394770785635527889432309
206,16975.6074721229114406043584253017334,16974.0,1.6074721229114406043584253017334
207,17140.8084482688810147649249565879045,17139.2,1.6084482688810147649249565879045
208,17306.8094197232790179493549460684287,17305.2,1.6094197232790179493549460684287
209,17473.6103865313412424572646742940864,17472.0,1.6103865313412424572646742940864
210,17641.2113487376586876908346370377638,17639.6,1.6113487376586876908346370377638
211,17809.6123063861898926553409379382809,17808.0,1.6123063861898926553409379382809
212,17978.8132595202729795040143588829693,17977.2,1.6132595202729795040143588829693
213,18148.8142081826374125296368512193026,18147.2,1.6142081826374125296368512193026
214,18319.6151524154154876038536737630242,18318.0,1.6151524154154876038536737630242
215,18491.2160922601535512965708809139787,18489.6,1.6160922601535512965708809139787
216,18663.6170277578229636568793708615332,18662.0,1.6170277578229636568793708615332
217,18836.8179589488308086424320349340566,18835.2,1.6179589488308086424320349340566
218,19010.8188858730303611985305271650835,19009.2,1.6188858730303611985305271650835
219,19185.6198085697313142896271333830462,19184.0,1.6198085697313142896271333830462
220,19361.2207270777097784221280870792088,19359.6,1.6207270777097784221280870792088
221,19537.6216414352180515925891427034965,19536.0,1.6216414352180515925891427034965
222,19714.8225516799941768915374785869985,19713.2,1.6225516799941768915374785869985
223,19892.8234578492712813577419207426865,19891.2,1.6234578492712813577419207426865
224,20071.6243599797867111773674161974008,20070.0,1.6243599797867111773674161974008
225,20251.2252581077909658209101646959418,20249.6,1.6252581077909658209101646959418
226,20431.6261522690564346934378578879916,20430.0,1.6261522690564346934378578879916
227,20612.8270424988859449798827628514100,20611.2,1.6270424988859449798827628514100
228,20794.8279288321211225358224866764895,20793.2,1.6279288321211225358224866764895
229,20977.6288113031505730175369674299158,20976.0,1.6288113031505730175369674299158
230,21161.2296899459178879806754988881962,21159.6,1.6296899459178879806754988881962
231,21345.6305647939294777814047981838853,21344.0,1.6305647939294777814047981838853
232,21530.8314358802622417351472153663598,21529.2,1.6314358802622417351472153663598
233,21716.8323032375710705662214316119664,21715.2,1.6323032375710705662214316119664
234,21903.6331668980961973439811406540880,21902.0,1.6331668980961973439811406540880
235,22091.2340268936703901278392198415689,22089.6,1.6340268936703901278392198415689
236,22279.6348832557259960730814427331487,22278.0,1.6348832557259960730814427331487
237,22468.8357360153018406726620012738844,22467.2,1.6357360153018406726620012738844
238,22658.8365852030499839230401337206860,22657.2,1.6365852030499839230401337206860
