Eigenstate,Energy,Kinetic Energy,Potential Energy
1,0.500000000076045592094086867364150053,0.0,0.500000000076045592094086867364150053
2,1.84623093814750143195551896809524826,1.2,0.64623093814750143195551896809524826
3,3.93633761116307541138165113545463009,3.2,0.73633761116307541138165113545463009
4,6.79966528085130447864886364031151962,6.0,0.79966528085130447864886364031151962
5,10.4480465805465279551747214443564914,9.6,0.8480465805465279551747214443564914
6,14.8870660050109856726195149187708545,14.0,0.8870660050109856726195149187708545
7,20.1197208356864125023235588962985518,19.2,0.9197208356864125023235588962985518
8,26.1477838589516527425151211537933540,25.2,0.9477838589516527425151211537933540
9,32.9723835738141110228270991339798948,32.0,0.9723835738141110228270991339798948
10,40.5942802344230931130120950505590111,39.6,0.9942802344230931130120950505590111
11,49.0140094109201600477654630051200200,48.0,1.0140094109201600477654630051200200
12,58.2319621986103438467393838764119525,57.2,1.0319621986103438467393838764119525
13,68.2484327275597850928553503097589716,67.2,1.0484327275597850928553503097589716
14,79.0636476954519208088304679271623997,78.0,1.0636476954519208088304679271623997
15,90.6777854834016852391829289496988092,89.6,1.0777854834016852391829289496988092
16,103.090988960825964970099464586316228,102.0,1.090988960825964970099464586316228
17,116.303374318905109906709249104219769,115.2,1.103374318905109906709249104219769
18,130.315037321589137279762658409869046,129.2,1.115037321589137279762658409869046
19,145.126057828701712462770555039993113,144.0,1.126057828701712462770555039993113
20,160.736503133574087719297997145420242,159.6,1.136503133574087719297997145420242
21,177.146430469126801073588958653737264,176.0,1.146430469126801073588958653737264
22,194.355888919028417707938796888838145,193.2,1.155888919028417707938796888838145
23,212.364920895632055577433697105700577,211.2,1.164920895632055577433697105700577
24,231.173563297375808308550727378803391,230.0,1.173563297375808308550727378803391
25,250.781848425578672168981483030328363,249.6,1.181848425578672168981483030328363
26,271.189804718248134276792667990415412,270.0,1.189804718248134276792667990415412
27,292.397457343042748804537247950986306,291.2,1.197457343042748804537247950986306
28,314.404828680631177117089494276995167,313.2,1.204828680631177117089494276995167
29,337.211938721894139955122142617248106,336.0,1.211938721894139955122142617248106
30,360.818805396766242203080670870073953,359.6,1.218805396766242203080670870073953
31,385.225444848368692277745656244360816,384.0,1.225444848368692277745656244360816
32,410.431871663006038586812798391321939,409.2,1.231871663006038586812798391321939
33,436.438099064290397701381945637786542,435.2,1.238099064290397701381945637786542
34,463.244139077906102619059679161534368,462.0,1.244139077906102619059679161534368
35,490.850002672188504427922964599876810,489.6,1.250002672188504427922964599876810
36,519.255699878657181802481961442422435,518.0,1.255699878657181802481961442422435
37,548.461239895839728213846484563293313,547.2,1.261239895839728213846484563293313
38,578.466631179091867992845284757008978,577.2,1.266631179091867992845284757008978
39,609.271881518621803735090383771914903,608.0,1.271881518621803735090383771914903
40,640.876998107530876753249883960019963,639.6,1.276998107530876753249883960019963
41,673.281987601365872007929278903202539,672.0,1.281987601365872007929278903202539
42,706.486856170423306346944999886342127,705.2,1.286856170423306346944999886342127
43,740.491609545839552537770495087680639,739.2,1.291609545839552537770495087680639
44,775.296253060332557562362212131659876,774.0,1.296253060332557562362212131659876
45,810.900791684323344074521498697197483,809.6,1.300791684323344074521498697197483
46,847.305230058052347637311668328487470,846.0,1.305230058052347637311668328487470
47,884.509572520212165745683222534968500,883.2,1.309572520212165745683222534968500
48,922.513823133540708275184324417484540,921.2,1.313823133540708275184324417484540
49,961.317985707754076453714348837629520,960.0,1.317985707754076453714348837629520
50,1000.92206382014437473960655675840526,999.6,1.32206382014437473960655675840526
51,1041.32606083412219302683838666333549,1040.0,1.32606083412219302683838666333549
52,1082.52997991594515138385569974130209,1081.2,1.32997991594515138385569974130209
53,1124.53382404984144941394089774829194,1123.2,1.33382404984144941394089774829194
54,1167.33759605170980119359004358634928,1166.0,1.33759605170980119359004358634928
55,1210.94129858155366125284484816882919,1209.6,1.34129858155366125284484816882919
56,1255.34493415478757249139413922399093,1254.0,1.34493415478757249139413922399093
57,1300.54850515253626795913512953418618,1299.2,1.34850515253626795913512953418618
58,1346.55201383103236124358977285650536,1345.2,1.35201383103236124358977285650536
59,1393.35546233020570625929211415618840,1392.0,1.35546233020570625929211415618840
60,1440.95885268154648272655760088098933,1439.6,1.35885268154648272655760088098933
61,1489.36218681531449939953773356464984,1488.0,1.36218681531449939953773356464984
62,1538.56546656715890609834788741971685,1537.2,1.36546656715890609834788741971685
63,1588.56869368420526371103330631263279,1587.2,1.36869368420526371103330631263279
64,1639.37186983066060885121465418429532,1638.0,1.37186983066060885121465418429532
65,1690.97499659298161501728027681486237,1689.6,1.37499659298161501728027681486237
66,1743.37807548464610475993674342567785,1742.0,1.37807548464610475993674342567785
67,1796.58110795056390507360248333518777,1795.2,1.38110795056390507360248333518777
68,1850.58409537115928206631973122474182,1849.2,1.38409537115928206631973122474182
69,1905.38703906615387829213256271284971,1904.0,1.38703906615387829213256271284971
70,1960.98994029807614786161352801854073,1959.6,1.38994029807614786161352801854073
71,2017.39280027552068574249043284443440,2016.0,1.39280027552068574249043284443440
72,2074.59562015617854941994348562960287,2073.2,1.39562015617854941994348562960287
73,2132.59840104965761807973990499930059,2131.2,1.39840104965761807973990499930059
74,2191.40114402011021562881922596490515,2190.0,1.40114402011021562881922596490515
75,2251.00385008868359276683961001535016,2249.6,1.40385008868359276683961001535016
76,2311.40652023580741376543944416700182,2310.0,1.40652023580741376543944416700182
77,2372.60915540333109121355053701021862,2371.2,1.40915540333109121355053701021862
78,2434.61175649652264618891851442777434,2433.2,1.41175649652264618891851442777434
79,2497.41432438593972449599361897221217,2496.0,1.41432438593972449599361897221217
80,2561.01685990918246148471031445128115,2559.6,1.41685990918246148471031445128115
81,2625.41936387253703862319767059436069,2624.0,1.41936387253703862319767059436069
82,2690.62183705251801354690851115489980,2689.2,1.42183705251801354690851115489980
83,2756.62428019731681657286557490074985,2755.2,1.42428019731681657286557490074985
84,2823.42669402816318237600689834756733,2822.0,1.42669402816318237600689834756733
85,2891.02907924060572624843865345608254,2889.6,1.42907924060572624843865345608254
86,2959.43143650571735849701425811816059,2958.0,1.43143650571735849701425811816059
87,3028.63376647123077306385896694220187,3027.2,1.43376647123077306385896694220187
88,3098.63606976260882307672301095959247,3097.2,1.43606976260882307672301095959247
89,3169.43834698405421253388507740307667,3168.0,1.43834698405421253388507740307667
90,3241.04059871946259011159851887748258,3239.6,1.44059871946259011159851887748258
91,3313.44282553332280963002216838046086,3312.0,1.44282553332280963002216838046086
92,3386.64502797156783341603820223131192,3385.2,1.44502797156783341603820223131192
93,3460.64720656237949254630421110182116,3459.2,1.44720656237949254630421110182116
94,3535.44936181695007502514837302955337,3534.0,1.44936181695007502514837302955337
95,3611.05149423020349179788765745651502,3609.6,1.45149423020349179788765745651502
96,3687.45360428147856867803268319977607,3686.0,1.45360428147856867803268319977607
97,3764.65569243517682792473333309491662,3763.2,1.45569243517682792473333309491662
98,3842.65775914137695033252433285723836,3841.2,1.45775914137695033252433285723836
99,3921.45980483641795522324137041470545,3920.0,1.45980483641795522324137041470545
100,4001.06182994345298938956186953122936,3999.6,1.46182994345298938956186953122936
101,4081.46383487297548673547053698960740,4080.0,1.46383487297548673547053698960740
102,4162.66582002331933478422847872144803,4161.2,1.46582002331933478422847872144803
103,4244.66778578113457631081199175790437,4243.2,1.46778578113457631081199175790437
104,4327.46973252184006709107725181874431,4326.0,1.46973252184006709107725181874431
105,4411.07166061005441768614939960685625,4409.6,1.47166061005441768614939960685625
106,4495.47357040000645641629185497953908,4494.0,1.47357040000645641629185497953908
107,4580.67546223592637259655576392439383,4579.2,1.47546223592637259655576392439383
108,4666.67733645241861986695552851494860,4665.2,1.47733645241861986695552851494860
109,4753.47919337481759085638224210855260,4752.0,1.47919337481759085638224210855260
110,4841.08103331952701199934182046291232,4839.6,1.48103331952701199934182046291232
111,4929.48285659434394146340627542189240,4928.0,1.48285659434394146340627542189240
112,5018.68466349876820371163340860589804,5017.2,1.48466349876820371163340860589804
113,5108.68645432429803868841595406969787,5107.2,1.48645432429803868841595406969787
114,5199.48822935471269485946513653797509,5198.0,1.48822935471269485946513653797509
115,5291.08998886634265488813134836261546,5289.6,1.48998886634265488813134836261546
116,5383.49173312832813439861613731476417,5382.0,1.49173312832813439861613731476417
117,5476.69346240286646256362363146333598,5475.2,1.49346240286646256362363146333598
118,5570.69517694544891222289355551920810,5569.2,1.49517694544891222289355551920810
119,5665.49687700508751352534216022666196,5664.0,1.49687700508751352534216022666196
120,5761.09856282453235924530273181275157,5759.6,1.49856282453235924530273181275157
121,5857.50023464047987165611270543585989,5856.0,1.50023464047987165611270543585989
122,5954.70189268377248193116236890210973,5953.2,1.50189268377248193116236890210973
123,6052.70353717959014084958784557528022,6051.2,1.50353717959014084958784557528022
124,6151.50516834763406190398292868153553,6150.0,1.50516834763406190398292868153553
125,6251.10678640230306834124110959503744,6249.6,1.50678640230306834124110959503744
126,6351.50839155286290047034199976461585,6350.0,1.50839155286290047034199976461585
127,6452.70998400360881899300979382190547,6451.2,1.50998400360881899300979382190547
128,6554.71156395402181752598214215971115,6553.2,1.51156395402181752598214215971115
129,6657.51313159891874541038943021633616,6656.0,1.51313159891874541038943021633616
130,6761.11468712859662352187768453685348,6759.6,1.51468712859662352187768453685348
131,6865.51623072897142039099016354565322,6864.0,1.51623072897142039099016354565322
132,6970.71776258171154096612279441099366,6969.2,1.51776258171154096612279441099366
133,7076.71928286436626856978335506974987,7075.2,1.51928286436626856978335506974987
134,7183.52079175048938932292748049289056,7182.0,1.52079175048938932292748049289056
135,7291.12228940975821020380098987310066,7289.6,1.52228940975821020380098987310066
136,7399.52377600808817822018815190236392,7398.0,1.52377600808817822018815190236392
137,7508.72525170774329486602246459437546,7507.2,1.52525170774329486602246459437546
138,7618.72671666744250642132571744917039,7617.2,1.52671666744250642132571744917039
139,7729.52817104246224854853606794164710,7728.0,1.52817104246224854853606794164710
140,7841.12961498473530819231746784556817,7839.6,1.52961498473530819231746784556817
141,7953.53104864294616123245297739463217,7952.0,1.53104864294616123245297739463217
142,8066.73247216262293626615832696895738,8065.2,1.53247216262293626615832696895738
143,8180.73388568622614624598205070987386,8179.2,1.53388568622614624598205070987386
144,8295.53528935323432251982255237622177,8294.0,1.53528935323432251982255237622177
145,8411.13668330022668163183302588909679,8409.6,1.53668330022668163183302588909679
146,8527.53806766096294737423485544203773,8526.0,1.53806766096294737423485544203773
147,8644.73944256646044237709424527096063,8643.2,1.53944256646044237709424527096063
148,8762.74080814506856456508336462446592,8761.2,1.54080814506856456508336462446592
149,8881.54216452254075028217412802743570,8880.0,1.54216452254075028217412802743570
150,9001.14351182210402772513433524434476,8999.6,1.54351182210402772513433524434476
151,9121.54485016452625660007435894023235,9120.0,1.54485016452625660007435894023235
152,9242.74617966818114430120609158518538,9241.2,1.54617966818114430120609158518538
153,9364.74750044911112756150104921353607,9363.2,1.54750044911112756150104921353607
154,9487.54881262108820347448160800016000,9486.0,1.54881262108820347448160800016000
155,9611.15011629567278812313086595048989,9609.6,1.55011629567278812313086595048989
156,9735.55141158227068068227632393336342,9734.0,1.55141158227068068227632393336342
157,9860.75269858818820404104223680057902,9859.2,1.55269858818820404104223680057902
158,9986.75397741868559376346463495368588,9985.2,1.55397741868559376346463495368588
159,10113.5552481770286990600939371427349,10112.0,1.5552481770286990600939371427349
160,10241.1565109645390621081156429747834,10239.6,1.5565109645390621081156429747834
161,10369.5577658806424342161004267076930,10368.0,1.5577658806424342161004267076930
162,10498.7590130229157882944761739348938,10497.2,1.5590130229157882944761739348938
163,10628.7602524871328824850120995602955,10627.2,1.5602524871328824850120995602955
164,10759.5614843673084295859019672550372,10758.0,1.5614843673084295859019672550372
165,10891.1627087557409208726556331031107,10889.6,1.5627087557409208726556331031107
166,11023.5639257430541548303795067938091,11022.0,1.5639257430541548303795067938091
167,11156.7651354182375180297579583364630,11155.2,1.5651354182375180297579583364630
168,11290.7663378686850608356422818561597,11289.2,1.5663378686850608356422818561597
169,11425.5675331802334130103300160817733,11424.0,1.5675331802334130103300160817733
170,11561.1687214371985789546445189412777,11559.6,1.5687214371985789546445189412777
171,11697.5699027224116527812686000785017,11696.0,1.5699027224116527812686000785017
172,11834.7710771172534910869845054884814,11833.2,1.5710771172534910869845054884814
173,11972.7722447016883788261449916436316,11971.2,1.5722447016883788261449916436316
174,12111.5734055542967241288844026082872,12110.0,1.5734055542967241288844026082872
175,12251.1745597523068160489975921871245,12249.6,1.5745597523068160489975921871245
176,12391.5757073716256749478347718681409,12390.0,1.5757073716256749478347718681409
177,12532.7768484868690287747454426075961,12531.2,1.5768484868690287747454426075961
178,12674.7779831713904443984635122810644,12673.2,1.5779831713904443984635122810644
179,12817.5791114973096404343758359219940,12816.0,1.5791114973096404343758359219940
180,12961.1802335355400125140697442459542,12959.6,1.5802335355400125140697442459542
181,13105.5813493558153936457427091852267,13104.0,1.5813493558153936457427091852267
182,13250.7824590267160773608567433561020,13249.2,1.5824590267160773608567433561020
183,13396.7835626156941266963096340188780,13395.2,1.5835626156941266963096340188780
184,13543.5846601890979932536562769799575,13542.0,1.5846601890979932536562769799575
185,13691.1857518121964681435035166412466,13689.6,1.5857518121964681435035166412466
186,13839.5868375492019857836940182946858,13838.0,1.5868375492019857836940182946858
187,13988.7879174632933043517780384968567,13987.2,1.5879174632933043517780384968567
188,14138.7889916166375783280854829770962,14137.2,1.5889916166375783280854829770962
189,14289.5900600704118468604859274377621,14288.0,1.5900600704118468604859274377621
190,14441.1911228848239536019111247198962,14439.6,1.5911228848239536019111247198962
191,14593.5921801191329172431894322410931,14592.0,1.5921801191329172431894322410931
192,14746.7932318316687691233910774272966,14745.2,1.5932318316687691233910774272966
193,14900.7942780798518762215296307737336,14899.2,1.5942780798518762215296307737336
194,15055.5953189202117628703978966294016,15054.0,1.5953189202117628703978966294016
195,15211.1963544084054491248946064821116,15209.6,1.5963544084054491248946064821116
196,15367.5973845992353194767369882467095,15366.0,1.5973845992353194767369882467095
197,15524.7984095466665362908770429703992,15523.2,1.5984095466665362908770429703992
198,15682.7994293038440121255972232569048,15681.2,1.5994293038440121255972232569048
199,15841.6004439231089537701361134921629,15840.0,1.6004439231089537701361134921629
200,16001.2014534560149919400401014541815,15999.6,1.6014534560149919400401014541815
201,16161.6024579533439076066563372748384,16160.0,1.6024579533439076066563372748384
202,16322.8034574651209683369153011276774,16321.2,1.6034574651209683369153011276774
203,16484.8044520406298852981209755338127,16483.2,1.6044520406298852981209755338127
204,16647.6054417284274025426490030048430,16646.0,1.6054417284274025426490030048430
205,16811.2064265763575285379021393286783,16809.6,1.6064265763575285379021393286783
206,16975.6074066315654229602592616869058,16974.0,1.6074066315654229602592616869058
207,17140.8083819405109446236826936595343,17139.2,1.6083819405109446236826936595343
208,17306.8093525489818747644278499785785,17305.2,1.6093525489818747644278499785785
209,17473.6103185021068214247245044893699,17472.0,1.6103185021068214247245044893699
210,17641.2112798443678164310684199168623,17639.6,1.6112798443678164310684199168623
211,17809.6122366196126123261221576930944,17808.0,1.6122366196126123261221576930944
212,17978.8131888710666894813898625402887,17977.2,1.6131888710666894813898625402887
213,18148.8141366413449777685960825939426,18147.2,1.6141366413449777685960825939426
214,18319.6150799724633077654963065745885,18318.0,1.6150799724633077654963065745885
215,18491.2160189058495907023881007296944,18489.6,1.6160189058495907023881007296944
216,18663.6169534823547411038181849239625,18662.0,1.6169534823547411038181849239625
217,18836.8178837422633460845663659926076,18835.2,1.6178837422633460845663659926076
218,19010.8188097253040902723951872454900,19009.2,1.6188097253040902723951872454900
219,19185.6197314706599396305422175453331,19184.0,1.6197314706599396305422175453331
220,19361.2206490169780966881217114751918,19359.6,1.6206490169780966881217114751918
221,19537.6215624023797250807676450670780,19536.0,1.6215624023797250807676450670780
222,19714.8224716644694605989248163935278,19713.2,1.6224716644694605989248163935278
223,19892.8233768403447023046616674082592,19891.2,1.6233768403447023046616674082592
224,20071.6242779666046987763457805803042,20070.0,1.6242779666046987763457805803042
225,20251.2251750793594320377685447674330,20249.6,1.6251750793594320377685447674330
226,20431.6260682142383027097039863707203,20430.0,1.6260682142383027097039863707203
227,20612.8269574063986250267929856165286,20611.2,1.6269574063986250267929856165286
228,20794.8278426905339335299985735861406,20793.2,1.6278426905339335299985735861406
229,20977.6287241008821085868216239887801,20976.0,1.6287241008821085868216239887801
230,21161.2296016712333254255608105147183,21159.6,1.6296016712333254255608105147183
231,21345.6304754349378284729278948048827,21344.0,1.6304754349378284729278948048827
232,21530.8313454249135414039790864161780,21529.2,1.6313454249135414039790864161780
233,21716.8322116736535078899095340039015,21715.2,1.6322116736535078899095340039015
234,21903.6330742132331791898188232070542,21902.0,1.6330742132331791898188232070542
235,22091.2339330753175417575903509484924,22089.6,1.6339330753175417575903509484924
236,22279.6347882911680945626970391262182,22278.0,1.6347882911680945626970391262182
237,22468.8356398916496797451051059069608,22467.2,1.6356398916496797451051059069608
238,22658.8364879072371683353315896119610,22657.2,1.6364879072371683353315896119610
