Eigenstate,Energy,Kinetic Energy,Potential Energy
1,0.500000000892896713320495493043761359,0.0,0.500000000892896713320495493043761359
2,1.84623094347963524052145988867183431,1.2,0.64623094347963524052145988867183431
3,3.93633762682649694996946627514468337,3.2,0.73633762682649694996946627514468337
4,6.79966531347844565046267969548554020,6.0,0.79966531347844565046267969548554020
5,10.4480466370678781279205912237300188,9.6,0.8480466370678781279205912237300188
6,14.8870660924811581209009460024807243,14.0,0.8870660924811581209009460024807243
7,20.1197209612205187860509195356482248,19.2,0.9197209612205187860509195356482248
8,26.1477840296991946019724720977435444,25.2,0.9477840296991946019724720977435444
9,32.9723837969472325236663202258674144,32.0,0.9723837969472325236663202258674144
10,40.5942805171309804495412096613063751,39.6,0.9942805171309804495412096613063751
11,49.0140097604063365407491775350771644,48.0,1.0140097604063365407491775350771644
12,58.2319626220914414764568371221316626,57.2,1.0319626220914414764568371221316626
13,68.2484332322651210813919864866111672,67.2,1.0484332322651210813919864866111672
14,79.0636482886235387550939731746784777,78.0,1.0636482886235387550939731746784777
15,90.6777861722946777805705363723108517,89.6,1.0777861722946777805705363723108517
16,103.090989752708974578782068347525769,102.0,1.090989752708974578782068347525769
17,116.303375221060946873974257728094953,115.2,1.103375221060946873974257728094953
18,130.315038341315477621555633938798276,129.2,1.115038341315477621555633938798276
19,145.126058973311852227710977393405055,144.0,1.126058973311852227710977393405055
20,160.736504410397738447859415714537667,159.6,1.136504410397738447859415714537667
21,177.146431885510916286095162712249058,176.0,1.146431885510916286095162712249058
22,194.355890482338043570725681355890015,193.2,1.155890482338043570725681355890015
23,212.364922613251201036342070689069074,211.2,1.164922613251201036342070689069074
24,231.173565176708331410441974152670874,230.0,1.173565176708331410441974152670874
25,250.781850474049180269570083329890964,249.6,1.181850474049180269570083329890964
26,271.189806943302896513412366856326568,270.0,1.189806943302896513412366856326568
27,292.397459752150619694219417006866254,291.2,1.197459752150619694219417006866254
28,314.404831281284530487059178971057509,313.2,1.204831281284530487059178971057509
29,337.211941521609812666188808471191730,336.0,1.211941521609812666188808471191730
30,360.818808403086487314248068548365340,359.6,1.218808403086487314248068548365340
31,385.225448068862141441582782811883953,384.0,1.225448068862141441582782811883953
32,410.431875105268673572733366186125084,409.2,1.231875105268673572733366186125084
33,436.438102735946531027074795284043996,435.2,1.238102735946531027074795284043996
34,463.244142986609367335339995522563310,462.0,1.244142986609367335339995522563310
35,490.850006825622853153854360367733188,489.6,1.250006825622853153854360367733188
36,519.255704284537895149099434368896588,518.0,1.255704284537895149099434368896588
37,548.461244561914432768649691373182533,547.2,1.261244561914432768649691373182533
38,578.466636113141564065242699166061351,577.2,1.266636113141564065242699166061351
39,609.271886728461903086521372219490986,608.0,1.271886728461903086521372219490986
40,640.877003601012250555816488052424802,639.6,1.277003601012250555816488052424802
41,673.281993386375909292812695992066369,672.0,1.281993386375909292812695992066369
42,706.486862254886983219264068297808547,705.2,1.286862254886983219264068297808547
43,740.491615937720512448322097477255521,739.2,1.291615937720512448322097477255521
44,775.296259767634202939229894102999686,774.0,1.296259767634202939229894102999686
45,810.900798715089939629128875705128152,809.6,1.300798715089939629128875705128152
46,847.305237420370135670362370636520852,846.0,1.305237420370135670362370636520852
47,884.509580222210493788741202275582549,883.2,1.309580222210493788741202275582549
48,922.513831183393169413557690369418278,921.2,1.313831183393169413557690369418278
49,961.317994113679662685926253618496482,960.0,1.317994113679662685926253618496482
50,1000.92207259040864373816234344266136,999.6,1.32207259040864373816234344266136
51,1041.32606997703844867431345409747455,1040.0,1.32606997703844867431345409747455
52,1082.52998943987563846759126598005273,1081.2,1.32998943987563846759126598005273
53,1124.53383396319856287190513404290165,1123.2,1.33383396319856287190513404290165
54,1167.33760636295731031328600763897136,1166.0,1.33760636295731031328600763897136
55,1210.94130929920794923456185165805938,1209.6,1.34130929920794923456185165805938
56,1255.34494528741889179664153374268677,1254.0,1.34494528741889179664153374268677
57,1300.54851670877001187479734370041576,1299.2,1.34851670877001187479734370041576
58,1346.55202581955035210222789639135852,1345.2,1.35202581955035210222789639135852
59,1393.35547475974750076610743944375458,1392.0,1.35547475974750076610743944375458
60,1440.95886556091069485385762159106405,1439.6,1.35886556091069485385762159106405
61,1489.36220015336014132011851928562282,1488.0,1.36220015336014132011851928562282
62,1538.56548037280674764005192741329883,1537.2,1.36548037280674764005192741329883
63,1588.56870796643921082587182610168179,1587.2,1.36870796643921082587182610168179
64,1639.37188459852910160387991687527184,1638.0,1.37188459852910160387991687527184
65,1690.97501185559904560963248498128408,1689.6,1.37501185559904560963248498128408
66,1743.37809125119425612014304828362118,1742.0,1.37809125119425612014304828362118
67,1796.58112423029341055105450693878077,1795.2,1.38112423029341055105450693878077
68,1850.58411217339110678627204002683199,1849.2,1.38411217339110678627204002683199
69,1905.38705640028082273720966267225955,1904.0,1.38705640028082273720966267225955
70,1960.98995817356437426092817500442074,1959.6,1.38995817356437426092817500442074
71,2017.39281870191126786314184826011826,2016.0,1.39281870191126786314184826011826
72,2074.59563914308904637010739795318751,2073.2,1.39563914308904637010739795318751
73,2132.59842060678367274746783960823778,2131.2,1.39842060678367274746783960823778
74,2191.40116415722717839602422550366327,2190.0,1.40116415722717839602422550366327
75,2251.00387081564817115379766133495256,2249.6,1.40387081564817115379766133495256
76,2311.40654156255934867747875763913028,2310.0,1.40654156255934867747875763913028
77,2372.60917733989486047847144267227238,2371.2,1.40917733989486047847144267227238
78,2434.61177905300919609108832498995607,2433.2,1.41177905300919609108832498995607
79,2497.41434757254823003102220547434018,2496.0,1.41434757254823003102220547434018
80,2561.01688373620211607714521465240490,2559.6,1.41688373620211607714521465240490
81,2625.41938835034887406881514785153200,2624.0,1.41938835034887406881514785153200
82,2690.62186219159675096092664843992168,2689.2,1.42186219159675096092664843992168
83,2756.62430600823274914579800446806285,2755.2,1.42430600823274914579800446806285
84,2823.42672052158409075993056691633158,2822.0,1.42672052158409075993056691633158
85,2891.02910642729882741819576422175001,2889.6,1.42910642729882741819576422175001
86,2959.43146439655128895331595035132996,2958.0,1.43146439655128895331595035132996
87,3028.63379507717760726846044542408167,3027.2,1.43379507717760726846044542408167
88,3098.63609909474612803379098193978010,3097.2,1.43609909474612803379098193978010
89,3169.43837705356713945642588401819426,3168.0,1.43837705356713945642588401819426
90,3241.04062953764600413739097381586813,3239.6,1.44062953764600413739097381586813
91,3313.44285711158345857791375479286080,3312.0,1.44285711158345857791375479286080
92,3386.64506032142655660077148487301381,3385.2,1.44506032142655660077148487301381
93,3460.64723969547347069825269840322955,3459.2,1.44723969547347069825269840322955
94,3535.44939574503512239051051644062474,3534.0,1.44939574503512239051051644062474
95,3611.05152896515639152503666146435305,3609.6,1.45152896515639152503666146435305
96,3687.45363983529945262688515561580781,3686.0,1.45363983529945262688515561580781
97,3764.65572881999160206823638156930096,3763.2,1.45572881999160206823638156930096
98,3842.65779636943976695267719059868110,3841.2,1.45779636943976695267719059868110
99,3921.45984292011373313854151324097892,3920.0,1.45984292011373313854151324097892
100,4001.06186889529998348641069826899464,3999.6,1.46186889529998348641069826899464
101,4081.46387470562790811295348528344944,4080.0,1.46387470562790811295348528344944
102,4162.66586074957002285983488895619351,4161.2,1.46586074957002285983488895619351
103,4244.66782741391772427413672386570773,4243.2,1.46782741391772427413672386570773
104,4327.46977507423400213340236949640230,4326.0,1.46977507423400213340236949640230
105,4411.07170409528443747608047158267494,4409.6,1.47170409528443747608047158267494
106,4495.47361483144772333539061887215640,4494.0,1.47361483144772333539061887215640
107,4580.67550762710686729421958227338421,4579.2,1.47550762710686729421958227338421
108,4666.67738281702215574070643095976236,4665.2,1.47738281702215574070643095976236
109,4753.47924072668689111230645145778101,4752.0,1.47924072668689111230645145778101
110,4841.08108167266685099773325075678678,4839.6,1.48108167266685099773325075678678
111,4929.48290596292435210678148214441066,4928.0,1.48290596292435210678148214441066
112,5018.68471389712775268627407739203269,5017.2,1.48471389712775268627407739203269
113,5108.68650576694717142653814635790187,5107.2,1.48650576694717142653814635790187
114,5199.48828185633715214707860657573213,5198.0,1.48828185633715214707860657573213
115,5291.09004244180696310373683508353141,5289.6,1.49004244180696310373683508353141
116,5383.49178779267917143016786433489555,5382.0,1.49178779267917143016786433489555
117,5476.69351817133710151575127160596639,5475.2,1.49351817133710151575127160596639
118,5570.69523383346174509333093154896712,5569.2,1.49523383346174509333093154896712
119,5665.49693502825865709894321379470187,5664.0,1.49693502825865709894321379470187
120,5761.09862199867534552604520397803941,5759.6,1.49862199867534552604520397803941
121,5857.50029498160962523220661642446741,5856.0,1.50029498160962523220661642446741
122,5954.70195420810938674589675267172637,5953.2,1.50195420810938674589675267172637
123,6052.70359990356419893100525662881258,6051.2,1.50359990356419893100525662881258
124,6151.50523228788914668996389905039245,6150.0,1.50523228788914668996389905039245
125,6251.10685157570127532326571079212181,6249.6,1.50685157570127532326571079212181
126,6351.50845797648899796919652349056907,6350.0,1.50845797648899796919652349056907
127,6452.71005169477480197316212327593998,6451.2,1.51005169477480197316212327593998
128,6554.71163293027156745243049937536391,6553.2,1.51163293027156745243049937536391
129,6657.51320187803279925262472354912413,6656.0,1.51320187803279925262472354912413
130,6761.11475872859705511437898226502813,6759.6,1.51475872859705511437898226502813
131,6865.51630366812683746855871001915473,6864.0,1.51630366812683746855871001915473
132,6970.71783687854220130554152965690059,6969.2,1.51783687854220130554152965690059
133,7076.71935853764931878692942733408957,7075.2,1.51935853764931878692942733408957
134,7183.52086881926422999682127643851649,7182.0,1.52086881926422999682127643851649
135,7291.12236789333199112629789177209683,7289.6,1.52236789333199112629789177209683
136,7399.52385592604142770236085731829763,7398.0,1.52385592604142770236085731829763
137,7508.72533307993568716997784362758419,7507.2,1.52533307993568716997784362758419
138,7618.72679951401877152947835691161859,7617.2,1.52679951401877152947835691161859
139,7729.52825538385822863148912535501871,7728.0,1.52825538385822863148912535501871
140,7841.12970084168416529174946709887057,7839.6,1.52970084168416529174946709887057
141,7953.53113603648474083704781924809538,7952.0,1.53113603648474083704781924809538
142,8066.73256111409829162697664131306479,8065.2,1.53256111409829162697664131306479
143,8180.73397621730222845302058244401035,8179.2,1.53397621730222845302058244401035
144,8295.53538148589884154422859022796177,8294.0,1.53538148589884154422859022796177
145,8411.13677705679814372863121266212082,8409.6,1.53677705679814372863121266212082
146,8527.53816306409787443889822652184653,8526.0,1.53816306409787443889822652184653
147,8644.73953963916077905620069429734045,8643.2,1.53953963916077905620069429734045
148,8762.74090691068927913706154209137759,8761.2,1.54090691068927913706154209137759
149,8881.54226500479763554920938464437079,8880.0,1.54226500479763554920938464437079
150,9001.14361404508170839208278283895513,8999.6,1.54361404508170839208278283895513
151,9121.54495415268640986125726397210750,9120.0,1.54495415268640986125726397210750
152,9242.74628544637094061167407322969685,9241.2,1.54628544637094061167407322969685
153,9364.74760804257189883635179318292635,9363.2,1.54760804257189883635179318292635
154,9487.54892205546434623859772665644738,9486.0,1.54892205546434623859772665644738
155,9611.15022759702090942491066549667642,9609.6,1.55022759702090942491066549667642
156,9735.55152477706899488918193699247844,9734.0,1.55152477706899488918193699247844
157,9860.75281370334618895269420289971760,9859.2,1.55281370334618895269420289971760
158,9986.75409448155391481036249639620394,9985.2,1.55409448155391481036249639620394
159,10113.5553672154094107034836781768717,10112.0,1.5553672154094107034836781768717
160,10241.1566320066960959199092933972564,10239.6,1.5566320066960959199092933972564
161,10369.5578889553123834978764182914124,10368.0,1.5578889553123834978764182914124
162,10498.7591381593189994923216346089633,10497.2,1.5591381593189994923216346089633
163,10628.7603797149848640732494778990772,10627.2,1.5603797149848640732494778990772
164,10759.5616137168315895285743824576111,10758.0,1.5616137168315895285743824576111
165,10891.1628402576766442280160412691696,10889.6,1.5628402576766442280160412691696
166,11023.5640594286752335416771426812438,11022.0,1.5640594286752335416771426812438
167,11156.7652713193609454465253726976905,11155.2,1.5652713193609454465253726976905
168,11290.7664760176852040346523122077112,11289.2,1.5664760176852040346523122077112
169,11425.5676736100555765357513993581479,11424.0,1.5676736100555765357513993581479
170,11561.1688641813729741740890387835812,11559.6,1.5688641813729741740890387835812
171,11697.5700478150677876598519664499516,11696.0,1.5700478150677876598519664499516
172,11834.7712245931349958167828772065372,11833.2,1.5712245931349958167828772065372
173,11972.7723945961682834152152421353244,11971.2,1.5723945961682834152152421353244
174,12111.5735579033932047540983958008773,12110.0,1.5735579033932047540983958008773
175,12251.1747145926994277121970858408150,12249.6,1.5747145926994277121970858408150
176,12391.5758647406720887472555290813827,12390.0,1.5758647406720887472555290813827
177,12532.7770084226222929154285582127035,12531.2,1.5770084226222929154285582127035
178,12674.7781457126167889187665340423585,12673.2,1.5781457126167889187665340423585
179,12817.5792766835068465230759242425665,12816.0,1.5792766835068465230759242425665
180,12961.1804014069563682365955197143115,12959.6,1.5804014069563682365955197143115
181,13105.5815199534692588914278387253753,13104.0,1.5815199534692588914278387253753
182,13250.7826323924160818687801685492384,13249.2,1.5826323924160818687801685492384
183,13396.7837387920600261184102243738923,13395.2,1.5837387920600261184102243738923
184,13543.5848392195822093736554534639545,13542.0,1.5848392195822093736554534639545
185,13691.1859337411063405923998682407104,13689.6,1.5859337411063405923998682407104
186,13839.5870224217227638809289967431687,13838.0,1.5870224217227638809289967431687
187,13988.7881053255119090597564677844034,13987.2,1.5881053255119090597564677844034
188,14138.7891825155671657408774243173308,14137.2,1.5891825155671657408774243173308
189,14289.5902540540172061599153492524427,14288.0,1.5902540540172061599153492524427
190,14441.1913200020477740108235041946091,14439.6,1.5913200020477740108235041946091
191,14593.5923804199229601918347095158421,14592.0,1.5923804199229601918347095158421
192,14746.7934353670059836262581236172781,14745.2,1.5934353670059836262581236172781
193,14900.7944849017794973447642806352592,14899.2,1.5944849017794973447642806352592
194,15055.5955290818654351606977433260951,15054.0,1.5955290818654351606977433260951
195,15211.1965679640444189765208172097663,15209.6,1.5965679640444189765208172097663
196,15367.5976016042747426416196625940515,15366.0,1.5976016042747426416196625940515
197,15524.7986300577109490958006269776666,15523.2,1.5986300577109490958006269776666
198,15682.7996533787220174588862536208336,15681.2,1.5996533787220174588862536208336
199,15841.6006716209091755475047536400939,15840.0,1.6006716209091755475047536400939
200,16001.2016848371233545653717055220908,15999.6,1.6016848371233545653717055220908
201,16161.6026930794822999193593805062164,16160.0,1.6026930794822999193593805062164
202,16322.8036963993873546948377656170634,16321.2,1.6036963993873546948377656170634
203,16484.8046948475399297963519968926342,16483.2,1.6046948475399297963519968926342
204,16647.6056884739576759275602078439459,16646.0,1.6056884739576759275602078439459
205,16811.2066773279903711570532344185872,16809.6,1.6066773279903711570532344185872
206,16975.6076614583355411082289395974532,16974.0,1.6076614583355411082289395974532
207,17140.8086409130538219184682732422320,17139.2,1.6086409130538219184682732422320
208,17306.8096157395840847373061814180825,17305.2,1.6096157395840847373061814180825
209,17473.6105859847583323484114089340359,17472.0,1.6105859847583323484114089340359
210,17641.2115516948163845680565857743804,17639.6,1.6115516948163845680565857743804
211,17809.6125129154203652749114722966330,17808.0,1.6125129154203652749114722966330
212,17978.8134696916690071580100677792875,17977.2,1.6134696916690071580100677792875
213,18148.8144220681117848120445749953419,18147.2,1.6144220681117848120445749953419
214,18319.6153700887628978282107263879607,18318.0,1.6153700887628978282107263879607
215,18491.2163137971151102130001837354077,18489.6,1.6163137971151102130001837354077
216,18663.6172532361534677044808205982653,18662.0,1.6172532361534677044808205982653
217,18836.8181884483689050871975981239819,18835.2,1.6181884483689050871975981239819
218,19010.8191194757717611890417700067670,19009.2,1.6191194757717611890417700067670
219,19185.6200463599052141579065330021424,19184.0,1.6200463599052141579065330021424
220,19361.2209691418586595145899319757320,19359.6,1.6209691418586595145899319757320
221,19537.6218878622810395898946139331056,19536.0,1.6218878622810395898946139331056
222,19714.8228025613941530249699321554036,19713.2,1.6228025613941530249699321554036
223,19892.8237132790059502177987726048289,19891.2,1.6237132790059502177987726048289
224,20071.6246200545238430076496309095093,20070.0,1.6246200545238430076496309095093
225,20251.2255229269680453739504687973261,20249.6,1.6255229269680453739504687973261
226,20431.6264219349849639788547801777450,20430.0,1.6264219349849639788547801777450
227,20612.8273171168606636513332444528758,20611.2,1.6273171168606636513332444528758
228,20794.8282085105344273428179620370538,20793.2,1.6282085105344273428179620370538
229,20977.6290961536124368021656327767055,20976.0,1.6290961536124368021656327767055
230,21161.2299800833815992497589981308834,21159.6,1.6299800833815992497589981308834
231,21345.6308603368235440656881625422005,21344.0,1.6308603368235440656881625422005
232,21530.8317369506288239066605524364658,21529.2,1.6317369506288239066605524364658
233,21716.8326099612113411857372342662583,21715.2,1.6326099612113411857372342662583
234,21903.6334794047230441322576011724245,21902.0,1.6334794047230441322576011724245
235,22091.2343453170689159955437288230596,22089.6,1.6343453170689159955437288230596
236,22279.6352077339223000243043409007308,22278.0,1.6352077339223000243043409007308
237,22468.8360666907405995586035359058877,22467.2,1.6360666907405995586035359058877
238,22658.8369222227813937347802213809105,22657.2,1.6369222227813937347802213809105
