Eigenstate,Energy,Kinetic Energy,Potential Energy
1,0.500000000268876869948498335011308970,0.0,0.500000000268876869948498335011308970
2,1.84623093940621919570474505564134631,1.2,0.64623093940621919570474505564134631
3,3.93633761486052876249327897632052218,3.2,0.73633761486052876249327897632052218
4,6.79966528855288161792149144851526474,6.0,0.79966528855288161792149144851526474
5,10.4480465938876858790082537644393845,9.6,0.8480465938876858790082537644393845
6,14.8870660256560893500472463250034081,14.0,0.8870660256560893500472463250034081
7,20.1197208653136138417882905022834154,19.2,0.9197208653136138417882905022834154
8,26.1477838992466259243307151877600093,25.2,0.9477838992466259243307151877600093
9,32.9723836264671775087312411195819402,32.0,0.9723836264671775087312411195819402
10,40.5942803011277975827852204443939644,39.6,0.9942803011277975827852204443939644
11,49.0140094933725294306977757482983848,48.0,1.0140094933725294306977757482983848
12,58.2319622985084945131178657348765494,57.2,1.0319622985084945131178657348765494
13,68.2484328466037196512826386040406696,67.2,1.0484328466037196512826386040406696
14,79.0636478353434340892755214615609545,78.0,1.0636478353434340892755214615609545
15,90.6777856458443362140579269027577911,89.6,1.0777856458443362140579269027577911
16,103.090989147525090163714828170826160,102.0,1.090989147525090163714828170826160
17,116.303374531567863862687850908937224,115.2,1.103374531567863862687850908937224
18,130.315037561924551245341056081512123,129.2,1.115037561924551245341056081512123
19,145.126058098420765693804797872406745,144.0,1.126058098420765693804797872406745
20,160.736503434389787760894466750922896,159.6,1.136503434389787760894466750922896
21,177.146430802754270581510891496280641,176.0,1.146430802754270581510891496280641
22,194.355889287184986147731518529149136,193.2,1.155889287184986147731518529149136
23,212.364921300037354642796272202561258,211.2,1.164921300037354642796272202561258
24,231.173563739751870237849413940893917,230.0,1.173563739751870237849413940893917
25,250.781848907650030368993621771314564,249.6,1.181848907650030368993621771314564
26,271.189805241741925822764262664465281,270.0,1.189805241741925822764262664465281
27,292.397457909688818498734785790806382,291.2,1.197457909688818498734785790806382
28,314.404829292162182869221424498135334,313.2,1.204829292162182869221424498135334
29,337.211939380045659307134905318037168,336.0,1.211939380045659307134905318037168
30,360.818806103276879864467296102478364,359.6,1.218806103276879864467296102478364
31,385.225445604980188570100460165022865,384.0,1.225445604980188570100460165022865
32,410.431872471463378720995796206458945,409.2,1.231872471463378720995796206458945
33,436.438099926341921829468838387774483,435.2,1.238099926341921829468838387774483
34,463.244139995303616617767167211040450,462.0,1.244139995303616617767167211040450
35,490.850003646687391381505198187332852,489.6,1.250003646687391381505198187332852
36,519.255700912016514161980595321432012,518.0,1.255700912016514161980595321432012
37,548.461240989822380616624121302328529,547.2,1.261240989822380616624121302328529
38,578.466632335464630731966945923055017,577.2,1.266632335464630731966945923055017
39,609.271882739155496872660725625995505,608.0,1.271882739155496872660725625995505
40,640.876999394000464875505928869419363,639.6,1.276999394000464875505928869419363
41,673.281988955550579622912435007080252,672.0,1.281988955550579622912435007080252
42,706.486857594106733928072891826461159,705.2,1.286857594106733928072891826461159
43,740.491611040809793218706553100661401,739.2,1.291611040809793218706553100661401
44,775.296254628382314490323088788845657,774.0,1.296254628382314490323088788845657
45,810.900793327250048430635573837773213,809.6,1.300793327250048430635573837773213
46,847.305231777658277333897732789196733,846.0,1.305231777658277333897732789196733
47,884.509574318304564811397551124479030,883.2,1.309574318304564811397551124479030
48,922.513825011931906939920664324380649,921.2,1.313825011931906939920664324380649
49,961.317987668261611945959725938768013,960.0,1.317987668261611945959725938768013
50,1000.92206586459111280967826174159061,999.6,1.32206586459111280967826174159061
51,1041.32606296433645021007126821362629,1040.0,1.32606296433645021007126821362629
52,1082.52998213376081801838723035069874,1081.2,1.32998213376081801838723035069874
53,1124.53382635709811342826611416437695,1123.2,1.33382635709811342826611416437695
54,1167.33759845025287267953925976710769,1166.0,1.33759845025287267953925976710769
55,1210.94130107323449784008082305854122,1209.6,1.34130107323449784008082305854122
56,1255.34493674146360553993935031907170,1254.0,1.34493674146360553993935031907170
57,1300.54850783607112958682843982262927,1299.2,1.34850783607112958682843982262927
58,1346.55201661329601220574127983698706,1345.2,1.35201661329601220574127983698706
59,1393.35546521307456469815620780824879,1392.0,1.35546521307456469815620780824879
60,1440.95885566690355380858340789460109,1439.6,1.35885566690355380858340789460109
61,1489.36218990504950585868391057220394,1488.0,1.36218990504950585868391057220394
62,1538.56546976316841970406842238913519,1537.2,1.36546976316841970406842238913519
63,1588.56869698839283767985374403174648,1587.2,1.36869698839283767985374403174648
64,1639.37187324493691122112602423779766,1638.0,1.37187324493691122112602423779766
65,1690.97500011926456300448339521232767,1689.6,1.37500011926456300448339521232767
66,1743.37807912486100011777138305563548,1742.0,1.37807912486100011777138305563548
67,1796.58111170664357047379765241149197,1795.2,1.38111170664357047379765241149197
68,1850.58409924504419852300218501004435,1849.2,1.38409924504419852300218501004435
69,1905.38704305979232364933388841704312,1904.0,1.38704305979232364933388841704312
70,1960.98994441342433636531754338815355,1959.6,1.38994441342433636531754338815355
71,2017.39280451454290871857031360530981,2016.0,1.39280451454290871857031360530981
72,2074.59562452084731707964418021033701,2073.2,1.39562452084731707964418021033701
73,2132.59840554195380247467446884709557,2131.2,1.39840554195380247467446884709557
74,2191.40114864202319477776147893588030,2190.0,1.40114864202319477776147893588030
75,2251.00385484221139597691560746519910,2249.6,1.40385484221139597691560746519910
76,2311.40652512295686817064279123108779,2310.0,1.40652512295686817064279123108779
77,2372.60916042611796955383591372720116,2371.2,1.40916042611796955383591372720116
78,2434.61176165697181585346113857186572,2433.2,1.41176165697181585346113857186572
79,2497.41432968608529785454180324753157,2496.0,1.41432968608529785454180324753157
80,2561.01686535106794753130247779554726,2559.6,1.41686535106794753130247779554726
81,2625.41936945821549595686744229444437,2624.0,1.41936945821549595686744229444437
82,2690.62184278405220471435800367659908,2689.2,1.42184278405220471435800367659908
83,2756.62428607677936379845159513841226,2755.2,1.42428607677936379845159513841226
84,2823.42670005763672470475568224562622,2822.0,1.42670005763672470475568224562622
85,2891.02908542218307812818276903275248,2889.6,1.42908542218307812818276903275248
86,2959.43144284150166982613056516129408,2958.0,1.43144284150166982613056516129408
87,3028.63377296333569073148018334835446,3027.2,1.43377296333569073148018334835446
88,3098.63607641315865402269583343097729,3097.2,1.43607641315865402269583343097729
89,3169.43835379518408835615667179641150,3168.0,1.43835379518408835615667179641150
90,3241.04060569331863324913052425596523,3239.6,1.44060569331863324913052425596523
91,3313.44283267206230114975738138436072,3312.0,1.44283267206230114975738138436072
92,3386.64503527735938243287879725768413,3385.2,1.44503527735938243287879725768413
93,3460.64721403740320730550433202425251,3459.2,1.44721403740320730550433202425251
94,3535.44936946339773567697627676530909,3534.0,1.44936946339773567697627676530909
95,3611.05150205027872489487453489376853,3609.6,1.45150205027872489487453489376853
96,3687.45361227739702342559642863006230,3686.0,1.45361227739702342559642863006230
97,3764.65570060916635421644808246323617,3763.2,1.45570060916635421644808246323617
98,3842.65776749567777860179658728899474,3841.2,1.45776749567777860179658728899474
99,3921.45981337328287814365690181651067,3920.0,1.45981337328287814365690181651067
100,4001.06183866514754545667878036532659,3999.6,1.46183866514754545667878036532659
101,4081.46384378177814576335825984432787,4080.0,1.46384378177814576335825984432787
102,4162.66582912152168535058603992159177,4161.2,1.46582912152168535058603992159177
103,4244.66779507104151518504469376780655,4243.2,1.46779507104151518504469376780655
104,4327.46974200576999068026884467558170,4326.0,1.46974200576999068026884467558170
105,4411.07167029033941553443552606243382,4409.6,1.47167029033941553443552606243382
106,4495.47358027899250679372152257370767,4494.0,1.47358027899250679372152257370767
107,4580.67547231597354021412226248645144,4579.2,1.47547231597354021412226248645144
108,4666.67734673590125575508373735742744,4665.2,1.47734673590125575508373735742744
109,4753.47920386412453444477961015843629,4752.0,1.47920386412453444477961015843629
110,4841.08104401706179543675203372149266,4839.6,1.48104401706179543675203372149266
111,4929.48286750252499621645206157201820,4928.0,1.48286750252499621645206157201820
112,5018.68467462002906948259457407186730,5017.2,1.48467462002906948259457407186730
113,5108.68646566108757469246310280903242,5107.2,1.48646566108757469246310280903242
114,5199.48824090949529350255920606139635,5198.0,1.48824090949529350255920606139635
115,5291.09000064159845788750236777712704,5289.6,1.49000064159845788750236777712704
116,5383.49174512655325138845487741669786,5382.0,1.49174512655325138845487741669786
117,5476.69347462657319222935297419876588,5475.2,1.49347462657319222935297419876588
118,5570.69518939716596600813927665752477,5569.2,1.49518939716596600813927665752477
119,5665.49688968736024195648817171121800,5664.0,1.49688968736024195648817171121800
120,5761.09857573992298091930061778401125,5759.6,1.49857573992298091930061778401125
121,5857.50024779156770493801588341251521,5856.0,1.50024779156770493801588341251521
122,5954.70190607315417940867456567034174,5953.2,1.50190607315417940867456567034174
123,6052.70355080987992659275095897190459,6051.2,1.50355080987992659275095897190459
124,6151.50518222146397157898391028866263,6150.0,1.50518222146397157898391028866263
125,6251.10680052232319222819266387084341,6249.6,1.50680052232319222819266387084341
126,6351.50840592174162943578257066860787,6350.0,1.50840592174162943578257066860787
127,6452.70999862403309346878270561882188,6451.2,1.50999862403309346878270561882188
128,6554.71157882869737954708439116984490,6553.2,1.51157882869737954708439116984490
129,6657.51314673057039376533613399005268,6656.0,1.51314673057039376533613399005268
130,6761.11470251996847207010031536087446,6759.6,1.51470251996847207010031536087446
131,6865.51624638282715960278398356203215,6864.0,1.51624638282715960278398356203215
132,6970.71777850083470274167784922162876,6969.2,1.51777850083470274167784922162876
133,7076.71929905156049439487199617532031,7075.2,1.51929905156049439487199617532031
134,7183.52080820857870181988771886084955,7182.0,1.52080820857870181988771886084955
135,7291.12230614158728813754250824397881,7289.6,1.52230614158728813754250824397881
136,7399.52379301652263502005848139694729,7398.0,1.52379301652263502005848139694729
137,7508.72526899566996072551149890447090,7507.2,1.52526899566996072551149890447090
138,7618.72673423776971403874679944464100,7617.2,1.52673423776971403874679944464100
139,7729.52818889812012257301224740299776,7728.0,1.52818889812012257301224740299776
140,7841.12963312867605844061913860794306,7839.6,1.52963312867605844061913860794306
141,7953.53106707814437974347400485245178,7952.0,1.53106707814437974347400485245178
142,8066.73249089207589826109256346425354,8065.2,1.53249089207589826109256346425354
143,8180.73390471295411506356179661587614,8179.2,1.53390471295411506356179661587614
144,8295.53530868028085859731199355347813,8294.0,1.53530868028085859731199355347813
145,8411.13670293065895560382911744079945,8409.6,1.53670293065895560382911744079945
146,8527.53808759787205736272369302180886,8526.0,1.53808759787205736272369302180886
147,8644.73946281296173554763243497409223,8643.2,1.53946281296173554763243497409223
148,8762.74082870430196302543243948556966,8761.2,1.54082870430196302543243948556966
149,8881.54218539767108140120741321639646,8880.0,1.54218539767108140120741321639646
150,9001.14353301632135895135928777401531,8999.6,1.54353301632135895135928777401531
151,9121.54487168104623486067701259635431,9120.0,1.54487168104623486067701259635431
152,9242.74620151024534006411845423071915,9241.2,1.54620151024534006411845423071915
153,9364.74752261998738364462911056403421,9363.2,1.54752261998738364462911056403421
154,9487.54883512407098868790253646547655,9486.0,1.54883512407098868790253646547655
155,9611.15013913408355583178021783145061,9609.6,1.55013913408355583178021783145061
156,9735.55143475945823237839944293784142,9734.0,1.55143475945823237839944293784142
157,9860.75272210752905801747511437952883,9859.2,1.55272210752905801747511437952883
158,9986.75400128358435898064754408514765,9985.2,1.55400128358435898064754408514765
159,10113.5552723909184543015978916287552,10112.0,1.5552723909184543015978916287552
160,10241.1565355308817405213875860782854,10239.6,1.5565355308817405213875860782854
161,10369.5577908029292133371021768256030,10368.0,1.5577908029292133371021768256030
162,10498.7590383046674856569079804880921,10497.2,1.5590383046674856569079804880921
163,10628.7602781319003569168771108821380,10627.2,1.5602781319003569168771108821380
164,10759.5615103786729882982823339627783,10758.0,1.5615103786729882982823339627783
165,10891.1627351373147324477373387337663,10889.6,1.5627351373147324477373387337663
166,11023.5639524984806682179785537550362,11022.0,1.5639524984806682179785537550362
167,11156.7651625511918876638733757622757,11155.2,1.5651625511918876638733757622757
168,11290.7663653828745779848877178518484,11289.2,1.5663653828745779848877178518484
169,11425.5675610793979434784780991686885,11424.0,1.5675610793979434784780991686885
170,11561.1687497251110072499603977346549,11559.6,1.5687497251110072499603977346549
171,11697.5699314028783328758085184900126,11696.0,1.5699314028783328758085184900126
172,11834.7711061941147038895995440120253,11833.2,1.5711061941147038895995440120253
173,11972.7722741788187964955535919753744,11971.2,1.5722741788187964955535919753744
174,12111.5734354356058813558689968834956,12110.0,1.5734354356058813558689968834956
175,12251.1745900417395884395365208826527,12249.6,1.5745900417395884395365208826527
176,12391.5757380731627646418075030217643,12390.0,1.5757380731627646418075030217643
177,12532.7768796045274574377424435887736,12531.2,1.5768796045274574377424435887736
178,12674.7780147092240537272020286437821,12673.2,1.5780147092240537272020286437821
179,12817.5791434594096003192647061852355,12816.0,1.5791434594096003192647061852355
180,12961.1802659260353370055854258801741,12959.6,1.5802659260353370055854258801741
181,13105.5813821788734648744752155907480,13104.0,1.5813821788734648744752155907480
182,13250.7824922865431775643635252009479,13249.2,1.5824922865431775643635252009479
183,13396.7835963165359785092764292536072,13395.2,1.5835963165359785092764292536072
184,13543.5846943352403084213108386637469,13542.0,1.5846943352403084213108386637469
185,13691.1857864079655048217637866718751,13689.6,1.5857864079655048217637866718751
186,13839.5868725989651145931557424671391,13838.0,1.5868725989651145931557424671391
187,13988.7879529714595833563673006622560,13987.2,1.5879529714595833563673006622560
188,14138.7890275876583371130145840976801,14137.2,1.5890275876583371130145840976801
189,14289.5900965087812798880646833311504,14288.0,1.5900965087812798880646833311504
190,14441.1911597950797230277788753174897,14439.6,1.5911597950797230277788753174897
191,14593.5922175058567653796518097793554,14592.0,1.5922175058567653796518097793554
192,14746.7932696994871407407722185722816,14745.2,1.5932696994871407407722185722816
193,14900.7943164334365508827854049517218,14899.2,1.5943164334365508827854049517218
194,15055.5953577642804974986880976765954,15054.0,1.5953577642804974986880976765954
195,15211.1963937477226310083777546772007,15209.6,1.5963937477226310083777546772007
196,15367.5974244386126299195401597842006,15366.0,1.5974244386126299195401597842006
197,15524.7984498909636251240068973653163,15523.2,1.5984498909636251240068973653163
198,15682.7994701579691832964954624619417,15681.2,1.5994701579691832964954624619417
199,15841.6004852920198622346593196926785,15840.0,1.6004852920198622346593196926785
200,16001.2014953447193520858484735278587,15999.6,1.6014953447193520858484735278587
201,16161.6025003669002134423438032494507,16160.0,1.6025003669002134423438032494507
202,16322.8035004086392256867094313008052,16321.2,1.6035004086392256867094313008052
203,16484.8044955192723562476153289613297,16483.2,1.6044955192723562476153289613297
204,16647.6054857474093623868303853629968,16646.0,1.6054857474093623868303853629968
205,16811.2064711409480354886810276202647,16809.6,1.6064711409480354886810276202647
206,16975.6074517470881008768297534575723,16974.0,1.6074517470881008768297534575723
207,17140.8084276123447790353168049011756,17139.2,1.6084276123447790353168049011756
208,17306.8093987825620224617645416939218,17305.2,1.6093987825620224617645416939218
209,17473.6103653029254339022459344335229,17472.0,1.6103653029254339022459344335229
210,17641.2113272179748774702704974140102,17639.6,1.6113272179748774702704974140102
211,17809.6122845716167900158934993522707,17808.0,1.6122845716167900158934993522707
212,17978.8132374071362029793115917497149,17977.2,1.6132374071362029793115917497149
213,18148.8141857672084791142801888019986,18147.2,1.6141857672084791142801888019986
214,18319.6151296939107790646867523180313,18318.0,1.6151296939107790646867523180313
215,18491.2160692287332570083757448105025,18489.6,1.6160692287332570083757448105025
216,18663.6170044125899993307646604037395,18662.0,1.6170044125899993307646604037395
217,18836.8179352858297102956075740983361,18835.2,1.6179352858297102956075740983361
218,19010.8188618882461536939025903605825,19009.2,1.6188618882461536939025903605825
219,19185.6197842590883537526756703501611,19184.0,1.6197842590883537526756703501611
220,19361.2207024370705678208094897959197,19359.6,1.6207024370705678208094897959197
221,19537.6216164603820287435133282758395,19536.0,1.6216164603820287435133282758395
222,19714.8225263666964741323722056689345,19713.2,1.6225263666964741323722056689345
223,19892.8234321931814561016552410782754,19891.2,1.6234321931814561016552410782754
224,20071.6243339765074465403182081658584,20070.0,1.6243339765074465403182081658584
225,20251.2252317528567404866739474774875,20249.6,1.6252317528567404866739474774875
226,20431.6261255579321611544078721986494,20430.0,1.6261255579321611544078721986494
227,20612.8270154269655752638395948236433,20611.2,1.6270154269655752638395948236433
228,20794.8279013947262205000007220990572,20793.2,1.6279013947262205000007220990572
229,20977.6287834955288522614007043916725,20976.0,1.6287834955288522614007043916725
230,21161.2296617632417143977638440499289,21159.6,1.6296617632417143977638440499289
231,21345.6305362312943357384378354700781,21344.0,1.6305362312943357384378354700781
232,21530.8314069326851628331727486480494,21529.2,1.6314069326851628331727486480494
233,21716.8322738999890239039474181856547,21715.2,1.6322738999890239039474181856547
234,21903.6331371653644401674822661516509,21902.0,1.6331371653644401674822661516509
235,22091.2339967605607777135137496345890,22089.6,1.6339967605607777135137496345890
236,22279.6348527169252496520082730758273,22278.0,1.6348527169252496520082730758273
237,22468.8357050654097721642851827408505,22467.2,1.6357050654097721642851827408505
238,22658.8365538365776762043634270165899,22657.2,1.6365538365776762043634270165899
