Eigenstate,Energy,Kinetic Energy,Potential Energy
1,0.500000000385734254182022801302934394,0.0,0.500000000385734254182022801302934394
2,1.84623094016902013674225977849652499,1.2,0.64623094016902013674225977849652499
3,3.93633761710127176424245378275643976,3.2,0.73633761710127176424245378275643976
4,6.79966529322031256835439402305279596,6.0,0.79966529322031256835439402305279596
5,10.4480466019731151321469177915818777,9.6,0.8480466019731151321469177915818777
6,14.8870660381684831405332298130304961,14.0,0.8870660381684831405332298130304961
7,20.1197208832704660967741957572369843,19.2,0.9197208832704660967741957572369843
8,26.1477839236701971811698614803813404,25.2,0.9477839236701971811698614803813404
9,32.9723836583827880858223486662515227,32.0,0.9723836583827880858223486662515227
10,40.5942803415630001115915525124107714,39.6,0.9942803415630001115915525124107714
11,49.0140095433566954439895393861202477,48.0,1.0140095433566954439895393861202477
12,58.2319623590726121248505104374107131,57.2,1.0319623590726121248505104374107131
13,68.2484329187803062523475883447853496,67.2,1.0484329187803062523475883447853496
14,79.0636479201665153337534617737248677,78.0,1.0636479201665153337534617737248677
15,90.6777857443494650977331211012696226,89.6,1.0777857443494650977331211012696226
16,103.090989260749391388646003592791200,102.0,1.090989260749391388646003592791200
17,116.303374660550094753567320505472547,115.2,1.103374660550094753567320505472547
18,130.315037707705173870727208448117120,129.2,1.115037707705173870727208448117120
19,145.126058262042026811882379769655839,144.0,1.126058262042026811882379769655839
20,160.736503616895804391926004241472020,159.6,1.136503616895804391926004241472020
21,177.146431005191119742667637205847663,176.0,1.146431005191119742667637205847663
22,194.355889510600797753815326136819884,193.2,1.155889510600797753815326136819884
23,212.364921545482406882254489510315233,211.2,1.164921545482406882254489510315233
24,231.173564008278686938040337703519536,230.0,1.173564008278686938040337703519536
25,250.781849200313480004267944583877687,249.6,1.181849200313480004267944583877687
26,271.189805559599321915996798838920616,270.0,1.189805559599321915996798838920616
27,292.397458253800021235592347243613982,291.2,1.197458253800021235592347243613982
28,314.404829663589701793774296296423655,313.2,1.204829663589701793774296296423655
29,337.211939779854757003373091364206253,336.0,1.211939779854757003373091364206253
30,360.818806532535676554849299178073475,359.6,1.218806532535676554849299178073475
31,385.225446064759767582144826802059780,384.0,1.225446064759767582144826802059780
32,410.431872962837892787985348338482927,409.2,1.231872962837892787985348338482927
33,436.438100450388700202876337529306799,435.2,1.238100450388700202876337529306799
34,463.244140553103272977950448711561445,462.0,1.244140553103272977950448711561445
35,490.850004239323932540219906169153938,489.6,1.250004239323932540219906169153938
36,519.255701540577449555798120456451548,518.0,1.255701540577449555798120456451548
37,548.461241655398832594772469848539314,547.2,1.261241655398832594772469848539314
38,578.466633039151445645692140324365312,577.2,1.266633039151445645692140324365312
39,609.271883482051356976130125732577122,608.0,1.271883482051356976130125732577122
40,640.877000177208001050688953236542254,639.6,1.277000177208001050688953236542254
41,673.281989780176484942889097212960707,672.0,1.281989780176484942889097212960707
42,706.486858461261878074922323057818431,705.2,1.286858461261878074922323057818431
43,740.491611951609337773581424786340241,739.2,1.291611951609337773581424786340241
44,775.296255583945829114572738873277874,774.0,1.296255583945829114572738873277874
45,810.900794328701627957940947836318551,809.6,1.300794328701627957940947836318551
46,847.305232826126659794356579001544079,846.0,1.305232826126659794356579001544079
47,884.509575414923250409373254400839379,883.2,1.309575414923250409373254400839379
48,922.513826157839278008263258009031668,921.2,1.313826157839278008263258009031668
49,961.317988864601053899938341147836510,960.0,1.317988864601053899938341147836510
50,1000.92206711251113612464431093154633,999.6,1.32206711251113612464431093154633
51,1041.32606426499081344751099440864921,1040.0,1.32606426499081344751099440864921
52,1082.52998348830865192562931593204102,1081.2,1.32998348830865192562931593204102
53,1124.53382776670404613769271827704272,1123.2,1.33382776670404613769271827704272
54,1167.33759991608715603371226056378540,1166.0,1.33759991608715603371226056378540
55,1210.94130259647313486974408704299011,1209.6,1.34130259647313486974408704299011
56,1255.34493832328847912239711999976444,1254.0,1.34493832328847912239711999976444
57,1300.54850947767013231273192630821662,1299.2,1.34850947767013231273192630821662
58,1346.55201831586317748284477772652212,1345.2,1.35201831586317748284477772652212
59,1393.35546697781019912113047015666109,1392.0,1.35546697781019912113047015666109
60,1440.95885749501437082450223787792633,1439.6,1.35885749501437082450223787792633
61,1489.36219179774876075833066633548644,1488.0,1.36219179774876075833066633548644
62,1538.56547172167604596974360790052517,1537.2,1.36547172167604596974360790052517
63,1588.56869901393558472090493464689788,1587.2,1.36869901393558472090493464689788
64,1639.37187533874848352896838480238523,1638.0,1.37187533874848352896838480238523
65,1690.97500228258576075943456672886474,1689.6,1.37500228258576075943456672886474
66,1743.37808135893986128058737886975410,1742.0,1.37808135893986128058737886975410
67,1796.58111401273551439537083096626626,1795.2,1.38111401273551439537083096626626
68,1850.58410162441217110626588434549479,1849.2,1.38410162441217110626588434549479
69,1905.38704551370694409801458654910924,1904.0,1.38704551370694409801458654910924
70,1960.98994694316404555478225392279985,1959.6,1.38994694316404555478225392279985
71,2017.39280712139411922463799655697186,2016.0,1.39280712139411922463799655697186
72,2074.59562720610456490186336196439130,2073.2,1.39562720610456490186336196439130
73,2132.59840830691990049121725775950695,2131.2,1.39840830691990049121725775950695
74,2191.40115148800938796974641622100802,2190.0,1.40115148800938796974641622100802
75,2251.00385777053751846064969768601528,2249.6,1.40385777053751846064969768601528
76,2311.40652813495150207696560345688902,2310.0,1.40652813495150207696560345688902
77,2372.60916352311860579445902652415329,2371.2,1.40916352311860579445902652415329
78,2434.61176484032501681492213334850993,2433.2,1.41176484032501681492213334850993
79,2497.41433295714686206113593483740832,2496.0,1.41433295714686206113593483740832
80,2561.01686871120307631911649445896498,2559.6,1.41686871120307631911649445896498
81,2625.41937290879896220182049846129293,2624.0,1.41937290879896220182049846129293
82,2690.62184632646852365795369847667582,2689.2,1.42184632646852365795369847667582
83,2756.62428971242296601576354109938668,2755.2,1.42428971242296601576354109938668
84,2823.42670378791213126000796108399623,2822.0,1.42670378791213126000796108399623
85,2891.02908924850507796414623923190953,2889.6,1.42908924850507796414623923190953
86,2959.43144676529549943443637541746114,2958.0,1.43144676529549943443637541746114
87,3028.63377698603721615185482206089905,3027.2,1.43377698603721615185482206089905
88,3098.63608053621455522004660377612671,3097.2,1.43608053621455522004660377612671
89,3169.43835802005204602538517039878479,3168.0,1.43835802005204602538517039878479
90,3241.04061002146751809852271589675909,3239.6,1.44061002146751809852271589675909
91,3313.44283710497236571479573117540317,3312.0,1.44283710497236571479573117540317
92,3386.64503981652245547334254869018049,3385.2,1.44503981652245547334254869018049
93,3460.64721868432289083977106042446653,3459.2,1.44721868432289083977106042446653
94,3535.44937421958960470851077073994783,3534.0,1.44937421958960470851077073994783
95,3611.05150691727052988699162736156832,3609.6,1.45150691727052988699162736156832
96,3687.45361725672889558171181738313361,3686.0,1.45361725672889558171181738313361
97,3764.65570570239101362418865153979626,3763.2,1.45570570239101362418865153979626
98,3842.65777270436074530052654862541337,3841.2,1.45777270436074530052654862541337
99,3921.45981869900268617619335609339431,3920.0,1.45981869900268617619335609339431
100,4001.06184410949595996721605653165078,3999.6,1.46184410949595996721605653165078
101,4081.46384934636038320490006462564403,4080.0,1.46384934636038320490006462564403
102,4162.66583480795663686649553926928779,4161.2,1.46583480795663686649553926928779
103,4244.66780088096197323066695129259523,4243.2,1.46780088096197323066695129259523
104,4327.46974794082287895196114966037479,4326.0,1.46974794082287895196114966037479
105,4411.07167635218602227475379542242699,4409.6,1.47167635218602227475379542242699
106,4495.47358646930872154296392662878020,4494.0,1.47358646930872154296392662878020
107,4580.67547863645009407991900891568281,4579.2,1.47547863645009407991900891568281
108,4666.67735318824396527324857471035729,4665.2,1.47735318824396527324857471035729
109,4753.47921045005454910620590167898297,4752.0,1.47921045005454910620590167898297
110,4841.08105073831584895674372630668682,4839.6,1.48105073831584895674372630668682
111,4929.48287436085566162452673546403455,4928.0,1.48287436085566162452673546403455
112,5018.68468161720501811248975477433179,5017.2,1.48468161720501811248975477433179
113,5108.68647279889383915381036940302912,5107.2,1.48647279889383915381036940302912
114,5199.48824818973353471747509942818098,5198.0,1.48824818973353471747509942818098
115,5291.09000806608723627716964346466201,5289.6,1.49000806608723627716964346466201
116,5383.49175269712830229664442425445545,5382.0,1.49175269712830229664442425445545
117,5476.69348234508770567176361533504765,5475.2,1.49348234508770567176361533504765
118,5570.69519726549087083840552194024236,5569.2,1.49519726549087083840552194024236
119,5665.49689770738449454173594267477961,5664.0,1.49689770738449454173594267477961
120,5761.09858391355385842021165349758646,5759.6,1.49858391355385842021165349758646
121,5857.50025612073110329049990770826754,5856.0,1.50025612073110329049990770826754
122,5954.70191455979491610643970558516660,5953.2,1.50191455979491610643970558516660
123,6052.70355945596204837231754152527360,6051.2,1.50355945596204837231754152527360
124,6151.50519102897106711099808891751006,6150.0,1.50519102897106711099808891751006
125,6251.10680949325870992127031284316951,6249.6,1.50680949325870992127031284316951
126,6351.50841505812920046155361089856503,6350.0,1.50841505812920046155361089856503
127,6452.71000792791686011930825988893849,6451.2,1.51000792791686011930825988893849
128,6554.71158830214232903839272155341666,6553.2,1.51158830214232903839272155341666
129,6657.51315637566269760346169841901389,6656.0,1.51315637566269760346169841901389
130,6761.11471233881583109872590301658802,6759.6,1.51471233881583109872590301658802
131,6865.51625637755915485437090186133644,6864.0,1.51625637755915485437090186133644
132,6970.71778867360315221683278618350921,6969.2,1.51778867360315221683278618350921
133,7076.71930940453981589763880302890606,7075.2,1.51930940453981589763880302890606
134,7183.52081874396628197967652820685320,7182.0,1.52081874396628197967652820685320
135,7291.12231686160385775151134725988548,7289.6,1.52231686160385775151134725988548
136,7399.52380392341265085295425852246157,7398.0,1.52380392341265085295425852246157
137,7508.72528009170199390725604689373596,7507.2,1.52528009170199390725604689373596
138,7618.72674552523684520342289898892350,7617.2,1.52674552523684520342289898892350
139,7729.52820037934034388636931992030829,7728.0,1.52820037934034388636931992030829
140,7841.12964480599268266677834676874541,7839.6,1.52964480599268266677834676874541
141,7953.53107895392645650517139377993918,7952.0,1.53107895392645650517139377993918
142,8066.73250296871863765156339575314811,8065.2,1.53250296871863765156339575314811
143,8180.73391699287931877203688325181157,8179.2,1.53391699287931877203688325181157
144,8295.53532116593735871407523885963196,8294.0,1.53532116593735871407523885963196
145,8411.13671562452306127487601151557311,8409.6,1.53671562452306127487601151557311
146,8527.53810050244800946826789198430587,8526.0,1.53810050244800946826789198430587
147,8644.73947593078216958303431574218460,8643.2,1.53947593078216958303431574218460
148,8762.74084203792838036757273038687506,8761.2,1.54084203792838036757273038687506
149,8881.54219894969432914791008517782184,8880.0,1.54219894969432914791008517782184
150,9001.14354678936211852617469518149287,8999.6,1.54354678936211852617469518149287
151,9121.54488567775551958018468029314232,9120.0,1.54488567775551958018468029314232
152,9242.74621573330500186989349122499033,9241.2,1.54621573330500186989349122499033
153,9364.74753707211062920714724565713213,9363.2,1.54753707211062920714724565713213
154,9487.54884980800290509494064749481663,9486.0,1.54884980800290509494064749481663
155,9611.15015405260164607930178688939485,9609.6,1.55015405260164607930178688939485
156,9735.55144991537296088751111718083740,9734.0,1.55144991537296088751111718083740
157,9860.75273750368440640679695121351688,9859.2,1.55273750368440640679695121351688
158,9986.75401692285839232936963451678519,9985.2,1.55401692285839232936963451678519
159,10113.5552882762238981446001485690969,10112.0,1.5552882762238981446001485690969
160,10241.1565516651665688240856257764533,10239.6,1.5565516651665688240856257764533
161,10369.5578071891772477041531101670779,10368.0,1.5578071891772477041531101670779
162,10498.7590549458990060355812425987550,10497.2,1.5590549458990060355812425987550
163,10628.7602950311727240627561245648272,10627.2,1.5602950311727240627561245648272
164,10759.5615275390812782780423464738450,10758.0,1.5615275390812782780423464738450
165,10891.1627525619923834610286017333344,10889.6,1.5627525619923834610286017333344
166,11023.5639701906001400279528998773421,11022.0,1.5639701906001400279528998773421
167,11156.7651805139653339336298112730644,11155.2,1.5651805139653339336298112730644
168,11290.7663836195545318250859793471898,11289.2,1.5663836195545318250859793471898
169,11425.5675795932780165195851248490284,11424.0,1.5675795932780165195851248490284
170,11561.1687685195266025610653089210288,11559.6,1.5687685195266025610653089210288
171,11697.5699504812073720606737192420443,11696.0,1.5699504812073720606737192420443
172,11834.7711255597783686996165401922960,11833.2,1.5711255597783686996165401922960
173,11972.7722938352822853085526548747211,11971.2,1.5722938352822853085526548747211
174,12111.5734553863791808793042691424144,12110.0,1.5734553863791808793042691424144
175,12251.1746102903782610064384123507727,12249.6,1.5746102903782610064384123507727
176,12391.5757586232687514780722571569968,12390.0,1.5757586232687514780722571569968
177,12532.7769004597498982898343539909201,12531.2,1.5769004597498982898343539909201
178,12674.7780358732601232501731028502625,12673.2,1.5780358732601232501731028502625
179,12817.5791649360053616361760490151229,12816.0,1.5791649360053616361760490151229
180,12961.1802877189866128609494642052077,12959.6,1.5802877189866128609494642052077
181,13105.5814042920267268162384767988910,13104.0,1.5814042920267268162384767988910
182,13250.7825147237964536012368934132984,13249.2,1.5825147237964536012368934132984
183,13396.7836190818397797028984428677696,13395.2,1.5836190818397797028984428677696
184,13543.5847174325985748858240256241300,13542.0,1.5847174325985748858240256241300
185,13691.1858098414365716168953926599162,13689.6,1.5858098414365716168953926599162
186,13839.5868963726626980108558707682664,13838.0,1.5868963726626980108558707682664
187,13988.7879770895537881154688396611222,13987.2,1.5879770895537881154688396611222
188,14138.7890520543766849912642714978202,14137.2,1.5890520543766849912642714978202
189,14289.5901213284097603362556733095326,14288.0,1.5901213284097603362556733095326
190,14441.1911849719638663265996771511597,14439.6,1.5911849719638663265996771511597
191,14593.5922430444027389162802459204543,14592.0,1.5922430444027389162802459204543
192,14746.7932956041628689992071328964473,14745.2,1.5932956041628689992071328964473
193,14900.7943427087728597594365638816013,14899.2,1.5943427087728597594365638816013
194,15055.5953844148722835728639168530249,15054.0,1.5953844148722835728639168530249
195,15211.1964207782300564160433037260495,15209.6,1.5964207782300564160433037260495
196,15367.5974518537623434980792601542125,15366.0,1.5974518537623434980792601542125
197,15524.7984776955500105157496963258187,15523.2,1.5984776955500105157496963258187
198,15682.7994983568556347194776524952473,15681.2,1.5994983568556347194776524952473
199,15841.6005138901400886505011973130102,15840.0,1.6005138901400886505011973130102
200,16001.2015243470787105167917491018400,15999.6,1.6015243470787105167917491018400
201,16161.6025297785770722124089473950665,16160.0,1.6025297785770722124089473950665
202,16322.8035302347863583856528424468100,16321.2,1.6035302347863583856528424468100
203,16484.8045257651183672409095976562748,16483.2,1.6045257651183672409095976562748
204,16647.6055164182601447202904082108092,16646.0,1.6055164182601447202904082108092
205,16811.2065022421882620626544910803033,16809.6,1.6065022421882620626544910803033
206,16975.6074832841827497920964573457505,16974.0,1.6074832841827497920964573457505
207,17140.8084595908406940410251668727369,17139.2,1.6084595908406940410251668727369
208,17306.8094312080895094649253731662201,17305.2,1.6094312080895094649253731662201
209,17473.6103981811998945285364602037685,17472.0,1.6103981811998945285364602037685
210,17641.2113605547984806972205365772783,17639.6,1.6113605547984806972205365772783
211,17809.6123183728801829319733605117476,17808.0,1.6123183728801829319733605117476
212,17978.8132716788202617560577276316362,17977.2,1.6132716788202617560577276316362
213,18148.8142205153861013134454908678936,18147.2,1.6142205153861013134454908678936
214,18319.6151649247487184385112782553042,18318.0,1.6151649247487184385112782553042
215,18491.2161049484940019885160597521412,18489.6,1.6161049484940019885160597521412
216,18663.6170406276336964402357475983590,18662.0,1.6170406276336964402357475983590
217,18836.8179720026161337583408159757103,18835.2,1.6179720026161337583408159757103
218,19010.8188991133367225582822651757086,19009.2,1.6188991133367225582822651757086
219,19185.6198219991481978887157565366020,19184.0,1.6198219991481978887157565366020
220,19361.2207406988706441955524627593242,19359.6,1.6207406988706441955524627593242
221,19537.6216552508012894258742825655849,19536.0,1.6216552508012894258742825655849
222,19714.8225656927240875270114946069384,19713.2,1.6225656927240875270114946069384
223,19892.8234720619190829616992948300969,19891.2,1.6234720619190829616992948300969
224,20071.6243743951715723608772661144675,20070.0,1.6243743951715723608772661144675
225,20251.2252727287810659352442695864494,20249.6,1.6252727287810659352442695864494
226,20431.6261670985700522504616965028957,20430.0,1.6261670985700522504616965028957
227,20612.8270575398925750782983327710817,20611.2,1.6270575398925750782983327710817
228,20794.8279440876426242059619380862053,20793.2,1.6279440876426242059619380862053
229,20977.6288267762623474305018282295476,20976.0,1.6288267762623474305018282295476
230,21161.2297056397500885020862829992831,21159.6,1.6297056397500885020862829992831
231,21345.6305807116682528859277490081970,21344.0,1.6305807116682528859277490081970
232,21530.8314520251510118353409653615336,21529.2,1.6314520251510118353409653615336
233,21716.8323196129118398482127618945850,21715.2,1.6323196129118398482127618945850
234,21903.6331835072509017430426570880657,21902.0,1.6331835072509017430426570880657
235,22091.2340437400622826192605326285889,22089.6,1.6340437400622826192605326285889
236,22279.6349003428410704978105251016538,22278.0,1.6349003428410704978105251016538
237,22468.8357533466902953631627712711748,22467.2,1.6357533466902953631627712711748
238,22658.8366027823277264427549839206746,22657.2,1.6366027823277264427549839206746
