Eigenstate,Energy,Kinetic Energy,Potential Energy
1,0.500000000051236385932594453929055423,0.0,0.500000000051236385932594453929055423
2,1.84623093798555920601844293603653314,1.2,0.64623093798555920601844293603653314
3,3.93633761068738019280382925545401642,3.2,0.73633761068738019280382925545401642
4,6.79966527986047710281365875022104349,6.0,0.79966527986047710281365875022104349
5,10.4480465788301933033316450969729088,9.6,0.8480465788301933033316450969729088
6,14.8870660023550748446139200852730590,14.0,0.8870660023550748446139200852730590
7,20.1197208318751147820716155411097830,19.2,0.9197208318751147820716155411097830
8,26.1477838537682281349493178619636135,25.2,0.9477838537682281349493178619636135
9,32.9723835670412666938263935002594377,32.0,0.9723835670412666938263935002594377
10,40.5942802258431731677920271540187249,39.6,0.9942802258431731677920271540187249
11,49.0140094003152474359200641764814920,48.0,1.0140094003152474359200641764814920
12,58.2319621857623174867555649751528387,57.2,1.0319621857623174867555649751528387
13,68.2484327122503526163328116639608967,67.2,1.0484327122503526163328116639608967
14,79.0636476774626372721808419764072758,78.0,1.0636476774626372721808419764072758
15,90.6777854625139633681299245044060836,89.6,1.0777854625139633681299245044060836
16,103.090988936821080083830909750628819,102.0,1.090988936821080083830909750628819
17,116.303374291564201379512884597800407,115.2,1.103374291564201379512884597800407
18,130.315037290693207678889182409912960,129.2,1.115037290693207678889182409912960
19,145.126057794031625083806466562980502,144.0,1.126057794031625083806466562980502
20,160.736503094910562989322101133823578,159.6,1.136503094910562989322101133823578
21,177.146430426250412136694482136496541,176.0,1.146430426250412136694482136496541
22,194.355888871719585408418081466911982,193.2,1.155888871719585408418081466911982
23,212.364920843671042991014840406597114,211.2,1.164920843671042991014840406597114
24,231.173563240542714928681106521239959,230.0,1.173563240542714928681106521239959
25,250.781848363653427825547141279749009,249.6,1.181848363653427825547141279749009
26,271.189804651010492844088012274697438,270.0,1.189804651010492844088012274697438
27,292.397457270272281740758657351020060,291.2,1.197457270272281740758657351020060
28,314.404828602107266867190165313878615,313.2,1.204828602107266867190165313878615
29,337.211938637395973241268216133785534,336.0,1.211938637395973241268216133785534
30,360.818805306072803221345364400996212,359.6,1.218805306072803221345364400996212
31,385.225444751258755815495102702455032,384.0,1.225444751258755815495102702455032
32,410.431871559258163072079363416751575,409.2,1.231871559258163072079363416751575
33,436.438098953682918193111699503486509,435.2,1.238098953682918193111699503486509
34,463.244138960217123745264905444160090,462.0,1.244138960217123745264905444160090
35,490.850002547195893277327918049177496,489.6,1.250002547195893277327918049177496
36,519.255699746138560774118997699608234,518.0,1.255699746138560774118997699608234
37,548.461239755572467828165652474765854,547.2,1.261239755572467828165652474765854
38,578.466631030853079667188546186164111,577.2,1.266631030853079667188546186164111
39,609.271881362188332525810567817138945,608.0,1.271881362188332525810567817138945
40,640.876997942679294066293320277857762,639.6,1.276997942679294066293320277857762
41,673.281987427872468279326272527707063,672.0,1.281987427872468279326272527707063
42,706.486855988064083694345808635176688,705.2,1.286855988064083694345808635176688
43,740.491609354390217383912319473285724,739.2,1.291609354390217383912319473285724
44,775.296252859568513231144174026104101,774.0,1.296252859568513231144174026104101
45,810.900791474019683360191110707336739,809.6,1.300791474019683360191110707336739
46,847.305229837983845347121227592397236,846.0,1.305229837983845347121227592397236
47,884.509572290153271216252713796386546,883.2,1.309572290153271216252713796386546
48,922.513822893265537862704438057859226,921.2,1.313822893265537862704438057859226
49,961.317985457036405998035863207997363,960.0,1.317985457036405998035863207997363
50,1000.92206355875763200218786713568632,999.6,1.32206355875763200218786713568632
51,1041.32606056183945010245906681667174,1040.0,1.32606056183945010245906681667174
52,1082.52997963253911708594907497330420,1081.2,1.32997963253911708594907497330420
53,1124.53382375508446163335108911584962,1123.2,1.33382375508446163335108911584962
54,1167.33759574537381923051760546994236,1166.0,1.33759574537381923051760546994236
55,1210.94129826341025812170910507406336,1209.6,1.34129826341025812170910507406336
56,1255.34493382460792719830867679790574,1254.0,1.34493382460792719830867679790574
57,1300.54850481009115775166505330591907,1299.2,1.34850481009115775166505330591907
58,1346.55201347609215383243454442342049,1345.2,1.35201347609215383243454442342049
59,1393.35546196254035201151594356140883,1392.0,1.35546196254035201151594356140883
60,1440.95885230092550682996957706044495,1439.6,1.35885230092550682996957706044495
61,1489.36218642150699399780625952846521,1488.0,1.36218642150699399780625952846521
62,1538.56546615993352239641790222712676,1537.2,1.36546615993352239641790222712676
63,1588.56869326333020405040034306737638,1587.2,1.36869326333020405040034306737638
64,1639.37186939590361875459644656270626,1638.0,1.37186939590361875459644656270626
65,1690.97499614410997520221439569228093,1689.6,1.37499614410997520221439569228093
66,1743.37807502142662312082152582625682,1742.0,1.37807502142662312082152582625682
67,1796.58110747276290863168801565761404,1795.2,1.38110747276290863168801565761404
68,1850.58409487854260888714590435235316,1849.2,1.38409487854260888714590435235316
69,1905.38703855848686936990194562489538,1904.0,1.38703855848686936990194562489538
70,1960.98993977512363896997834579214630,1959.6,1.38993977512363896997834579214630
71,2017.39279973704699925122446802269628,2016.0,1.39279973704699925122446802269628
72,2074.59561960194748607696215025885642,2073.2,1.39561960194748607696215025885642
73,2132.59840047943244875792403976208008,2131.2,1.39840047943244875792403976208008
74,2191.40114343365367303709110536752440,2190.0,1.40114343365367303709110536752440
75,2251.00384948575786312493256675960527,2249.6,1.40384948575786312493256675960527
76,2311.40651961617412844179588883390577,2310.0,1.40651961617412844179588883390577
77,2372.60915476675131832577648185189496,2371.2,1.40915476675131832577648185189496
78,2434.61175584275688216621628733722489,2433.2,1.41175584275688216621628733722489
79,2497.41432371474788560298816932460247,2496.0,1.41432371474788560298816932460247
80,2561.01685922032387530607834110375409,2559.6,1.41685922032387530607834110375409
81,2625.41936316577043550850260418031910,2624.0,1.41936316577043550850260418031910
82,2690.62183632760151801503836445201909,2689.2,1.42183632760151801503836445201909
83,2756.62427945400793867546471851278841,2755.2,1.42427945400793867546471851278841
84,2823.42669326621880901928675263848299,2822.0,1.42669326621880901928675263848299
85,2891.02907845978211247274640481781477,2889.6,1.42907845978211247274640481781477
86,2959.43143570577011871353280571714544,2958.0,1.43143570577011871353280571714544
87,3028.63376565191487224780526612281180,3027.2,1.43376565191487224780526612281180
88,3098.63606892367856791640615542311470,3097.2,1.43606892367856791640615542311470
89,3169.43834612526324253497943534706055,3168.0,1.43834612526324253497943534706055
90,3241.04059784056386865598134254740682,3239.6,1.44059784056386865598134254740682
91,3313.44282463406861498851898922817325,3312.0,1.44282463406861498851898922817325
92,3386.64502705170974971441340311036696,3385.2,1.44502705170974971441340311036696
93,3460.64720562166840068382800864943217,3459.2,1.44720562166840068382800864943217
94,3535.44936085513614354506531880384911,3534.0,1.44936085513614354506531880384911
95,3611.05149324703616770910569012310820,3609.6,1.45149324703616770910569012310820
96,3687.45360327670656822734539912719374,3686.0,1.45360327670656822734539912719374
97,3764.65569140854812731888195330514889,3763.2,1.45569140854812731888195330514889
98,3842.65775809263877640939946531658420,3841.2,1.45775809263877640939946531658420
99,3921.45980376531677607151820763272306,3920.0,1.45980376531677607151820763272306
100,4001.06182884973450491605605124183756,3999.6,1.46182884973450491605605124183756
101,4081.46383375638461917949522635232403,4080.0,1.46383375638461917949522635232403
102,4162.66581888360021917822672563713732,4161.2,1.46581888360021917822672563713732
103,4244.66778461803055088653163626417429,4243.2,1.46778461803055088653163626417429
104,4327.46973133509366363054872617041936,4326.0,1.46973133509366363054872617041936
105,4411.07165939940735181672012899820089,4409.6,1.47165939940735181672012899820089
106,4495.47356916519961784896376831249731,4494.0,1.47356916519961784896376831249731
107,4580.67546097669981530686547467036679,4579.2,1.47546097669981530686547467036679
108,4666.67733516851155221762960076193124,4665.2,1.47733516851155221762960076193124
109,4753.47919206596836566099254254057188,4752.0,1.47919206596836566099254254057188
110,4841.08103198547311652617885698585677,4839.6,1.48103198547311652617885698585677
111,4929.48285523482198737878080397084941,4928.0,1.48285523482198737878080397084941
112,5018.68466211351391696180903709250697,5017.2,1.48466211351391696180903709250697
113,5108.68645291304624931936784765372592,5107.2,1.48645291304624931936784765372592
114,5199.48822791719732677365231108037902,5198.0,1.48822791719732677365231108037902
115,5291.08998740229671553746180386116211,5289.6,1.48998740229671553746180386116211
116,5383.49173163748370441277657577586048,5382.0,1.49173163748370441277657577586048
117,5476.69346088495468531293696422430284,5475.2,1.49346088495468531293696422430284
118,5570.69517540019998331485951231795634,5569.2,1.49517540019998331485951231795634
119,5665.49687543223067023400797290204909,5664.0,1.49687543223067023400797290204909
120,5761.09856122379586987260210134692074,5759.6,1.49856122379586987260210134692074
121,5857.50023301159102482430315442340579,5856.0,1.50023301159102482430315442340579
122,5954.70189102645757580548200253661350,5953.2,1.50189102645757580548200253661350
123,6052.70353549357447229024412761572413,6051.2,1.50353549357447229024412761572413
124,6151.50516663264191554657674169559732,6150.0,1.50516663264191554657674169559732
125,6251.10678465805770560472063125659628,6249.6,1.50678465805770560472063125659628
126,6351.50838977908654849157153426282328,6350.0,1.50838977908654849157153426282328
127,6452.70998220002265948702948427282655,6451.2,1.50998220002265948702948427282655
128,6554.71156212034597557102501020678674,6553.2,1.51156212034597557102501020678674
129,6657.51312973487227815671253979393006,6656.0,1.51312973487227815671253979393006
130,6761.11468523389750882345457243490088,6759.6,1.51468523389750882345457243490088
131,6865.51622880333654535910182240769356,6864.0,1.51622880333654535910182240769356
132,6970.71776062485669044387428968993913,6969.2,1.51776062485669044387428968993913
133,7076.71928087600611352656330109771223,7075.2,1.51928087600611352656330109771223
134,7183.52078973033747516781703125672186,7182.0,1.52078973033747516781703125672186
135,7291.12228735752694501692868880070962,7289.6,1.52228735752694501692868880070962
136,7399.52377392348882090101626027531129,7398.0,1.52377392348882090101626027531129
137,7508.72524959048594319753982698638604,7507.2,1.52524959048594319753982698638604
138,7618.72671451723608504911109367639071,7617.2,1.52671451723608504911109367639071
139,7729.52816885901449687364483499529948,7728.0,1.52816885901449687364483499529948
140,7841.12961276775276817693343116452449,7839.6,1.52961276775276817693343116452449
141,7953.53104639213416511723566066580871,7952.0,1.53104639213416511723566066580871
142,8066.73246987768559419820436128388843,8065.2,1.53246987768559419820436128388843
143,8180.73388336686633381630770702711805,8179.2,1.53388336686633381630770702711805
144,8295.53528699915366820926253189490191,8294.0,1.53528699915366820926253189490191
145,8411.13668091112555416423850181007528,8409.6,1.53668091112555416423850181007528
146,8527.53806523654044297584156750338775,8526.0,1.53806523654044297584156750338775
147,8644.73944010641437194091888128329469,8643.2,1.53944010641437194091888128329469
148,8762.74080564909544071919409812636145,8761.2,1.54080564909544071919409812636145
149,8881.54216199033577436066804835750542,8880.0,1.54216199033577436066804835750542
150,9001.14350925336107664064195451916769,8999.6,1.54350925336107664064195451916769
151,9121.54484755893786961659770418245538,9120.0,1.54484755893786961659770418245538
152,9242.74617702543850970608396049926418,9241.2,1.54617702543850970608396049926418
153,9364.74749776890406923528116464688866,9363.2,1.54749776890406923528116464688866
154,9487.54880990310516735746587638082795,9486.0,1.54880990310516735746587638082795
155,9611.15011353960082857734578712150384,9609.6,1.55011353960082857734578712150384
156,9735.55140878779544674760640211435856,9734.0,1.55140878779544674760640211435856
157,9860.75269575499392558425030869361604,9859.2,1.55269575499392558425030869361604
158,9986.75397454645506751880777007721828,9985.2,1.55397454645506751880777007721828
159,10113.5552452654432745602294029392853,10112.0,1.5552452654432745602294029392853
160,10241.1565080132786275039759503071295,10239.6,1.5565080132786275039759503071295
161,10369.5577628893854019844015928443787,10368.0,1.5577628893854019844015928443787
162,10498.7590099913390808315076219309247,10497.2,1.5590099913390808315076219309247
163,10628.7602494149119175853411212205652,10627.2,1.5602494149119175853411212205652
164,10759.5614812541171058046096341635052,10758.0,1.5614812541171058046096341635052
165,10891.1627056012516027697049349447222,10889.6,1.5627056012516027697049349447222
166,11023.5639225469376580957001833365297,11022.0,1.5639225469376580957001833365297
167,11156.7651321801630944876158834453939,11155.2,1.5651321801630944876158834453939
168,11290.7663345883203833268441115480581,11289.2,1.5663345883203833268441115480581
169,11425.5675298572445601507971502250361,11424.0,1.5675298572445601507971502250361
170,11561.1687180712500197688726080876350,11559.6,1.5687180712500197688726080876350
171,11697.5698993131662312091716179638112,11696.0,1.5698993131662312091716179638112
172,11834.7710736643724103626041097891279,11833.2,1.5710736643724103626041097891279
173,11972.7722412048311857266881883192018,11971.2,1.5722412048311857266881883192018
174,12111.5734020131212930925336978456392,12110.0,1.5734020131212930925336978456392
175,12251.1745561664693331599194220591894,12249.6,1.5745561664693331599194220591894
176,12391.5757037407806217867928521766156,12390.0,1.5757037407806217867928521766156
177,12532.7768448106691661337065115366471,12531.2,1.5768448106691661337065115366471
178,12674.7779794494867958575635243266624,12673.2,1.5779794494867958575635243266624
179,12817.5791077293514757995945460836919,12816.0,1.5791077293514757995945460836919
180,12961.1802297211748311139417702731962,12959.6,1.5802297211748311139417702731962
181,13105.5813454946889074854125879907610,13104.0,1.5813454946889074854125879907610
182,13250.7824551184721941317649413935587,13249.2,1.5824551184721941317649413935587
183,13396.7835586599749326397751633314961,13395.2,1.5835586599749326397751633314961
184,13543.5846561855437358766008226721833,13542.0,1.5846561855437358766008226721833
185,13691.1857477604455387845389423091566,13689.6,1.5857477604455387845389423091566
186,13839.5868334488909020277752713668665,13838.0,1.5868334488909020277752713668665
187,13988.7879133140566922915991161089599,13987.2,1.5879133140566922915991161089599
188,14138.7889874181081546703745790250069,14137.2,1.5889874181081546703745790250069
189,14289.5900558222204008753326666987254,14288.0,1.5900558222204008753326666987254
190,14441.1911185865993289132355842491578,14439.6,1.5911185865993289132355842491578
191,14593.5921757705019934584382671801981,14592.0,1.5921757705019934584382671801981
192,14746.7932274322564433005230535142075,14745.2,1.5932274322564433005230535142075
193,14900.7942736292810441713275222893957,14899.2,1.5942736292810441713275222893957
194,15055.5953144181033002921199858824663,15054.0,1.5953144181033002921199858824663
195,15211.1963498543781925732524426142355,15209.6,1.5963498543781925732524426142355
196,15367.5973799929060471581619110686123,15366.0,1.5973799929060471581619110686123
197,15524.7984048876499486870114148624685,15523.2,1.5984048876499486870114148624685
198,15682.7994245917527124419198322918124,15681.2,1.5994245917527124419198322918124
199,15841.6004391575534282076047793199639,15840.0,1.6004391575534282076047793199639
200,16001.2014486366035897876076003026946,15999.6,1.6014486366035897876076003026946
201,16161.6024530796828211524878362487222,16160.0,1.6024530796828211524878362487222
202,16322.8034525368142125961074421134804,16321.2,1.6034525368142125961074421134804
203,16484.8044470572792775546950855168335,16483.2,1.6044470572792775546950855168335
204,16647.6054366896325417035612367702362,16646.0,1.6054366896325417035612367702362
205,16811.2064214817157742967847821369539,16809.6,1.6064214817157742967847821369539
206,16975.6074014806718747685772933147925,16974.0,1.6074014806718747685772933147925
207,17140.8083767329584204669596311118757,17139.2,1.6083767329584204669596311118757
208,17306.8093472843608897411647399703156,17305.2,1.6093472843608897411647399703156
209,17473.6103131800055661256037707876725,17472.0,1.6103131800055661256037707876725
210,17641.2112744643721351160040204157988,17639.6,1.6112744643721351160040204157988
211,17809.6122311813059808966846283774712,17808.0,1.6122311813059808966846283774712
212,17978.8131833740301932461020477795763,17977.2,1.6131833740301932461020477795763
213,18148.8141310851572889985633729147228,18147.2,1.6141310851572889985633729147228
214,18319.6150743567006630378004700502095,18318.0,1.6150743567006630378004700502095
215,18491.2160132300857680286403849334535,18489.6,1.6160132300857680286403849334535
216,18663.6169477461610368412325191601084,18662.0,1.6169477461610368412325191601084
217,18836.8178779452085516268781474733027,18835.2,1.6178779452085516268781474733027
218,19010.8188038669544685179162416427303,19009.2,1.6188038669544685179162416427303
219,19185.6197255505792012246050453537464,19184.0,1.6197255505792012246050453537464
220,19361.2206430347273760371301834883327,19359.6,1.6206430347273760371301834883327
221,19537.6215563575175561350338037361214,19536.0,1.6215563575175561350338037361214
222,19714.8224655565517524014329499933420,19713.2,1.6224655565517524014329499933420
223,19892.8233706689247143028626448787182,19891.2,1.6233706689247143028626448787182
224,20071.6242717312330158940455666617169,20070.0,1.6242717312330158940455666617169
225,20251.2251687795839395041346122242053,20249.6,1.6251687795839395041346122242053
226,20431.6260618496041606423729661191163,20430.0,1.6260618496041606423729661191163
227,20612.8269509764482427660220885712369,20611.2,1.6269509764482427660220885712369
228,20794.8278361948069437207612759829681,20793.2,1.6278361948069437207612759829681
229,20977.6287175389153410057058626307325,20976.0,1.6287175389153410057058626307325
230,21161.2295950425607805492849181912633,21159.6,1.6295950425607805492849181912633
231,21345.6304687390906507852453171063569,21344.0,1.6304687390906507852453171063569
232,21530.8313386614199924376993631674115,21529.2,1.6313386614199924376993631674115
233,21716.8322048420389390007168184394664,21715.2,1.6322048420389390007168184394664
234,21903.6330673130200040585239522748001,21902.0,1.6330673130200040585239522748001
235,22091.2339261060252086174056961983891,22089.6,1.6339261060252086174056961983891
236,22279.6347812523130581480762913890830,22278.0,1.6347812523130581480762913890830
237,22468.8356327827453729586412149774558,22467.2,1.6356327827453729586412149774558
238,22658.8364807277939736291580856533850,22657.2,1.6364807277939736291580856533850
