Eigenstate,Energy,Kinetic Energy,Potential Energy
1,0.500000000017160178880121682021455487,0.0,0.500000000017160178880121682021455487
2,1.84623093776312727928544453653028723,1.2,0.64623093776312727928544453653028723
3,3.93633761003400341889018899873972523,3.2,0.73633761003400341889018899873972523
4,6.79966527849956521347491177334795487,6.0,0.79966527849956521347491177334795487
5,10.4480465764728095149813540233361525,9.6,0.8480465764728095149813540233361525
6,14.8870659987072218970572211922365304,14.0,0.8870659987072218970572211922365304
7,20.1197208266404193680235355194497178,19.2,0.9197208266404193680235355194497178
8,26.1477838466490602930046388151659306,25.2,0.9477838466490602930046388151659306
9,32.9723835577392602123021865921241713,32.0,0.9723835577392602123021865921241713
10,40.5942802140594896067116023604230990,39.6,0.9942802140594896067116023604230990
11,49.0140093857507194558211449706990180,48.0,1.0140093857507194558211449706990180
12,58.2319621681175306737832176981472678,57.2,1.0319621681175306737832176981472678
13,68.2484326912256938241711899647688852,67.2,1.0484326912256938241711899647688852
14,79.0636476527583236940575609261276792,78.0,1.0636476527583236940575609261276792
15,90.6777854338300599833107098647982866,89.6,1.0777854338300599833107098647982866
16,103.090988903857509801197920243470331,102.0,1.090988903857509801197920243470331
17,116.303374254020750430326852951737825,115.2,1.103374254020750430326852951737825
18,130.315037248269527823155755195280905,129.2,1.115037248269527823155755195280905
19,145.126057746427233621279220492597882,144.0,1.126057746427233621279220492597882
20,160.736503041824841221412373531534535,159.6,1.136503041824841221412373531534535
21,177.146430367382602711715064360798681,176.0,1.146430367382602711715064360798681
22,194.355888806768788846220545935063983,193.2,1.155888806768788846220545935063983
23,212.364920772336213593930763506099471,211.2,1.164920772336213593930763506099471
24,231.173563162522656226076505949472716,230.0,1.173563162522656226076505949472716
25,250.781848278646787658637068753052942,249.6,1.181848278646787658637068753052942
26,271.189804558715758169400620151712789,270.0,1.189804558715758169400620151712789
27,292.397457170387773210667683168352195,291.2,1.197457170387773210667683168352195
28,314.404828494331133231602066116594216,313.2,1.204828494331133231602066116594216
29,337.211938521426185604116868162445391,336.0,1.211938521426185604116868162445391
30,360.818805181607149177852605866596291,359.6,1.218805181607149177852605866596291
31,385.225444617994833490411574935044661,384.0,1.225444617994833490411574935044661
32,410.431871416893375074784272356140912,409.2,1.231871416893375074784272356140912
33,436.438098801914465502142811597167218,435.2,1.238098801914465502142811597167218
34,463.244138798741999532302806546085394,462.0,1.244138798741999532302806546085394
35,490.850002375710876678678694835786018,489.6,1.250002375710876678678694835786018
36,519.255699564340210616187654993294384,518.0,1.255699564340210616187654993294384
37,548.461239563157116312186350807986258,547.2,1.261239563157116312186350807986258
38,578.466630827516826017501666222589857,577.2,1.266630827516826017501666222589857
39,609.271881147627036605194095820491820,608.0,1.271881147627036605194095820491820
40,640.876997716588569961224461989211023,639.6,1.276997716588569961224461989211023
41,673.281987189947677857536373140922883,672.0,1.281987189947677857536373140922883
42,706.486855738000330136612572354913256,705.2,1.286855738000330136612572354913256
43,740.491609091882338691689012764275898,739.2,1.291609091882338691689012764275898
44,775.296252584311075711341112830526199,774.0,1.296252584311075711341112830526199
45,810.900791185706975088188533575524641,809.6,1.300791185706975088188533575524641
46,847.305229536309869608895566301386000,846.0,1.305229536309869608895566301386000
47,884.509571974811739930333088573221914,883.2,1.309571974811739930333088573221914
48,922.513822563949864982537006476600525,921.2,1.313822563949864982537006476600525
49,961.317985113439700895215981419011057,960.0,1.317985113439700895215981419011057
50,1000.92206320057269283092005931799950,999.6,1.32206320057269283092005931799950
51,1041.32606018875875714551948268170653,1040.0,1.32606018875875714551948268170653
52,1082.52997924425482608235213238464485,1081.2,1.32997924425482608235213238464485
53,1124.53382335128839708785925300336049,1123.2,1.33382335128839708785925300336049
54,1167.33759532575746770507908020058604,1166.0,1.33759532575746770507908020058604
55,1210.94129782766476150886134097966066,1209.6,1.34129782766476150886134097966066
56,1255.34493337242407597654483541351417,1254.0,1.34493337242407597654483541351417
57,1300.54850434115938422272508469714197,1299.2,1.34850434115938422272508469714197
58,1346.55201299010252534045129131413369,1345.2,1.35201299010252534045129131413369
59,1393.35546145918256414391950755619219,1392.0,1.35546145918256414391950755619219
60,1440.95885177988887660002901402317675,1439.6,1.35885177988887660002901402317675
61,1489.36218588248045300866639101176811,1488.0,1.36218588248045300866639101176811
62,1538.56546560260560998647007687980977,1537.2,1.36546560260560998647007687980977
63,1588.56869268738906041980917163922129,1587.2,1.36869268738906041980917163922129
64,1639.37186880103697807278950788031889,1638.0,1.37186880103697807278950788031889
65,1690.97499553000515869612829530815736,1689.6,1.37499553000515869612829530815736
66,1743.37807438777053214368560877176266,1742.0,1.37807438777053214368560877176266
67,1796.58110681924201771211600481405110,1795.2,1.38110681924201771211600481405110
68,1850.58409420484295875829577620747737,1849.2,1.38409420484295875829577620747737
69,1905.38703786429405997845516818276689,1904.0,1.38703786429405997845516818276689
70,1960.98993906012282246468150753815009,1959.6,1.38993906012282246468150753815009
71,2017.39279900092287295072842329400528,2016.0,1.39279900092287295072842329400528
72,2074.59561884438428541668706365879837,2073.2,1.39561884438428541668706365879837
73,2132.59839970011394021567197662514516,2131.2,1.39839970011394021567197662514516
74,2191.40114263226314703712193212228446,2190.0,1.40114263226314703712193212228446
75,2251.00384866197812692021318782749349,2249.6,1.40384866197812692021318782749349
76,2311.40651876968749897412768984741256,2310.0,1.40651876968749897412768984741256
77,2372.60915389723961506350079883808672,2371.2,1.40915389723961506350079883808672
78,2434.61175494990141991919308077509167,2433.2,1.41175494990141991919308077509167
79,2497.41432279822946731453860831881265,2496.0,1.41432279822946731453860831881265
80,2561.01685827982278482157791288120700,2559.6,1.41685827982278482157791288120700
81,2625.41936220096643032030717660876269,2624.0,1.41936220096643032030717660876269
82,2690.62183533817382198342186706930087,2689.2,1.42183533817382198342186706930087
83,2756.62427843963523472524340355267283,2755.2,1.42427843963523472524340355267283
84,2823.42669222657923181180137407553351,2822.0,1.42669222657923181180137407553351
85,2891.02907739455324105287019145412368,2889.6,1.42907739455324105287019145412368
86,2959.43143461462896913136981731319979,2958.0,1.43143461462896913136981731319979
87,3028.63376453453789015474030883006305,3027.2,1.43376453453789015474030883006305
88,3098.63606777974162113516431399375897,3097.2,1.43606777974162113516431399375897
89,3169.43834495444161360335015009813974,3168.0,1.43834495444161360335015009813974
90,3241.04059664253224734385884200286182,3239.6,1.44059664253224734385884200286182
91,3313.44282340850109078790782887975374,3312.0,1.44282340850109078790782887975374
92,3386.64502579827980430204492577168880,3385.2,1.44502579827980430204492577168880
93,3460.64720434004890035603052431266858,3459.2,1.44720434004890035603052431266858
94,3535.44935954499933162452791009728364,3534.0,1.44935954499933162452791009728364
95,3611.05149190805365692317256615491851,3609.6,1.45149190805365692317256615491851
96,3687.45360190854933305747494622566965,3686.0,1.45360190854933305747494622566965
97,3764.65569001088649632090155587644623,3763.2,1.45569001088649632090155587644623
98,3842.65775666514242450418452013174772,3841.2,1.45775666514242450418452013174772
99,3921.45980230765471680572065769644598,3920.0,1.45980230765471680572065769644598
100,4001.06182736157508269250505498967170,3999.6,1.46182736157508269250505498967170
101,4081.46383223739550145688961851438589,4080.0,1.46383223739550145688961851438589
102,4162.66581733344838863973603746355433,4161.2,1.46581733344838863973603746355433
103,4244.66778303638229757691969390555178,4243.2,1.46778303638229757691969390555178
104,4327.46972972161457706143065835993846,4326.0,1.46972972161457706143065835993846
105,4411.07165775376231303956099655815942,4409.6,1.47165775376231303956099655815942
106,4495.47356748705279149542391781533770,4494.0,1.47356748705279149542391781533770
107,4580.67545926571464159609487756777475,4579.2,1.47545926571464159609487756777475
108,4666.67733342435073893011035332097521,4665.2,1.47733342435073893011035332097521
109,4753.47919028829388007852586538332139,4752.0,1.47919028829388007852586538332139
110,4841.08103017394617733760974462924903,4839.6,1.48103017394617733760974462924903
111,4929.48285338910305655105063525519606,4928.0,1.48285338910305655105063525519606
112,5018.68466023326269157592323686417475,5017.2,1.48466023326269157592323686417475
113,5108.68645099792165337086272574385097,5107.2,1.48645099792165337086272574385097
114,5199.48822596685750293714195336161592,5198.0,1.48822596685750293714195336161592
115,5291.08998541639901689484293451009105,5289.6,1.48998541639901689484293451009105
116,5383.49172961568468614466594328565142,5382.0,1.49172961568468614466594328565142
117,5476.69345882691009635291274182884062,5475.2,1.49345882691009635291274182884062
118,5570.69517330556475796607491834373202,5569.2,1.49517330556475796607491834373202
119,5665.49687330065891974774200477961256,5664.0,1.49687330065891974774200477961256
120,5761.09855905494087398830905284382762,5759.6,1.49855905494087398830905284382762
121,5857.50023080510522327071915166027762,5856.0,1.50023080510522327071915166027762
122,5954.70188878199255976234353894512531,5953.2,1.50188878199255976234353894512531
123,6052.70353321078097581016999735099485,6051.2,1.50353321078097581016999735099485
124,6151.50516431116980693666154088459508,6150.0,1.50516431116980693666154088459508
125,6251.10678229755597876738431576080956,6249.6,1.50678229755597876738431576080956
126,6351.50838737920331422420604773906208,6350.0,1.50838737920331422420604773906208
127,6452.70997976040513673997999281766913,6451.2,1.50997976040513673997999281766913
128,6554.71155964064048266343946046278525,6553.2,1.51155964064048266343946046278525
129,6657.51312721472422394978985946202323,6656.0,1.51312721472422394978985946202323
130,6761.11468267295138385061795158736512,6759.6,1.51468267295138385061795158736512
131,6865.51622620123591291261993866460019,6864.0,1.51622620123591291261993866460019
132,6970.71775798124417761744917383716047,6969.2,1.51775798124417761744917383716047
133,7076.71927819052340221340039090055535,7075.2,1.51927819052340221340039090055535
134,7183.52078700262529301368841980470428,7182.0,1.52078700262529301368841980470428
135,7291.12228458722505632773690929227705,7289.6,1.52228458722505632773690929227705
136,7399.52377111023601750436223028169854,7398.0,1.52377111023601750436223028169854
137,7508.72524673392003525779408705783220,7507.2,1.52524673392003525779408705783220
138,7618.72671161699389183548382463936505,7617.2,1.52671161699389183548382463936505
139,7729.52816591473183748074576682004441,7728.0,1.52816591473183748074576682004441
140,7841.12960977906445219730866232486595,7839.6,1.52960977906445219730866232486595
141,7953.53104335867398326536437579867028,7952.0,1.53104335867398326536437579867028
142,8066.73246679908630888543383290648290,8065.2,1.53246679908630888543383290648290
143,8180.73388024275966967620101884800743,8179.2,1.53388024275966967620101884800743
144,8295.53528382917030257282872024727611,8294.0,1.53528382917030257282872024727611
145,8411.13667769489510748451076307830382,8409.6,1.53667769489510748451076307830382
146,8527.53806197369146920126443400323715,8526.0,1.53806197369146920126443400323715
147,8644.73943679657434883700083197206771,8643.2,1.53943679657434883700083197206771
148,8762.74080229189076013787758157351678,8761.2,1.54080229189076013787758157351678
149,8881.54215858539173245686398746152408,8880.0,1.54215858539173245686398746152408
150,9001.14350580030186403537158388442345,8999.6,1.54350580030186403537158388442345
151,9121.54484405738656150617921364754538,9120.0,1.54484405738656150617921364754538
152,9242.74617347501705591679714079500011,9241.2,1.54617347501705591679714079500011
153,9364.74749416923328422293802373380651,9363.2,1.54749416923328422293802373380651
154,9487.54880625380472015131059439915743,9486.0,1.54880625380472015131059439915743
155,9611.15010984028923266770210072272168,9609.6,1.55010984028923266770210072272168
156,9735.55140503809004991668549553907596,9734.0,1.55140503809004991668549553907596
157,9860.75269195451089967952732864824274,9859.2,1.55269195451089967952732864824274
158,9986.75397069480939816836982092678776,9985.2,1.55397069480939816836982092678776
159,10113.5552413622487508294926013270063,10112.0,1.5552413622487508294926013270063
160,10241.1565040581478314931638710617972,10239.6,1.5565040581478314931638710617972
161,10369.5577588819296983661719751428875,10368.0,1.5577588819296983661719751428875
162,10498.7590059311686063281088443862371,10497.2,1.5590059311686063281088443862371
163,10628.7602453016355703846746273330853,10627.2,1.5602453016355703846746273330853
164,10759.5614770873425349145685166003063,10758.0,1.5614770873425349145685166003063
165,10891.1627013805851973101534560833333,10889.6,1.5627013805851973101534560833333
166,11023.5639182719845365274534542203978,11022.0,1.5639182719845365274534542203978
167,11156.7651278505270937777729773881958,11155.2,1.5651278505270937777729773881958
168,11290.7663302036040480498219074959530,11289.2,1.5663302036040480498219074959530
169,11425.5675254170491315244066618438328,11424.0,1.5675254170491315244066618438328
170,11561.1687135751754246247731400078029,11559.6,1.5687135751754246247731400078029
171,11697.5698947608110708970322663086579,11696.0,1.5698947608110708970322663086579
172,11834.7710690553339495872959712806089,11833.2,1.5710690553339495872959712806089
173,11972.7722365387053413178243283405025,11971.2,1.5722365387053413178243283405025
174,12111.5733972895026227056677301679111,12110.0,1.5733972895026227056677301679111
175,12251.1745513849510239087070228602654,12249.6,1.5745513849510239087070228602654
176,12391.5756989009544788054142920471316,12390.0,1.5756989009544788054142920471316
177,12532.7768399121256010688416251464927,12531.2,1.5768399121256010688416251464927
178,12674.7779744918148152892038727611032,12673.2,1.5779744918148152892038727611032
179,12817.5791027121386695899710236961437,12816.0,1.5791027121386695899710236961437
180,12961.1802246440073606838389025730247,12959.6,1.5802246440073606838389025730247
181,13105.5813403571514940171340675786947,13104.0,1.5813403571514940171340675786947
182,13250.7824499201481066980079957297222,13249.2,1.5824499201481066980079957297222
183,13396.7835534004459762576641552892227,13395.2,1.5835534004459762576641552892227
184,13543.5846508643902394861236310902618,13542.0,1.5846508643902394861236310902618
185,13691.1857423772463431506220938257456,13689.6,1.5857423772463431506220938257456
186,13839.5868280032233475652269748769464,13838.0,1.5868280032233475652269748769464
187,13988.7879078054966068121414962846130,13987.2,1.5879078054966068121414962846130
188,14138.7889818462298410509792646914883,14137.2,1.5889818462298410509792646914883
189,14289.5900501865966246470661304657411,14288.0,1.5900501865966246470661304657411
190,14441.1911128868013057698130041349082,14439.6,1.5911128868013057698130041349082
191,14593.5921700060993766836770044307682,14592.0,1.5921700060993766836770044307682
192,14746.7932216028173111138788190324857,14745.2,1.5932216028173111138788190324857
193,14900.7942677343718869906885331310506,14899.2,1.5942677343718869906885331310506
194,15055.5953084572890079130261949312065,15054.0,1.5953084572890079130261949312065
195,15211.1963438272220412636989412558900,15209.6,1.5963438272220412636989412558900
196,15367.5973738989696866681371714678407,15366.0,1.5973738989696866681371714678407
197,15524.7983987264933891719127231147329,15523.2,1.5983987264933891719127231147329
198,15682.7994183629343112989800090094040,15681.2,1.5994183629343112989800090094040
199,15841.6004328606298768244553131801514,15840.0,1.6004328606298768244553131801514
200,16001.2014422711299002020950046300437,15999.6,1.6014422711299002020950046300437
201,16161.6024466452123126228512021836372,16160.0,1.6024466452123126228512021836372
202,16322.8034460328984980806159559553997,16321.2,1.6034460328984980806159559553997
203,16484.8044404834682500998357007511276,16483.2,1.6044404834682500998357007511276
204,16647.6054300454743607398572175633305,16646.0,1.6054300454743607398572175633305
205,16811.2064147667568518413169043403612,16809.6,1.6064147667568518413169043403612
206,16975.6073946944568615332699105964378,16974.0,1.6073946944568615332699105964378
207,17140.8083698750301918716844296724772,17139.2,1.6083698750301918716844296724772
208,17306.8093403542605318307054446841514,17305.2,1.6093403542605318307054446841514
209,17473.6103061772723613895152517087212,17472.0,1.6103061772723613895152517087212
210,17641.2112673885435482103894951962971,17639.6,1.6112673885435482103894951962971
211,17809.6122240319176442669048379837122,17808.0,1.6122240319176442669048379837122
212,17978.8131761506158926494200649263798,17977.2,1.6131761506158926494200649263798
213,18148.8141237872489489257182290338934,18147.2,1.6141237872489489257182290338934
214,18319.6150669838283320324931069440258,18318.0,1.6150669838283320324931069440258
215,18491.2160057817776039039043114449013,18489.6,1.6160057817776039039043114449013
216,18663.6169402219432917916512438041292,18662.0,1.6169402219432917916512438041292
217,18836.8178703446055572356009973337637,18835.2,1.6178703446055572356009973337637
218,19010.8187961894886206574127807172716,19009.2,1.6187961894886206574127807172716
219,19185.6197177957709448500873749881399,19184.0,1.6197177957709448500873749881399
220,19361.2206352020951898715619176117084,19359.6,1.6206352020951898715619176117084
221,19537.6215484465779372446321692100444,19536.0,1.6215484465779372446321692100444
222,19714.8224575668192006605600583620161,19713.2,1.6224575668192006605600583620161
223,19892.8233625999117167471897734914182,19891.2,1.6233625999117167471897734914182
224,20071.6242635824500309608626862196227,20070.0,1.6242635824500309608626862196227
225,20251.2251605505393811586655373938828,20249.6,1.6251605505393811586655373938828
226,20431.6260535398043823889445882725401,20430.0,1.6260535398043823889445882725401
227,20612.8269425853975215429239533247071,20611.2,1.6269425853975215429239533247071
228,20794.8278277220074636776191304256800,20793.2,1.6278277220074636776191304256800
229,20977.6287089838671771621807063575713,20976.0,1.6287089838671771621807063575713
230,21161.2295864047618823338962570012702,21159.6,1.6295864047618823338962570012702
231,21345.6304600180368254531044197844959,21344.0,1.6304600180368254531044197844959
232,21530.8313298566048883659254752437024,21529.2,1.6313298566048883659254752437024
233,21716.8321959529540288602961019543340,21715.2,1.6321959529540288602961019543340
234,21903.6330583391545678613574170164716,21902.0,1.6330583391545678613574170164716
235,22091.2339170468663166372793381182440,22089.6,1.6339170468663166372793381182440
236,22279.6347721073455537142723707458258,22278.0,1.6347721073455537142723707458258
237,22468.8356235514518551208963422771553,22467.2,1.6356235514518551208963422771553
238,22658.8364714096547796926594120765047,22657.2,1.6364714096547796926594120765047
