Eigenstate,Energy,Kinetic Energy,Potential Energy
1,0.500000000077927700812984188472703006,0.0,0.500000000077927700812984188472703006
2,1.84623093815978692199138962732412747,1.2,0.64623093815978692199138962732412747
3,3.93633761119916334421213096876066034,3.2,0.73633761119916334421213096876066034
4,6.79966528092647237007077878427264467,6.0,0.79966528092647237007077878427264467
5,10.4480465806767359969922196902134312,9.6,0.8480465806767359969922196902134312
6,14.8870660052124745656037432016006438,14.0,0.8870660052124745656037432016006438
7,20.1197208359755554470973938318149813,19.2,0.9197208359755554470973938318149813
8,26.1477838593448938713570018751847968,25.2,0.9477838593448938713570018751847968
9,32.9723835743279369153326401305062131,32.0,0.9723835743279369153326401305062131
10,40.5942802350740184726122152712871925,39.6,0.9942802350740184726122152712871925
11,49.0140094117247200447045966449151913,48.0,1.0140094117247200447045966449151913
12,58.2319621995850898583548355161543989,57.2,1.0319621995850898583548355161543989
13,68.2484327287212822935351911965428772,67.2,1.0484327287212822935351911965428772
14,79.0636476968167468246412196000867728,78.0,1.0636476968167468246412196000867728
15,90.6777854849864294449715885415612463,89.6,1.0777854849864294449715885415612463
16,103.090988962647228190348096902681644,102.0,1.090988962647228190348096902681644
17,116.303374320979504379209949698266102,115.2,1.103374320979504379209949698266102
18,130.315037323933286795733353058563230,129.2,1.115037323933286795733353058563230
19,145.126057831332252628702251023991381,144.0,1.126057831332252628702251023991381
20,160.736503136507666304866589563783031,159.6,1.136503136507666304866589563783031
21,177.146430472380078421776114749296118,176.0,1.146430472380078421776114749296118
22,194.355888922618067191038616419553635,193.2,1.155888922618067191038616419553635
23,212.364920899574764087546041550925795,211.2,1.164920899574764087546041550925795
24,231.173563301688276774454215857437313,230.0,1.173563301688276774454215857437313
25,250.781848430277616093525239017507788,249.6,1.181848430277616093525239017507788
26,271.189804723350284290506798100395198,270.0,1.189804723350284290506798100395198
27,292.397457348564851232265219678387544,291.2,1.197457348564851232265219678387544
28,314.404828686589994555237362679833324,313.2,1.204828686589994555237362679833324
29,337.211938728306451857695987989023517,336.0,1.211938728306451857695987989023517
30,360.818805403648845475108747689897150,359.6,1.218805403648845475108747689897150
31,385.225444855738401874999148386035847,384.0,1.225444855738401874999148386035847
32,410.431871670879688120978704867992260,409.2,1.231871670879688120978704867992260
33,436.438099072684840050024434893793921,435.2,1.238099072684840050024434893793921
34,463.244139086838210539847096676913044,462.0,1.244139086838210539847096676913044
35,490.850002681675171176707182314065752,489.6,1.250002681675171176707182314065752
36,519.255699888715321754902624387760905,518.0,1.255699888715321754902624387760905
37,548.461239906486277490200596021582011,547.2,1.261239906486277490200596021582011
38,578.466631190343785086016640999672258,577.2,1.266631190343785086016640999672258
39,609.271881530496070141376762833884128,608.0,1.271881530496070141376762833884128
40,640.876998120044497605960933966831849,639.6,1.276998120044497605960933966831849
41,673.281987614535876713656555449352636,672.0,1.281987614535876713656555449352636
42,706.486856184266749224428927150269620,705.2,1.286856184266749224428927150269620
43,740.491609560373513459308219342182903,739.2,1.291609560373513459308219342182903
44,775.296253075574142597716215397735953,774.0,1.296253075574142597716215397735953
45,810.900791700289686137302065587291610,809.6,1.300791700289686137302065587291610
46,847.305230074760607133817392604403299,846.0,1.305230074760607133817392604403299
47,884.509572537679531226193055927853785,883.2,1.309572537679531226193055927853785
48,922.513823151784397087702558097313382,921.2,1.313823151784397087702558097313382
49,961.317985726791335400176650353896720,960.0,1.317985726791335400176650353896720
50,1000.92206383999248073456087944793625,999.6,1.32206383999248073456087944793625
51,1041.32606085479845375861954044766143,1040.0,1.32606085479845375861954044766143
52,1082.52997993746690597827661841381890,1081.2,1.32997993746690597827661841381890
53,1124.53382407222606910052730623897447,1123.2,1.33382407222606910052730623897447
54,1167.33759607497468997438849483918110,1166.0,1.33759607497468997438849483918110
55,1210.94129860571625657383689607096243,1209.6,1.34129860571625657383689607096243
56,1255.34493417986534591655195557912759,1254.0,1.34493417986534591655195557912759
57,1300.54850517854672584715601773272096,1299.2,1.34850517854672584715601773272096
58,1346.55201385799304542734908133044169,1345.2,1.35201385799304542734908133044169
59,1393.35546235813419472805577104094690,1392.0,1.35546235813419472805577104094690
60,1440.95885271046039031099711938667665,1439.6,1.35885271046039031099711938667665
61,1489.36218684523147845959198667332084,1488.0,1.36218684523147845959198667332084
62,1538.56546659809664721397723945353888,1537.2,1.36546659809664721397723945353888
63,1588.56869371618149637591297667708233,1587.2,1.36869371618149637591297667708233
64,1639.37186986369310216941521948636869,1638.0,1.37186986369310216941521948636869
65,1690.97499662708817840298436169442254,1689.6,1.37499662708817840298436169442254
66,1743.37807551984458864024184843236728,1742.0,1.37807551984458864024184843236728
67,1796.58110798687220159446083820362069,1795.2,1.38110798687220159446083820362069
68,1850.58409540859532580166696443548621,1849.2,1.38409540859532580166696443548621
69,1905.38703910473564695625774898464314,1904.0,1.38703910473564695625774898464314
70,1960.98994033782166302482400450507581,1959.6,1.38994033782166302482400450507581
71,2017.39280031644801355012550459074589,2016.0,1.39280031644801355012550459074589
72,2074.59562019830580131479188985943670,2073.2,1.39562019830580131479188985943670
73,2132.59840109300295152791660258689578,2131.2,1.39840109300295152791660258689578
74,2191.40114406469183484915776843241095,2190.0,1.40114406469183484915776843241095
75,2251.00385013451974946385703494164106,2249.6,1.40385013451974946385703494164106
76,2311.40652028291640786593127716974960,2310.0,1.40652028291640786593127716974960
77,2372.60915545173127160687413199587932,2371.2,1.40915545173127160687413199587932
78,2434.61175654623241147102364124977131,2433.2,1.41175654623241147102364124977131
79,2497.41432443697752371725979306626657,2496.0,1.41432443697752371725979306626657
80,2561.01685996156679490165102752813637,2559.6,1.41685996156679490165102752813637
81,2625.41936392628645845409229599812092,2624.0,1.41936392628645845409229599812092
82,2690.62183710765112473142327007977192,2689.2,1.42183710765112473142327007977192
83,2756.62428025385227753572561474077890,2755.2,1.42428025385227753572561474077890
84,2823.42669408611970579478209501639727,2822.0,1.42669408611970579478209501639727
85,2891.02907930000207982550644271247760,2889.6,1.42907930000207982550644271247760
86,2959.43143656657236573576337971749226,2958.0,1.43143656657236573576337971749226
87,3028.63376653356331404919866081131391,3027.2,1.43376653356331404919866081131391
88,3098.63606982643783525996284262638528,3097.2,1.43606982643783525996284262638528
89,3169.43834704939869152205117861391383,3168.0,1.43834704939869152205117861391383
90,3241.04059878634159046125271669467023,3239.6,1.44059878634159046125271669467023
91,3313.44282560175544564565110210404468,3312.0,1.44282560175544564565110210404468
92,3386.64502804157327995308018070091147,3385.2,1.44502804157327995308018070091147
93,3460.64720663397698581888222508136117,3459.2,1.44720663397698581888222508136117
94,3535.44936189015891341857835926437912,3534.0,1.44936189015891341857835926437912
95,3611.05149430504303668603182848912740,3609.6,1.45149430504303668603182848912740
96,3687.45360435796824524556829722581601,3686.0,1.45360435796824524556829722581601
97,3764.65569251333612599440813006464999,3763.2,1.45569251333612599440813006464999
98,3842.65775922122542519747044002341751,3841.2,1.45775922122542519747044002341751
99,3921.45980491797522848442025807383768,3920.0,1.45980491797522848442025807383768
100,4001.06183002673874979841363757841756,3999.6,1.46183002673874979841363757841756
101,4081.46383495800949104184155536180228,4080.0,1.46383495800949104184155536180228
102,4162.66582011012140858965213678649332,4161.2,1.46582011012140858965213678649332
103,4244.66778586972461492721804505870099,4243.2,1.46778586972461492721804505870099
104,4327.46973261223803640500607569366038,4326.0,1.46973261223803640500607569366038
105,4411.07166070228035502854813098972775,4409.6,1.47166070228035502854813098972775
106,4495.47357049408047143797029121252194,4494.0,1.47357049408047143797029121252194
107,4580.67546233186864814938061219226591,4579.2,1.47546233186864814938061219226591
108,4666.67733655024941289086241682483295,4665.2,1.47733655024941289086241682483295
109,4753.47919347455723327228577781142383,4752.0,1.47919347455723327228577781142383
110,4841.08103342119591160802470855200635,4839.6,1.48103342119591160802470855200635
111,4929.48285669796258285046944608794663,4928.0,1.48285669796258285046944608794663
112,5018.68466360435714915858988788772702,5017.2,1.48466360435714915858988788772702
113,5108.68645443187792909001210146155237,5107.2,1.48645443187792909001210146155237
114,5199.48822946430425064731385608217735,5198.0,1.48822946430425064731385608217735
115,5291.08998897796667696074247451070483,5289.6,1.48998897796667696074247451070483
116,5383.49173324200550505791056958658761,5382.0,1.49173324200550505791056958658761
117,5476.69346251861814645801819224650033,5475.2,1.49346251861814645801819224650033
118,5570.69517706329595729704490701543460,5569.2,1.49517706329595729704490701543460
119,5665.49687712505105197663882434808139,5664.0,1.49687712505105197663882434808139
120,5761.09856294663360848719527600068638,5759.6,1.49856294663360848719527600068638
121,5857.50023476474013528837318774657598,5856.0,1.50023476474013528837318774657598
122,5954.70189281021315071716500823287306,5953.2,1.50189281021315071716500823287306
123,6052.70353730823269370070406574499476,6051.2,1.50353730823269370070406574499476
124,6151.50516847850006687118476364443140,6150.0,1.50516847850006687118476364443140
125,6251.10678653541418361400813075605588,6249.6,1.50678653541418361400813075605588
126,6351.50839168824087538296788354351573,6350.0,1.50839168824087538296788354351573
127,6452.70998414127549503840581233166103,6451.2,1.50998414127549503840581233166103
128,6554.71156409399912937707582767932397,6553.2,1.51156409399912937707582767932397
129,6657.51313174122872194921788878906930,6656.0,1.51313174122872194921788878906930
130,6761.11468727326138887647607916429420,6759.6,1.51468727326138887647607916429420
131,6865.51623087601319498017705431480817,6864.0,1.51623087601319498017705431480817
132,6970.71776273115264255228512425742780,6969.2,1.51776273115264255228512425742780
133,7076.71928301622911331976510731059913,7075.2,1.51928301622911331976510731059913
134,7183.52079190479649287712727587472067,7182.0,1.52079190479649287712727587472067
135,7291.12228956653218875358489393653015,7289.6,1.52228956653218875358489393653015
136,7399.52377616735174959372539035882828,7398.0,1.52377616735174959372539035882828
137,7508.72525186951927962265290073943740,7507.2,1.52525186951927962265290073943740
138,7618.72671683175382895456925313672347,7617.2,1.52671683175382895456925313672347
139,7729.52817120933193819785536277157204,7728.0,1.52817120933193819785536277157204
140,7841.12961515418650036374665336485391,7839.6,1.52961515418650036374665336485391
141,7953.53104881500209852820655702025366,7952.0,1.53104881500209852820655702025366
142,8066.73247233730696962333547871651173,8065.2,1.53247233730696962333547871651173
143,8180.73388586356173608448324112296563,8179.2,1.53388586356173608448324112296563
144,8295.53528953324503989959649059260096,8294.0,1.53528953324503989959649059260096
145,8411.13668348293620941957354919343374,8409.6,1.53668348293620941957354919343374
146,8527.53806784639508141964874749108874,8526.0,1.53806784639508141964874749108874
147,8644.73944275463909269886240854057408,8643.2,1.53944275463909269886240854057408
148,8762.74080833601775654663917900574451,8761.2,1.54080833601775654663917900574451
149,8881.54216471628462587742448779286498,8880.0,1.54216471628462587742448779286498
150,9001.14351201866684667425026716444832,8999.6,1.54351201866684667425026716444832
151,9121.54485036393239765547961905970192,9120.0,1.54485036393239765547961905970192
152,9242.74617987045510646389385649927526,9241.2,1.54617987045510646389385649927526
153,9364.74750065427753132781019120140427,9363.2,1.54750065427753132781019120140427
154,9487.54881282917179209346597484161063,9486.0,1.54881282917179209346597484161063
155,9611.15011650669842886465624391000757,9609.6,1.55011650669842886465624391000757
156,9735.55141179626336611598173210374345,9734.0,1.55141179626336611598173210374345
157,9860.75269880517305332630378038132944,9859.2,1.55269880517305332630378038132944
158,9986.75397763868785395050183584342357,9985.2,1.55397763868785395050183584342357
159,10113.5552484000737464023602501661111,10112.0,1.5552484000737464023602501661111
160,10241.1565111906524033861166308887023,10239.6,1.5565111906524033861166308887023
161,10369.5577661098497080727848167528063,10368.0,1.5577661098497080727848167528063
162,10498.7590132552427665823469554181004,10497.2,1.5590132552427665823469554181004
163,10628.7602527226054716251066001683393,10627.2,1.5602527226054716251066001683393
164,10759.5614846059526719387916277519753,10758.0,1.5614846059526719387916277519753
165,10891.1627089975829961216184040528113,10889.6,1.5627089975829961216184040528113
166,11023.5639259881203813768994236337887,11022.0,1.5639259881203813768994236337887
167,11156.7651356665543544015086390767731,11155.2,1.5651356665543544015086390767731
168,11290.7663381202791071071129895357319,11289.2,1.5663381202791071071129895357319
169,11425.5675334351314122362549659850117,11424.0,1.5675334351314122362549659850117
170,11561.1687216954274186163982783486979,11559.6,1.5687216954274186163982783486979
171,11697.5699029839983662463924175608120,11696.0,1.5699029839983662463924175608120
172,11834.7710773822252590820105469883347,11833.2,1.5710773822252590820105469883347
173,11972.7722449700725309228877637298533,11971.2,1.5722449700725309228877637298533
174,12111.5734058261207402443706529855255,12110.0,1.5734058261207402443706529855255
175,12251.1745600275983279592083730288249,12249.6,1.5745600275983279592083730288249
176,12391.5757076504124678154354815436273,12390.0,1.5757076504124678154354815436273
177,12532.7768487691790426909822007641649,12531.2,1.5768487691790426909822007641649
178,12674.7779834572517759394062065160689,12673.2,1.5779834572517759394062065160689
179,12817.5791117867505442316909523845286,12816.0,1.5791117867505442316909523845286
180,12961.1802338285889028405082306180002,12959.6,1.5802338285889028405082306180002
181,13105.5813496525008460155307146632635,13104.0,1.5813496525008460155307146632635
182,13250.7824593270668301451794794799722,13249.2,1.5824593270668301451794794799722
183,13396.7835629197390827540812489285963,13395.2,1.5835629197390827540812489285963
184,13543.5846604968662215777712439217366,13542.0,1.5846604968662215777712439217366
185,13691.1857521237172055227674027406378,13689.6,1.5857521237172055227674027406378
186,13839.5868378645046384806344259351589,13838.0,1.5868378645046384806344259351589
187,13988.7879177824074497965391446942223,13987.2,1.5879177824074497965391446942223
188,14138.7889919395929668286122050945216,14137.2,1.5889919395929668286122050945216
189,14289.5900603972384033292067750619903,14288.0,1.5900603972384033292067750619903
190,14441.1911232155517792991315075149798,14439.6,1.5911232155517792991315075149798
191,14593.5921804537922915374099130230648,14592.0,1.5921804537922915374099130230648
192,14746.7932321702901512687683957518382,14745.2,1.5932321702901512687683957518382
193,14900.7942784224659071527007583171038,14899.2,1.5942784224659071527007583171038
194,15055.5953192668492670148910307944904,15054.0,1.5953192668492670148910307944904
195,15211.1963547590974362333534657158428,15209.6,1.5963547590974362333534657158428
196,15367.5973849540129864711882553380576,15366.0,1.5973849540129864711882553380576
197,15524.7984099055612691312740006087350,15523.2,1.5984099055612691312740006087350
198,15682.7994296668873876948755855210167,15681.2,1.5994296668873876948755855210167
199,15841.6004442903327417780216080593410,15840.0,1.6004442903327417780216080593410
200,16001.2014538274511568458505776671176,15999.6,1.6014538274511568458505776671176
201,16161.6024583290246105613442586644034,16160.0,1.6024583290246105613442586644034
202,16322.8034578450785691446006626206793,16321.2,1.6034578450785691446006626206793
203,16484.8044524248969443973673166593884,16483.2,1.6044524248969443973673166593884
204,16647.6054421170366830077395015713754,16646.0,1.6054421170366830077395015713754
205,16811.2064269693419981003755826816474,16809.6,1.6064269693419981003755826816474
206,16975.6074070289582560509703805716993,16974.0,1.6074070289582560509703805716993
207,17140.8083823423455244356538380248086,17139.2,1.6083823423455244356538380248086
208,17306.8093529552917953367640704648030,17305.2,1.6093529552917953367640704648030
209,17473.6103189129258897478667601882478,17472.0,1.6103189129258897478667601882478
210,17641.2112802597300545736644335526325,17639.6,1.6112802597300545736644335526325
211,17809.6122370395522595837982182501248,17808.0,1.6122370395522595837982182501248
212,17978.8131892956182045477102168240662,17977.2,1.6131892956182045477102168240662
213,18148.8141370705430409285020137662944,18147.2,1.6141370705430409285020137662944
214,18319.6150804063428231115198597119825,18318.0,1.6150804063428231115198597119825
215,18491.2160193444456883739405401352088,18489.6,1.6160193444456883739405401352088
216,18663.6169539257027795498570299146115,18662.0,1.6169539257027795498570299146115
217,18836.8178841903989143499497728734836,18835.2,1.6178841903989143499497728734836
218,19010.8188101782630103082364853653370,19009.2,1.6188101782630103082364853653370
219,19185.6197319284782686288820769849706,19184.0,1.6197319284782686288820769849706
220,19361.2206494796921294412401080352107,19359.6,1.6206494796921294412401080352107
221,19537.6215628700259963654626236757208,19536.0,1.6215628700259963654626236757208
222,19714.8224721370847475860895182351889,19713.2,1.6224721370847475860895182351889
223,19892.8233773179660269944959109901898,19891.2,1.6233773179660269944959109901898
224,20071.6242784492693304595439020219420,20070.0,1.6242784492693304595439020219420
225,20251.2251755671048897830299731821613,20249.6,1.6251755671048897830299731821613
226,20431.6260687071023578779177815283390,20430.0,1.6260687071023578779177815283390
227,20612.8269579044193038122531772101432,20611.2,1.6269579044193038122531772101432
228,20794.8278431937495195290125601076792,20793.2,1.6278431937495195290125601076792
229,20977.6287246093311453940788225432623,20976.0,1.6287246093311453940788225432623
230,21161.2296021849546192586344961277741,21159.6,1.6296021849546192586344961277741
231,21345.6304759539704508252884756094517,21344.0,1.6304759539704508252884756094517
232,21530.8313459492968317269033245330906,21529.2,1.6313459492968317269033245330906
233,21716.8322122034270763036751347168657,21715.2,1.6322122034270763036751347168657
234,21903.6330747484369092245804274752770,21902.0,1.6330747484369092245804274752770
235,22091.2339336159915931243380919629339,22089.6,1.6339336159915931243380919629339
236,22279.6347888373529059547059341026794,22278.0,1.6347888373529059547059341026794
237,22468.8356404433859716702889539814609,22467.2,1.6356404433859716702889539814609
238,22658.8364884645659459799210788123118,22657.2,1.6364884645659459799210788123118
