Eigenstate,Energy,Kinetic Energy,Potential Energy
1,0.500000000014675051806124759253772258,0.0,0.500000000014675051806124759253772258
2,1.84623093774690568795259693562692739,1.2,0.64623093774690568795259693562692739
3,3.93633760998635390868279446469570168,3.2,0.73633760998635390868279446469570168
4,6.79966527840031702530707320022361321,6.0,0.79966527840031702530707320022361321
5,10.4480465763008920071032318000189512,9.6,0.8480465763008920071032318000189512
6,14.8870659984411960876038926830027105,14.0,0.8870659984411960876038926830027105
7,20.1197208262586738892129222263375016,19.2,0.9197208262586738892129222263375016
8,26.1477838461298932097128437452527098,25.2,0.9477838461298932097128437452527098
9,32.9723835570609171574097279321891022,32.0,0.9723835570609171574097279321891022
10,40.5942802132001832190517003970805564,39.6,0.9942802132001832190517003970805564
11,49.0140093846886400163014176755629182,48.0,1.0140093846886400163014176755629182
12,58.2319621668308522562821408837750216,57.2,1.0319621668308522562821408837750216
13,68.2484326896925780047119783935707992,67.2,1.0484326896925780047119783935707992
14,79.0636476509569218548170654732880644,78.0,1.0636476509569218548170654732880644
15,90.6777854317385147689684829194616203,89.6,1.0777854317385147689684829194616203
16,103.090988901453956042875968190484934,102.0,1.090988901453956042875968190484934
17,116.303374251283315723251905679766972,115.2,1.103374251283315723251905679766972
18,130.315037245176332872146402860835412,129.2,1.115037245176332872146402860835412
19,145.126057742956392426344334880565225,144.0,1.126057742956392426344334880565225
20,160.736503037954461150604520400910939,159.6,1.136503037954461150604520400910939
21,177.146430363090784492787579790406659,176.0,1.146430363090784492787579790406659
22,194.355888802033626498692065662887662,193.2,1.155888802033626498692065662887662
23,212.364920767135794316659592441272453,211.2,1.164920767135794316659592441272453
24,231.173563156835060251100725545149134,230.0,1.173563156835060251100725545149134
25,250.781848272450088079070930468733166,249.6,1.181848272450088079070930468733166
26,271.189804551988020747117071338995485,270.0,1.189804551988020747117071338995485
27,292.397457163107056168040536435559818,291.2,1.197457163107056168040536435559818
28,314.404828486475487030536127393756623,313.2,1.204828486475487030536127393756623
29,337.211938512973652714833513080185019,336.0,1.211938512973652714833513080185019
30,360.818805172535763839337193330730506,359.6,1.218805172535763839337193330730506
31,385.225444608282621464010252444524230,384.0,1.225444608282621464010252444524230
32,410.431871406518353392121573561617249,409.2,1.231871406518353392121573561617249
33,436.438098790854642208290302082142340,435.2,1.238098790854642208290302082142340
34,463.244138786975373424943310866193852,462.0,1.244138786975373424943310866193852
35,490.850002363215437043866301655978904,489.6,1.250002363215437043866301655978904
36,519.255699551093936961190569209559620,518.0,1.255699551093936961190569209559620
37,548.461239549137978095810286257998425,547.2,1.261239549137978095810286257998425
38,578.466630812702782378220336778879261,577.2,1.266630812702782378220336778879261
39,609.271881131996036087356344504721345,608.0,1.271881131996036087356344504721345
40,640.876997700118550239561561029585711,639.6,1.276997700118550239561561029585711
41,673.281987172616565460155673277328601,672.0,1.281987172616565460155673277328601
42,706.486855719786040166633173319005355,705.2,1.286855719786040166633173319005355
43,740.491609072762774547650070164071204,739.2,1.291609072762774547650070164071204
44,775.296252564264128806492706265325574,774.0,1.296252564264128806492706265325574
45,810.900791164710524568757855572355575,809.6,1.300791164710524568757855572355575
46,847.305229514341782071406870499344593,846.0,1.305229514341782071406870499344593
47,884.509571951849869138047847125233419,883.2,1.309571951849869138047847125233419
48,922.513822539972051581070634774173846,921.2,1.313822539972051581070634774173846
49,961.317985088423772127378964724467014,960.0,1.317985088423772127378964724467014
50,1000.92206317449646225082408762327588,999.6,1.32206317449646225082408762327588
51,1041.32606016160002433198303860362878,1040.0,1.32606016160002433198303860362878
52,1082.52997921599137635163471963605450,1081.2,1.32997921599137635163471963605450
53,1124.53382332189800120574894038405314,1123.2,1.33382332189800120574894038405314
54,1167.33759529521788159835415410479345,1166.0,1.33759529521788159835415410479345
55,1210.94129779595372597614350135596378,1209.6,1.34129779595372597614350135596378
56,1255.34493333951931639855847649063589,1254.0,1.34493333951931639855847649063589
57,1300.54850430703861027197467324985304,1299.2,1.34850430703861027197467324985304
58,1346.55201295474343069032665754134664,1345.2,1.35201295474343069032665754134664
59,1393.35546142256282617723694822030169,1392.0,1.35546142256282617723694822030169
60,1440.95885174198615611701442157652880,1439.6,1.35885174198615611701442157652880
61,1489.36218584327239393438515080247687,1488.0,1.36218584327239393438515080247687
62,1538.56546556206983907770715780643296,1537.2,1.36546556206983907770715780643296
63,1588.56869264550318697140170441611083,1587.2,1.36869264550318697140170441611083
64,1639.37186875777859362341311604947032,1638.0,1.37186875777859362341311604947032
65,1690.97499548535183673353754029064381,1689.6,1.37499548535183673353754029064381
66,1743.37807434169982780940811063708302,1742.0,1.37807434169982780940811063708302
67,1796.58110677173146750559908200853192,1795.2,1.38110677173146750559908200853192
68,1850.58409415587008024050380554040192,1849.2,1.38409415587008024050380554040192
69,1905.38703781383635147491528727471563,1904.0,1.38703781383635147491528727471563
70,1960.98993900815776276797477622984880,1959.6,1.38993900815776276797477622984880
71,2017.39279894742792102242308517097914,2016.0,1.39279894742792102242308517097914
72,2074.59561878933688008871013737226374,2073.2,1.39561878933688008871013737226374
73,2132.59839964349149989111502064225873,2131.2,1.39839964349149989111502064225873
74,2191.40114257404306939047648786643153,2190.0,1.40114257404306939047648786643153
75,2251.00384860213778859703108698987868,2249.6,1.40384860213778859703108698987868
76,2311.40651870820425529010113605756568,2310.0,1.40651870820425529010113605756568
77,2372.60915383409079970295686459795759,2371.2,1.40915383409079970295686459795759
78,2434.61175488506434463299702805957622,2433.2,1.41175488506434463299702805957622
79,2497.41432273168142161740021912442316,2496.0,1.41432273168142161740021912442316
80,2561.01685821154103568875481683390678,2559.6,1.41685821154103568875481683390678
81,2625.41936213092822188369898175894835,2624.0,1.41936213092822188369898175894835
82,2690.62183526635637522704871266591392,2689.2,1.42183526635637522704871266591392
83,2756.62427836601574718010241846772003,2755.2,1.42427836601574718010241846772003
84,2823.42669215113487725009435760942247,2822.0,1.42669215113487725009435760942247
85,2891.02907731726116918159570330884977,2889.6,1.42907731726116918159570330884977
86,2959.43143453546630528527273669962847,2958.0,1.43143453546630528527273669962847
87,3028.63376445348173498861179923059449,3027.2,1.43376445348173498861179923059449
88,3098.63606769676905031548501700208967,3097.2,1.43606769676905031548501700208967
89,3169.43834486952967749926932559713857,3168.0,1.43834486952967749926932559713857
90,3241.04059655565797071750207473373808,3239.6,1.44059655565797071750207473373808
91,3313.44282331964147248400582268515686,3312.0,1.44282331964147248400582268515686
92,3386.64502570741181693687582026552017,3385.2,1.44502570741181693687582026552017
93,3460.64720424714949000566807970109017,3459.2,1.44720424714949000566807970109017
94,3535.44935945004541751238782271429782,3534.0,1.44935945004541751238782271429782
95,3611.05149181102213110684910491891619,3609.6,1.45149181102213110684910491891619
96,3687.45360180941706011486002236963853,3686.0,1.45360180941706011486002236963853
97,3764.65568990963031303557826001250258,3763.2,1.45568990963031303557826001250258
98,3842.65775656173913955008710674551788,3841.2,1.45775656173913955008710674551788
99,3921.45980220208111043105286808180450,3920.0,1.45980220208111043105286808180450
100,4001.06182725380790640290862549279637,3999.6,1.46182725380790640290862549279637
101,4081.46383212741147769785474684470398,4080.0,1.46383212741147769785474684470398
102,4162.66581722122421047824551563167445,4161.2,1.46581722122421047824551563167445
103,4244.66778292189462838231837554204011,4243.2,1.46778292189462838231837554204011
104,4327.46972960484005018551183531053323,4326.0,1.46972960484005018551183531053323
105,4411.07165763467753149586123701160869,4409.6,1.47165763467753149586123701160869
106,4495.47356736563432763771784744540560,4494.0,1.47356736563432763771784744540560
107,4580.67545914193903679608132299359442,4579.2,1.47545914193903679608132299359442
108,4666.67733329819450325428122801265249,4665.2,1.47733329819450325428122801265249
109,4753.47919015973349196420911387855926,4752.0,1.47919015973349196420911387855926
110,4841.08103004295808326817761244318321,4839.6,1.48103004295808326817761244318321
111,4929.48285325566367073028447692641849,4928.0,1.48285325566367073028447692641849
112,5018.68466009734839560152602724393669,5017.2,1.48466009734839560152602724393669
113,5108.68645085950879590711038679075434,5107.2,1.48645085950879590711038679075434
114,5199.48822582592239938666455389047722,5198.0,1.48822582592239938666455389047722
115,5291.08998527291794906952677528488640,5289.6,1.48998527291794906952677528488640
116,5383.49172946963390193566748754673083,5382.0,1.49172946963390193566748754673083
117,5476.69345867826580939977530318561888,5475.2,1.49345867826580939977530318561888
118,5570.69517315430314732493895867711238,5569.2,1.49517315430314732493895867711238
119,5665.49687314675612955863986088289249,5664.0,1.49687314675612955863986088289249
120,5761.09855889837301314153485102206804,5759.6,1.49855889837301314153485102206804
121,5857.50023064584836507226461746793993,5856.0,1.50023064584836507226461746793993
122,5954.70188862002274159839036649942528,5953.2,1.50188862002274159839036649942528
123,6052.70353304607419881062938743170093,6051.2,1.50353304607419881062938743170093
124,6151.50516414370203563775147557951734,6150.0,1.50516414370203563775147557951734
125,6251.10678212730314077323507310746947,6249.6,1.50678212730314077323507310746947
126,6351.50838720614129986748442306138073,6350.0,1.50838720614129986748442306138073
127,6452.70997958450979874152264255879514,6451.2,1.50997958450979874152264255879514
128,6554.71155946188763579088572201088122,6553.2,1.51155946188763579088572201088122
129,6657.51312703308964467520436192333484,6656.0,1.51312703308964467520436192333484
130,6761.11468248841081000709328200435447,6759.6,1.51468248841081000709328200435447
131,6865.51622601376504334984956695778650,6864.0,1.51622601376504334984956695778650
132,6970.71775779081867185626079186549812,6969.2,1.51775779081867185626079186549812
133,7076.71927799711888009923978334587489,7075.2,1.51927799711888009923978334587489
134,7183.52078680621733436904391123392417,7182.0,1.52078680621733436904391123392417
135,7291.12228438778920060349439158569822,7289.6,1.52228438778920060349439158569822
136,7399.52377090774776343008072855318647,7398.0,1.52377090774776343008072855318647
137,7508.72524652835484049089175214113776,7507.2,1.52524652835484049089175214113776
138,7618.72671140832717260932419853744945,7617.2,1.52671140832717260932419853744945
139,7729.52816570293896825161411234785014,7728.0,1.52816570293896825161411234785014
140,7841.12960956412076529026809324551051,7839.6,1.52960956412076529026809324551051
141,7953.53104314055476851898147197539189,7952.0,1.53104314055476851898147197539189
142,8066.73246657776681329536336761942590,8065.2,1.53246657776681329536336761942590
143,8180.73388001821509703761936379832852,8179.2,1.53388001821509703761936379832852
144,8295.53528360137581312170545415546101,8294.0,1.53528360137581312170545415546101
145,8411.13667746382581753770794384003816,8409.6,1.53667746382581753770794384003816
146,8527.53806173932245079545293047837800,8526.0,1.53806173932245079545293047837800
147,8644.73943655888062936638307163251070,8643.2,1.53943655888062936638307163251070
148,8762.74080205084732199070600559131993,8761.2,1.54080205084732199070600559131993
149,8881.54215834097351265074442833182251,8880.0,1.54215834097351265074442833182251
150,9001.14350555248375385134076903401862,8999.6,1.54350555248375385134076903401862
151,9121.54484380614340612154548197837736,9120.0,1.54484380614340612154548197837736
152,9242.74617322032365403673344141820041,9241.2,1.54617322032365403673344141820041
153,9364.74749391106438771081618326978896,9363.2,1.54749391106438771081618326978896
154,9487.54880599213503365776582077269734,9486.0,1.54880599213503365776582077269734
155,9611.15010957509341325841655650459173,9609.6,1.55010957509341325841655650459173
156,9735.55140476934270669887977059339525,9734.0,1.55140476934270669887977059339525
157,9860.75269168218659342714856733524475,9859.2,1.55269168218659342714856733524475
158,9986.75397041888264094596518740771203,9985.2,1.55397041888264094596518740771203
159,10113.5552410826940056147567128293387,10112.0,1.5552410826940056147567128293387
160,10241.1565037749395117981487552000766,10239.6,1.5565037749395117981487552000766
161,10369.5577585950421678571480734982575,10368.0,1.5577585950421678571480734982575
162,10498.7590056405761784440654511949832,10497.2,1.5590056405761784440654511949832
163,10628.7602450073125079544481663192187,10627.2,1.5602450073125079544481663192187
164,10759.5614767892630497725869583221608,10758.0,1.5614767892630497725869583221608
165,10891.1627010787234499107850796256444,10889.6,1.5627010787234499107850796256444
166,11023.5639179663146355579481633220673,11022.0,1.5639179663146355579481633220673
167,11156.7651275410230957697842475031723,11155.2,1.5651275410230957697842475031723
168,11290.7663298902399569894973869523334,11289.2,1.5663298902399569894973869523334
169,11425.5675250997988984610354245456142,11424.0,1.5675250997988984610354245456142
170,11561.1687132540129472779774522326822,11559.6,1.5687132540129472779774522326822
171,11697.5698944357101932624917038090023,11696.0,1.5698944357101932624917038090023
172,11834.7710687262684615409916336725524,11833.2,1.5710687262684615409916336725524
173,11972.7722362056489782187908458067784,11971.2,1.5722362056489782187908458067784
174,12111.5733969524290649972406569011929,12110.0,1.5733969524290649972406569011929
175,12251.1745510438338967182531641869875,12249.6,1.5745510438338967182531641869875
176,12391.5756985557673515425324186969623,12390.0,1.5756985557673515425324186969623
177,12532.7768395628419870220209683190604,12531.2,1.5768395628419870220209683190604
178,12674.7779741384081712209277078752846,12673.2,1.5779741384081712209277078752846
179,12817.5791023545823953302526047052992,12816.0,1.5791023545823953302526047052992
180,12961.1802242822747987221768758145703,12959.6,1.5802242822747987221768758145703
181,13105.5813399912159290928744622614943,13104.0,1.5813399912159290928744622614943
182,13250.7824495499827653890998121993164,13249.2,1.5824495499827653890998121993164
183,13396.7835530260240265677954747668133,13395.2,1.5835530260240265677954747668133
184,13543.5846504856847904302250842744672,13542.0,1.5846504856847904302250842744672
185,13691.1857419942304443387244632470019,13689.6,1.5857419942304443387244632470019
186,13839.5868276158699887846596294704713,13838.0,1.5868276158699887846596294704713
187,13988.7879074137787176080582706579300,13987.2,1.5879074137787176080582706579300
188,14138.7889814501202903051982872227675,14137.2,1.5889814501202903051982872227675
189,14289.5900497860682201552100657063822,14288.0,1.5900497860682201552100657063822
190,14441.1911124818267938167360617147226,14439.6,1.5911124818267938167360617147226
191,14593.5921695966514416171649940446342,14592.0,1.5921695966514416171649940446342
192,14746.7932211888685749166084388968629,14745.2,1.5932211888685749166084388968629
193,14900.7942673158949088504319980357158,14899.2,1.5942673158949088504319980357158
194,15055.5953080342562837910872216628706,15054.0,1.5953080342562837910872216628706
195,15211.1963433996060034615660333163351,15209.6,1.5963433996060034615660333163351
196,15367.5973734667427033923400218222670,15366.0,1.5973734667427033923400218222670
197,15524.7983982896277640970675137969186,15523.2,1.5983982896277640970675137969186
198,15682.7994179214022831290092665087732,15681.2,1.5994179214022831290092665087732
199,15841.6004324144036188519678801215407,15840.0,1.6004324144036188519678801215407
200,16001.2014418201815198659116246898826,15999.6,1.6014418201815198659116246898826
201,16161.6024461895138510636611074526193,16160.0,1.6024461895138510636611074526193
202,16322.8034455724219296947497330393375,16321.2,1.6034455724219296947497330393375
203,16484.8044400181854820911396667995436,16483.2,1.6044400181854820911396667995436
204,16647.6054295753572326696543971035661,16646.0,1.6054295753572326696543971035661
205,16811.2064142917771351764396191268982,16809.6,1.6064142917771351764396191268982
206,16975.6073942145862591921489064252731,16974.0,1.6073942145862591921489064252731
207,17140.8083693902403377684793570177950,17139.2,1.6083693902403377684793570177950
208,17306.8093398645229904174614010428638,17305.2,1.6093398645229904174614010428638
209,17473.6103056825586271963300175155467,17472.0,1.6103056825586271963300175155467
210,17641.2112668888250453835759759301841,17639.6,1.6112668888250453835759759301841
211,17809.6122235271657261051331349752255,17808.0,1.6122235271657261051331349752255
212,17978.8131756408018411378235002477382,17977.2,1.6131756408018411378235002477382
213,18148.8141232723439742679475153893277,18147.2,1.6141232723439742679475153893277
214,18319.6150664638035721807028036536498,18318.0,1.6150664638035721807028036536498
215,18491.2160052566041240866555478480392,18489.6,1.6160052566041240866555478480392
216,18663.6169396915920840397146065038748,18662.0,1.6169396915920840397146065038748
217,18836.8178698090475399056433981746778,18835.2,1.6178698090475399056433981746778
218,19010.8187956486946379535519695027655,19009.2,1.6187956486946379535519695027655
219,19185.6197172497117663432976817338773,19184.0,1.6197172497117663432976817338773
220,19361.2206346507415100169146819120503,19359.6,1.6206346507415100169146819120503
221,19537.6215478899003748963542368574128,19536.0,1.6215478899003748963542368574128
222,19714.8224570047882985848935468663008,19713.2,1.6224570047882985848935468663008
223,19892.8233620324979411330362774948485,19891.2,1.6233620324979411330362774948485
224,20071.6242630096237709281949183298703,20070.0,1.6242630096237709281949183298703
225,20251.2251599722709482646893212878901,20249.6,1.6251599722709482646893212878901
226,20431.6260529560640101319939635565454,20430.0,1.6260529560640101319939635565454
227,20612.8269419961553648640720974552909,20611.2,1.6269419961553648640720974552909
228,20794.8278271272335984599876343256165,20793.2,1.6278271272335984599876343256165
229,20977.6287083835315997279296179805602,20976.0,1.6287083835315997279296179805602
230,21161.2295857988345089388772266503980,21159.6,1.6295857988345089388772266503980
231,21345.6304594064874917791591545239676,21344.0,1.6304594064874917791591545239676
232,21530.8313292394033490108115169505494,21529.2,1.6313292394033490108115169505494
233,21716.8321953300699568252219305881913,21715.2,1.6321953300699568252219305881913
234,21903.6330577105575540361086636268983,21902.0,1.6330577105575540361086636268983
235,22091.2339164125258692829178229295042,22089.6,1.6339164125258692829178229295042
236,22279.6347714672310979433895263098846,22278.0,1.6347714672310979433895263098846
237,22468.8356229055327323754024598483690,22467.2,1.6356229055327323754024598483690
238,22658.8364707579002472190900216636436,22657.2,1.6364707579002472190900216636436
