Eigenstate,Energy,Kinetic Energy,Potential Energy
1,0.500000000305064159151849992341931051,0.0,0.500000000305064159151849992341931051
2,1.84623093964243564315962411118619406,1.2,0.64623093964243564315962411118619406
3,3.93633761555441687172724793254566612,3.2,0.73633761555441687172724793254566612
4,6.79966528999823226068232008517748492,6.0,0.79966528999823226068232008517748492
5,10.4480465963914634867975175725736945,9.6,0.8480465963914634867975175725736945
6,14.8870660295307159070089271959907853,14.0,0.8870660295307159070089271959907853
7,20.1197208708741395963382336483303137,19.2,0.9197208708741395963382336483303137
8,26.1477839068095621291151581766420214,25.2,0.9477839068095621291151581766420214
9,32.9723836363499652953731507880935834,32.0,0.9723836363499652953731507880935834
10,40.5942803136485491413027970743162500,39.6,0.9942803136485491413027970743162500
11,49.0140095088498974016084515990194514,48.0,1.0140095088498974016084515990194514
12,58.2319623172616067392577403314221343,57.2,1.0319623172616067392577403314221343
13,68.2484328689521495366415486924484349,67.2,1.0484328689521495366415486924484349
14,79.0636478616071914751339217978626853,78.0,1.0636478616071914751339217978626853
15,90.6777856763438706586732693836721372,89.6,1.0777856763438706586732693836721372
16,103.090989182581302039563104928185352,102.0,1.090989182581302039563104928185352
17,116.303374571502120565549365084878989,115.2,1.103374571502120565549365084878989
18,130.315037607058706858469232996655012,129.2,1.115037607058706858469232996655012
19,145.126058149077183059393103206685531,144.0,1.126058149077183059393103206685531
20,160.736503490891362277233285040722438,159.6,1.136503490891362277233285040722438
21,177.146430865424455271366358695958678,176.0,1.146430865424455271366358695958678
22,194.355889356347817688338596396400201,193.2,1.155889356347817688338596396400201
23,212.364921376017480142572935239135630,211.2,1.164921376017480142572935239135630
24,231.173563822874574608272721406324197,230.0,1.173563822874574608272721406324197
25,250.781848998241264183299793815020531,249.6,1.181848998241264183299793815020531
26,271.189805340128333583182763225058556,270.0,1.189805340128333583182763225058556
27,292.397458016197767255213990153474145,291.2,1.197458016197767255213990153474145
28,314.404829407121791147864622073946989,313.2,1.204829407121791147864622073946989
29,337.211939503784826317686498437337319,336.0,1.211939503784826317686498437337319
30,360.818806236125314964402781811928965,359.6,1.218806236125314964402781811928965
31,385.225445747268440969017074548062131,384.0,1.225445747268440969017074548062131
32,410.431872623522867413650058357408551,409.2,1.231872623522867413650058357408551
33,436.438100088504965749365671581572699,435.2,1.238100088504965749365671581572699
34,463.244140167903465005958173744622547,462.0,1.244140167903465005958173744622547
35,490.850003830058254367405520198165926,489.6,1.250003830058254367405520198165926
36,519.255701106493593554712667751115851,518.0,1.255701106493593554712667751115851
37,548.461241195741900906751364846946641,547.2,1.261241195741900906751364846946641
38,578.466632553163870304571379864493580,577.2,1.266632553163870304571379864493580
39,609.271882968972819433605387518175367,608.0,1.271882968972819433605387518175367
40,640.876999636275351093451650540300523,639.6,1.276999636275351093451650540300523
41,673.281989210623658990262706371111238,672.0,1.281989210623658990262706371111238
42,706.486857862319816844527193949402314,705.2,1.286857862319816844527193949402314
43,740.491611322505903301531634534060743,739.2,1.291611322505903301531634534060743
44,775.296254923905721115819086901684237,774.0,1.296254923905721115819086901684237
45,810.900793636946299511592106504766936,809.6,1.300793636946299511592106504766936
46,847.305232101874232338113849775881944,846.0,1.305232101874232338113849775881944
47,884.509574657388428026586322362028825,883.2,1.309574657388428026586322362028825
48,922.513825366233260990540645757493969,921.2,1.313825366233260990540645757493969
49,961.317988038131451567716253938228318,960.0,1.317988038131451567716253938228318
50,1000.92206625038187888762160980689424,999.6,1.32206625038187888762160980689424
51,1041.32606336640206408638954156705926,1040.0,1.32606336640206408638954156705926
52,1082.52998255245671607615164351654804,1081.2,1.32998255245671607615164351654804
53,1124.53382679278128195753787523038365,1123.2,1.33382679278128195753787523038365
54,1167.33759890328188303239179851580485,1166.0,1.33759890328188303239179851580485
55,1210.94130154396954188123034547084097,1209.6,1.34130154396954188123034547084097
56,1255.34493723026653139981204642262391,1254.0,1.34493723026653139981204642262391
57,1300.54850834330547772402461299721564,1299.2,1.34850834330547772402461299721564
58,1346.55201713932705178598700631456863,1345.2,1.35201713932705178598700631456863
59,1393.35546575826933029696138649682773,1392.0,1.35546575826933029696138649682773
60,1440.95885623163088244495289114668401,1439.6,1.35885623163088244495289114668401
61,1489.36219048968007436735612306067012,1488.0,1.36219048968007436735612306067012
62,1538.56547036807478245388353345471316,1537.2,1.36547036807478245388353345471316
63,1588.56869761394946464598142481750500,1587.2,1.36869761394946464598142481750500
64,1639.37187389152022641901251109139096,1638.0,1.37187389152022641901251109139096
65,1690.97500078725298329350798343139268,1689.6,1.37500078725298329350798343139268
66,1743.37807981463497438273451394623211,1742.0,1.37807981463497438273451394623211
67,1796.58111241858561919249679669173732,1795.2,1.38111241858561919249679669173732
68,1850.58409997953895372828753790539042,1849.2,1.38409997953895372828753790539042
69,1905.38704381722656929417392238996321,1904.0,1.38704381722656929417392238996321
70,1960.98994519418704909954518834523779,1959.6,1.38994519418704909954518834523779
71,2017.39280531902529908612358874421553,2016.0,1.39280531902529908612358874421553
72,2074.59562534944287114526081570384771,2073.2,1.39562534944287114526081570384771
73,2132.59840639505832388914899100165540,2131.2,1.39840639505832388914899100165540
74,2191.40114952003484729102490994773604,2190.0,1.40114952003484729102490994773604
75,2251.00385574553074640835284811982773,2249.6,1.40385574553074640835284811982773
76,2311.40652605198692984622097027923957,2310.0,1.40652605198692984622097027923957
77,2372.60916138126424621977869678580531,2371.2,1.40916138126424621977869678580531
78,2434.61176263864234607636926909909450,2433.2,1.41176263864234607636926909909450
79,2497.41433069469069991802874462278605,2496.0,1.41433069469069991802874462278605
80,2561.01686638702146483938710908090009,2559.6,1.41686638702146483938710908090009
81,2625.41937052193304295454194281883571,2624.0,1.41937052193304295454194281883571
82,2690.62184387595241333592991307388550,2689.2,1.42184387595241333592991307388550
83,2756.62428719728363045444377232510162,2755.2,1.42428719728363045444377232510162
84,2823.42670120716925781833661242835383,2822.0,1.42670120716925781833661242835383
85,2891.02908660117094623229368167143123,2889.6,1.42908660117094623229368167143123
86,2959.43144405037485023267300302190820,2958.0,1.43144405037485023267300302190820
87,3028.63377420252711878413076884782932,3027.2,1.43377420252711878413076884782932
88,3098.63607768310427294512183330773583,3097.2,1.43607768310427294512183330773583
89,3169.43835509632289970761863866542534,3168.0,1.43835509632289970761863866542534
90,3241.04060702609274799967473737715285,3239.6,1.44060702609274799967473737715285
91,3313.44283403691699138742387530135104,3312.0,1.44283403691699138742387530135104
92,3386.64503667474313371557780573619796,3385.2,1.44503667474313371557780573619796
93,3460.64721546776777167044711678022391,3459.2,1.44721546776777167044711678022391
94,3535.44937092719818532078475969021210,3534.0,1.44937092719818532078475969021210
95,3611.05150354797350653773841758188629,3609.6,1.45150354797350653773841758188629
96,3687.45361380944801337309651818810960,3686.0,1.45361380944801337309651818810960
97,3764.65570217603891413292038525300000,3763.2,1.45570217603891413292038525300000
98,3842.65776909784081200937387104203373,3841.2,1.45776909784081200937387104203373
99,3921.45981501120888766139312682832675,3920.0,1.45981501120888766139312682832675
100,4001.06184033931269079443622996699718,3999.6,1.46184033931269079443622996699718
101,4081.46384549266230248541876782895223,4080.0,1.46384549266230248541876782895223
102,4162.66583086960850442423635802236583,4161.2,1.46583086960850442423635802236583
103,4244.66779685681848332968029831965356,4243.2,1.46779685681848332968029831965356
104,4327.46974382972849153286413500512610,4326.0,1.46974382972849153286413500512610
105,4411.07167215297479164753662345634368,4409.6,1.47167215297479164753662345634368
106,4495.47358218080412248243579474521424,4494.0,1.47358218080412248243579474521424
107,4580.67547425746484526890359365464166,4579.2,1.47547425746484526890359365464166
108,4666.67734871757985003744468176274041,4665.2,1.47734871757985003744468176274041
109,4753.47920588650223338340297012413912,4752.0,1.47920588650223338340297012413912
110,4841.08104608065469644182333543264168,4839.6,1.48104608065469644182333543264168
111,4929.48286960785354603039164684852457,4928.0,1.48286960785354603039164684852457
112,5018.68467676761813248573525409495534,5017.2,1.48467676761813248573525409495534
113,5108.68646785146650218259398235551925,5107.2,1.48646785146650218259398235551925
114,5199.48824314319799396764113737713716,5198.0,1.48824314319799396764113737713716
115,5291.09000291916346829125472289949671,5289.6,1.49000291916346829125472289949671
116,5383.49174744852380948891626571962517,5382.0,1.49174744852380948891626571962517
117,5476.69347699349730995093405226756754,5475.2,1.49347699349730995093405226756754
118,5570.69519180959650388810739499134647,5569.2,1.49519180959650388810739499134647
119,5665.49689214585498468725999060136299,5664.0,1.49689214585498468725999060136299
120,5761.09857824504471400836269159397315,5759.6,1.49857824504471400836269159397315
121,5857.50025034388429250775074975107138,5856.0,1.50025034388429250775074975107138
122,5954.70190867323864315883665525388077,5953.2,1.50190867323864315883665525388077
123,6052.70355345831052594881626214050899,6051.2,1.50355345831052594881626214050899
124,6151.50518491882428505008911864619026,6150.0,1.50518491882428505008911864619026
125,6251.10680326920219999888196223185127,6249.6,1.50680326920219999888196223185127
126,6351.50840871873379721629871194475946,6350.0,1.50840871873379721629871194475946
127,6452.71000147173845762916576982483773,6451.2,1.51000147173845762916576982483773
128,6554.71158172772163356088705929373119,6553.2,1.51158172772163356088705929373119
129,6657.51314968152497598931815504128851,6656.0,1.51314968152497598931815504128851
130,6761.11470552347065488683706812749763,6759.6,1.51470552347065488683706812749763
131,6865.51624943950013995370888127530218,6864.0,1.51624943950013995370888127530218
132,6970.71778161130769407867780525820730,6969.2,1.51778161130769407867780525820730
133,7076.71930221646882007917056961753894,7075.2,1.51930221646882007917056961753894
134,7183.52081142856388999758230543594328,7182.0,1.52081142856388999758230543594328
135,7291.12230941729716812180770220657913,7289.6,1.52230941729716812180770220657913
136,7399.52379634861143521069342416384813,7398.0,1.52379634861143521069342416384813
137,7508.72527238479840809718848756240407,7507.2,1.52527238479840809718848756240407
138,7618.72673768460513523001781868779231,7617.2,1.52673768460513523001781868779231
139,7729.52819240333654660884679944420947,7728.0,1.52819240333654660884679944420947
140,7841.12963669295432112198133336964207,7839.6,1.52963669295432112198133336964207
141,7953.53107070217222973820275188755432,7952.0,1.53107070217222973820275188755432
142,8066.73249457654810493112094456528411,8065.2,1.53249457654810493112094456528411
143,8180.73390845857257806430824072301440,8179.2,1.53390845857257806430824072301440
144,8295.53531248775471928588915760134756,8294.0,1.53531248775471928588915760134756
145,8411.13670680070471029355518372208765,8409.6,1.53670680070471029355518372208765
146,8527.53809153121367246227743886635853,8526.0,1.53809153121367246227743886635853
147,8644.73946681033076462407740630645887,8643.2,1.53946681033076462407740630645887
148,8762.74083276643766583123755446167842,8761.2,1.54083276643766583123755446167842
149,8881.54218952532054490632398970492190,8880.0,1.54218952532054490632398970492190
150,9001.14353721023962042236509895636976,8999.6,1.54353721023962042236509895636976
151,9121.54487594199640702997865313058022,9120.0,1.54487594199640702997865313058022
152,9242.74620583899873843320971002131337,9241.2,1.54620583899873843320971002131337
153,9364.74752701732365596643401660546752,9363.2,1.54752701732365596643401660546752
154,9487.54883959077824667429341216759174,9486.0,1.54883959077824667429341216759174
155,9611.15014367095850913345033819780749,9609.6,1.55014367095850913345033819780749
156,9735.55143936730632488538848871782400,9734.0,1.55143936730632488538848871782400
157,9860.75272678716460652979395427671426,9859.2,1.55272678716460652979395427671426
158,9986.75400603583069429963116347433363,9985.2,1.55400603583069429963116347433363
159,10113.5552772166080647938271803278318,10112.0,1.5552772166080647938271803278318
160,10241.1565404308564182082672437765598,10239.6,1.5565404308564182082672437765598
161,10369.5577957780402025644617135209043,10368.0,1.5577957780402025644617135209043
162,10498.7590433557756344003108597515048,10497.2,1.5590433557756344003108597515048
163,10628.7602832598762707796724916682052,10627.2,1.5602832598762707796724916682052
164,10759.5615155843971872608263873597000,10758.0,1.5615155843971872608263873597000
165,10891.1627404216778104276385708738030,10889.6,1.5627404216778104276385708738030
166,11023.5639578623834555026900727844629,11022.0,1.5639578623834555026900727844629
167,11156.7651679955456162784653182005967,11155.2,1.5651679955456162784653182005967
168,11290.7663709086010500593854328317254,11289.2,1.5663709086010500593854328317254
169,11425.5675666874297026807470259461495,11424.0,1.5675666874297026807470259461495
170,11561.1687554163915133517604910144167,11559.6,1.5687554163915133517604910144167
171,11697.5699371783621395213290733047223,11696.0,1.5699371783621395213290733047223
172,11834.7711120547676396375200487917110,11833.2,1.5711120547676396375200487917110
173,11972.7722801256181492074625254684418,11971.2,1.5722801256181492074625254684418
174,12111.5734414695405860057095241324523,12110.0,1.5734414695405860057095241324523
175,12251.1745961638104184206369495789642,12249.6,1.5745961638104184206369495789642
176,12391.5757442843825266499973917216596,12390.0,1.5757442843825266499973917216596
177,12532.7768859059211900110583002016900,12531.2,1.5768859059211900110583002016900
178,12674.7780211018292295247413666080370,12673.2,1.5780211018292295247413666080370
179,12817.5791499442763322238676070312390,12816.0,1.5791499442763322238676070312390
180,12961.1802725042265881372024149005413,12959.6,1.5802725042265881372024149005413
181,13105.5813888514652626033243569618481,13104.0,1.5813888514652626033243569618481
182,13250.7824990546248316152889019192914,13249.2,1.5824990546248316152889019192914
183,13396.7836031812103032510992392653806,13395.2,1.5836031812103032510992392653806
184,13543.5847012976238494374127542601296,13542.0,1.5847012976238494374127542601296
185,13691.1857934691887698606632050875296,13689.6,1.5857934691887698606632050875296
186,13839.5868797601728090004341568456335,13838.0,1.5868797601728090004341568456335
187,13988.7879602338108500919776385951606,13987.2,1.5879602338108500919776385951606
188,14138.7890349523270014607569910881964,14137.2,1.5890349523270014607569910881964
189,14289.5901039769560989668531151674422,14288.0,1.5901039769560989668531151674422
190,14441.1911673679646402172439511438472,14439.6,1.5911673679646402172439511438472
191,14593.5922251846711697756385754150143,14592.0,1.5922251846711697756385754150143
192,14746.7932774854661317593930977688544,14745.2,1.5932774854661317593930977688544
193,14900.7943243278312081348878645707834,14899.2,1.5943243278312081348878645707834
194,15055.5953657683581560598915679665373,15054.0,1.5953657683581560598915679665373
195,15211.1964018627671622132318198802982,15209.6,1.5964018627671622132318198802982
196,15367.5974326659247278118580628203611,15366.0,1.5974326659247278118580628203611
197,15524.7984582318610986990394712289996,15523.2,1.5984582318610986990394712289996
198,15682.7994786137872546743316329273123,15681.2,1.5994786137872546743316329273123
199,15841.6004938641114709080794327240151,15840.0,1.6004938641114709080794327240151
200,16001.2015040344554653898150130510616,15999.6,1.6015040344554653898150130510616
201,16161.6025091756701433963958370732729,16160.0,1.6025091756701433963958370732729
202,16322.8035093378509523657403045491632,16321.2,1.6035093378509523657403045491632
203,16484.8045045703528578408573968788821,16483.2,1.6045045703528578408573968788821
204,16647.6054949218049521093534098148821,16646.0,1.6054949218049521093534098148821
205,16811.2064804401247055143344729401719,16809.6,1.6064804401247055143344729401719
206,16975.6074611725318734663361867695343,16974.0,1.6074611725318734663361867695343
207,17140.8084371655620650381466998283036,17139.2,1.6084371655620650381466998283036
208,17306.8094084650799873755095201008765,17305.2,1.6094084650799873755095201008765
209,17473.6103751162923716784559179257222,17472.0,1.6103751162923716784559179257222
210,17641.2113371637605922611426247960497,17639.6,1.6113371637605922611426247960497
211,17809.6122946514129860617922102923758,17808.0,1.6122946514129860617922102923758
212,17978.8132476225568828428835926500008,17977.2,1.6132476225568828428835926500008
213,18148.8141961198903504728934551609010,18147.2,1.6141961198903504728934551609010
214,18319.6151401855136702790884245631122,18318.0,1.6151401855136702790884245631122
215,18491.2160798609405416918341110358507,18489.6,1.6160798609405416918341110358507
216,18663.6170151871090301495403669616476,18662.0,1.6170151871090301495403669616476
217,18836.8179462043922622383983384029516,18835.2,1.6179462043922622383983384029516
218,19010.8188729526088770549311496428984,19009.2,1.6188729526088770549311496428984
219,19185.6197954710332370803610512134767,19184.0,1.6197954710332370803610512134767
220,19361.2207137984054110914560241429835,19359.6,1.6207137984054110914560241429835
221,19537.6216279729409270272277028302310,19536.0,1.6216279729409270272277028302310
222,19714.8225380323403120264310232854222,19713.2,1.6225380323403120264310232854222
223,19892.8234440137984132148554180926209,19891.2,1.6234440137984132148554180926209
224,20071.6243459540135143204158994748936,20070.0,1.6243459540135143204158994748936
225,20251.2252438891962506919046957765504,20249.6,1.6252438891962506919046957765504
226,20431.6261378550783262792542528538752,20430.0,1.6261378550783262792542528538752
227,20612.8270278869210412387206949468453,20611.2,1.6270278869210412387206949468453
228,20794.8279140195236319943926117212694,20793.2,1.6279140195236319943926117212694
229,20977.6287962872314309300625897405346,20976.0,1.6287962872314309300625897405346
230,21161.2296747239438504202911278341671,21159.6,1.6296747239438504202911278341671
231,21345.6305493631221930132508212525035,21344.0,1.6305493631221930132508212525035
232,21530.8314202377972981983475342499364,21529.2,1.6314202377972981983475342499364
233,21716.8322873805770207689856106594572,21715.2,1.6322873805770207689856106594572
234,21903.6331508236535569522168603908498,21902.0,1.6331508236535569522168603908498
235,22091.2340105988106115028834452891546,22089.6,1.6340105988106115028834452891546
236,22279.6348667374304154884312273756017,22278.0,1.6348667374304154884312273756017
237,22468.8357192705005984128141967929221,22467.2,1.6357192705005984128141967929221
238,22658.8365682286209164397454432095927,22657.2,1.6365682286209164397454432095927
