Eigenstate,Energy,Kinetic Energy,Potential Energy
1,0.500000000022754377393813172045198377,0.0,0.500000000022754377393813172045198377
2,1.84623093779964326122114305973846142,1.2,0.64623093779964326122114305973846142
3,3.93633761014126602972578050335657530,3.2,0.73633761014126602972578050335657530
4,6.79966527872298058577734249913134902,6.0,0.79966527872298058577734249913134902
5,10.4480465768598097795325968558771005,9.6,0.8480465768598097795325968558771005
6,14.8870659993060687452334985290456361,14.0,0.8870659993060687452334985290456361
7,20.1197208274997630476021237222842686,19.2,0.9197208274997630476021237222842686
8,26.1477838478177555314917981027753413,25.2,0.9477838478177555314917981027753413
9,32.9723835592662804744074459130412935,32.0,0.9723835592662804744074459130412935
10,40.5942802159938834410724935969838879,39.6,0.9942802159938834410724935969838879
11,49.0140093881415866553376151400494826,48.0,1.0140093881415866553376151400494826
12,58.2319621710140085325833260237499963,57.2,1.0319621710140085325833260237499963
13,68.2484326946769488911390336459350857,67.2,1.0484326946769488911390336459350857
14,79.0636476568135466895608819328165366,78.0,1.0636476568135466895608819328165366
15,90.6777854385384626241477609543543055,89.6,1.0777854385384626241477609543543055
16,103.090988909268322824116243263445509,102.0,1.090988909268322824116243263445509
17,116.303374260183222395122429615385442,115.2,1.103374260183222395122429615385442
18,130.315037255232924438504790817028507,129.2,1.115037255232924438504790817028507
19,145.126057754240837430585688648596590,144.0,1.126057754240837430585688648596590
20,160.736503050537951542552648415490238,159.6,1.136503050537951542552648415490238
21,177.146430377044535759666620250884975,176.0,1.146430377044535759666620250884975
22,194.355888817428877989948447665170037,193.2,1.155888817428877989948447665170037
23,212.364920784043809713540858180404402,211.2,1.164920784043809713540858180404402
24,231.173563175327128146028549717031456,230.0,1.173563175327128146028549717031456
25,250.781848292597522639486282163011521,249.6,1.181848292597522639486282163011521
26,271.189804573862162445174993942745908,270.0,1.189804573862162445174993942745908
27,292.397457186779272562266706338649983,291.2,1.197457186779272562266706338649983
28,314.404828512017173588955389448451511,313.2,1.204828512017173588955389448451511
29,337.211938540456233671554115911787898,336.0,1.211938540456233671554115911787898
30,360.818805202030693078398650790434716,359.6,1.218805202030693078398650790434716
31,385.225444639861383425664439564860806,384.0,1.225444639861383425664439564860806
32,410.431871440252463997744526862544391,409.2,1.231871440252463997744526862544391
33,436.438098826815649800906191780237827,435.2,1.238098826815649800906191780237827
34,463.244138825234859722945868862886116,462.0,1.244138825234859722945868862886116
35,490.850002403845018105992258383887026,489.6,1.250002403845018105992258383887026
36,519.255699594165264161167450868965002,518.0,1.255699594165264161167450868965002
37,548.461239594722739105391514710937586,547.2,1.261239594722739105391514710937586
38,578.466630860872702157551855921484851,577.2,1.266630860872702157551855921484851
39,609.271881182822877881804381105668506,608.0,1.271881182822877881804381105668506
40,640.876997753674116582280729105015050,639.6,1.276997753674116582280729105015050
41,673.281987228972699179798070717925081,672.0,1.281987228972699179798070717925081
42,706.486855779014625399698333397373314,705.2,1.286855779014625399698333397373314
43,740.491609134935737755057106609542806,739.2,1.291609134935737755057106609542806
44,775.296252629453439794023263373874801,774.0,1.296252629453439794023263373874801
45,810.900791232988197511074315271522359,809.6,1.300791232988197511074315271522359
46,847.305229585779876539396832566523500,846.0,1.305229585779876539396832566523500
47,884.509572026520491129284897825973259,883.2,1.309572026520491129284897825973259
48,922.513822617947354553214250689525785,921.2,1.313822617947354553214250689525785
49,961.317985169775958034364125275246537,960.0,1.317985169775958034364125275246537
50,1000.92206325929778258171469015445403,999.6,1.32206325929778258171469015445403
51,1041.32606024992278115238326017730448,1040.0,1.32606024992278115238326017730448
52,1082.52997930790792334756958572223250,1081.2,1.32997930790792334756958572223250
53,1124.53382341748074472994004662606807,1123.2,1.33382341748074472994004662606807
54,1167.33759539453928171882914456424845,1166.0,1.33759539453928171882914456424845
55,1210.94129789908629752712881445833122,1209.6,1.34129789908629752712881445833122
56,1255.34493344653563003361434314864616,1254.0,1.34493344653563003361434314864616
57,1300.54850441801129351933955008525089,1299.2,1.34850441801129351933955008525089
58,1346.55201306974516901044548161093987,1345.2,1.35201306974516901044548161093987
59,1393.35546154166636402245382747764493,1392.0,1.35546154166636402245382747764493
60,1440.95885186526429799341589152063818,1439.6,1.35885186526429799341589152063818
61,1489.36218597079800546578494132538697,1488.0,1.36218597079800546578494132538697
62,1538.56546569391584807176769606063673,1537.2,1.36546569391584807176769606063673
63,1588.56869278174258448789131715816187,1587.2,1.36869278174258448789131715816187
64,1639.37186889848443504460123318347137,1638.0,1.37186889848443504460123318347137
65,1690.97499563059724283673319132565815,1689.6,1.37499563059724283673319132565815
66,1743.37807449155798584164961363193066,1742.0,1.37807449155798584164961363193066
67,1796.58110692627563226050520403178452,1795.2,1.38110692627563226050520403178452
68,1850.58409431517357513729876933900433,1849.2,1.38409431517357513729876933900433
69,1905.38703797797256963964193231150466,1904.0,1.38703797797256963964193231150466
70,1960.98993917720016811691182546435296,1959.6,1.38993917720016811691182546435296
71,2017.39279912145004934772408037450057,2016.0,1.39279912145004934772408037450057
72,2074.59561896841234014628293812963796,2073.2,1.39561896841234014628293812963796
73,2132.59839982769397449076207086962255,2131.2,1.39839982769397449076207086962255
74,2191.40114276344631648831717054117694,2190.0,1.40114276344631648831717054117694
75,2251.00384879681564239022856630370960,2249.6,1.40384879681564239022856630370960
76,2311.40651890823062731391701567576300,2310.0,1.40651890823062731391701567576300
77,2372.60915403953967993015788385653763,2371.2,1.40915403953967993015788385653763
78,2434.61175509600980257563881520169874,2433.2,1.41175509600980257563881520169874
79,2497.41432294819760743101388817298747,2496.0,1.41432294819760743101388817298747
80,2561.01685843370218127896284315696763,2559.6,1.41685843370218127896284315696763
81,2625.41936235880864201528746257379022,2624.0,1.41936235880864201528746257379022
82,2690.62183550003046863552370055269718,2689.2,1.42183550003046863552370055269718
83,2756.62427860555799768575855016364614,2755.2,1.42427860555799768575855016364614
84,2823.42669239661985487462454318395926,2822.0,1.42669239661985487462454318395926
85,2891.02907756876353126727111072466187,2889.6,1.42907756876353126727111072466187
86,2959.43143479306079761672274560822210,2958.0,1.43143479306079761672274560822210
87,3028.63376471724319291723406245555977,3027.2,1.43376471724319291723406245555977
88,3098.63606796677239988651614362573221,3097.2,1.43606796677239988651614362573221
89,3169.43834514584993658154709520778978,3168.0,1.43834514584993658154709520778978
90,3241.04059683837025013595044804370284,3239.6,1.44059683837025013595044804370284
91,3313.44282360882097715487438058646585,3312.0,1.44282360882097715487438058646585
92,3386.64502600313384700576557384453928,3385.2,1.44502600313384700576557384453928
93,3460.64720454948944198837593371570832,3459.2,1.44720454948944198837593371570832
94,3535.44935975907878543860226544075265,3534.0,1.44935975907878543860226544075265
95,3611.05149212682450766673001067552127,3609.6,1.45149212682450766673001067552127
96,3687.45360213206413780853571508064588,3686.0,1.45360213206413780853571508064588
97,3764.65569023919788532559329524555726,3763.2,1.45569023919788532559329524555726
98,3842.65775689830310201683446152937225,3841.2,1.45775689830310201683446152937225
99,3921.45980254571746193122453365521573,3920.0,1.45980254571746193122453365521573
100,4001.06182760459275023099881428108076,3999.6,1.46182760459275023099881428108076
101,4081.46383248542102275075019809763847,4080.0,1.46383248542102275075019809763847
102,4162.66581758653477242293763453893612,4161.2,1.46581758653477242293763453893612
103,4244.66778329458263082677213774439575,4243.2,1.46778329458263082677213774439575
104,4327.46972998498202585272670316335974,4326.0,1.46972998498202585272670316335974
105,4411.07165802235012340115949476230917,4409.6,1.47165802235012340115949476230917
106,4495.47356776091429026929602901165083,4494.0,1.47356776091429026929602901165083
107,4580.67545954490323729886063276230290,4579.2,1.47545954490323729886063276230290
108,4666.67733370891992261709306384628679,4665.2,1.47733370891992261709306384628679
109,4753.47919057829722621035205137554358,4752.0,1.47919057829722621035205137554358
110,4841.08103046943734464938240371374750,4839.6,1.48103046943734464938240371374750
111,4929.48285369013578892412386293520131,4928.0,1.48285369013578892412386293520131
112,5018.68466053989081891230636809608863,5017.2,1.48466053989081891230636809608863
113,5108.68645131019909247028233381025450,5107.2,1.48645131019909247028233381025450
114,5199.48822628483825837679021704747346,5198.0,1.48822628483825837679021704747346
115,5291.08998574013718191184104829133534,5289.6,1.48998574013718191184104829133534
116,5383.49172994523444352127141272674867,5382.0,1.49172994523444352127141272674867
117,5476.69345916232571930449957108571825,5475.2,1.49345916232571930449957108571825
118,5570.69517364690061103191588231237802,5569.2,1.49517364690061103191588231237802
119,5665.49687364796945968462233711736002,5664.0,1.49687364796945968462233711736002
120,5761.09855940828065066700108498381110,5759.6,1.49855940828065066700108498381110
121,5857.50023116452888057534758190660141,5856.0,1.50023116452888057534758190660141
122,5954.70188914755483649267119092581710,5953.2,1.50188914755483649267119092581710
123,6052.70353358253670658683410677195235,6051.2,1.50353358253670658683410677195235
124,6151.50516468917392310939076699661660,6150.0,1.50516468917392310939076699661660
125,6251.10678268186350932622685640649330,6249.6,1.50678268186350932622685640649330
126,6351.50838776986938671379940786583079,6350.0,1.50838776986938671379940786583079
127,6452.70998015748497817689314066976615,6451.2,1.50998015748497817689314066976615
128,6554.71156004418942045661827613620937,6553.2,1.51156004418942045661827613620937
129,6657.51312762479768682413694595889802,6656.0,1.51312762479768682413694595889802
130,6761.11468308960490277373808302164598,6759.6,1.51468308960490277373808302164598
131,6865.51622662452512202476257740162350,6864.0,1.51622662452512202476257740162350
132,6970.71775841122481516467970345955856,6969.2,1.51775841122481516467970345955856
133,7076.71927862725131148403183338740172,7075.2,1.51927862725131148403183338740172
134,7183.52078744615642327800566260539445,7182.0,1.52078744615642327800566260539445
135,7291.12228503761546378104562224591432,7289.6,1.52228503761546378104562224591432
136,7399.52377156754186621339481092275025,7398.0,1.52377156754186621339481092275025
137,7508.72524719819759811050521565470087,7507.2,1.52524719819759811050521565470087
138,7618.72671208829955149426836409747181,7617.2,1.52671208829955149426836409747181
139,7729.52816639312208733911195434935634,7728.0,1.52816639312208733911195434935634
140,7841.12961026459589734003973936749671,7839.6,1.52961026459589734003973936749671
141,7953.53104385140334143220194535409979,7952.0,1.53104385140334143220194535409979
142,8066.73246729907041143831653067699104,8065.2,1.53246729907041143831653067699104
143,8180.73388075005546257009215337087259,8179.2,1.53388075005546257009215337087259
144,8295.53528434383484733016690293754541,8294.0,1.53528434383484733016690293754541
145,8411.13667821698558217331759752205665,8409.6,1.53667821698558217331759752205665
146,8527.53806250326516941694359768692335,8526.0,1.53806250326516941694359768692335
147,8644.73943733368868868786316825040248,8643.2,1.53943733368868868786316825040248
148,8762.74080283660327323442686907619256,8761.2,1.54080283660327323442686907619256
149,8881.54215913776007290487841064373413,8880.0,1.54215913776007290487841064373413
150,9001.14350636038380743281607012785271,8999.6,1.54350636038380743281607012785271
151,9121.54484462524000594398400472167291,9120.0,1.54484462524000594398400472167291
152,9242.74617405070002298353825418837630,9241.2,1.54617405070002298353825418837630
153,9364.74749475280392001345543350028605,9363.2,1.54749475280392001345543350028605
154,9487.54880684532129627930014249013444,9486.0,1.54880684532129627930014249013444
155,9611.15011043981014728231745686995834,9609.6,1.55011043981014728231745686995834
156,9735.55140564567382872318665446859245,9734.0,1.55140564567382872318665446859245
157,9860.75269257021619696401235561604622,9859.2,1.55269257021619696401235561604622
158,9986.75397131869499782662685892106490,9985.2,1.55397131869499782662685892106490
159,10113.5552419943735674000092791708962,10112.0,1.5552419943735674000092791708962
160,10241.1565046985709111943315640742953,10239.6,1.5565046985709111943315640742953
161,10369.5577595307102201377225954561712,10368.0,1.5577595307102201377225954561712
162,10498.7590065883658828768220400645982,10497.2,1.5590065883658828768220400645982
163,10628.7602459673090492343935655889046,10627.2,1.5602459673090492343935655889046
164,10759.5614777615517994605626128257846,10758.0,1.5614777615517994605626128257846
165,10891.1627020633899678778667091472809,10889.6,1.5627020633899678778667091472809
166,11023.5639189634446714356772681224892,11022.0,1.5639189634446714356772681224892
167,11156.7651285507025904062825931595687,11155.2,1.5651285507025904062825931595687
168,11290.7663309125550439115158582985637,11289.2,1.5663309125550439115158582985637
169,11425.5675261348359053419888851210069,11424.0,1.5675261348359053419888851210069
170,11561.1687143018583974120176722643490,11559.6,1.5687143018583974120176722643490
171,11697.5698954964508070446706541353554,11696.0,1.5698954964508070446706541353554
172,11834.7710697999911579535678765242162,11833.2,1.5710697999911579535678765242162
173,11972.7722372924408763237319923807611,11971.2,1.5722372924408763237319923807611
174,12111.5733980523774854349752689573540,12110.0,1.5733980523774854349752689573540
175,12251.1745521570263632127258188423994,12249.6,1.5745521570263632127258188423994
176,12391.5756996822915924126159797073660,12390.0,1.5756996822915924126159797073660
177,12532.7768407027859366993404529658119,12531.2,1.5768407027859366993404529658119
178,12674.7779752918599717741505410613481,12673.2,1.5779752918599717741505410613481
179,12817.5791035216303979959003362894915,12816.0,1.5791035216303979959003362894915
180,12961.1802254630075654420138736097649,12959.6,1.5802254630075654420138736097649
181,13105.5813411857222340579294278010168,13104.0,1.5813411857222340579294278010168
182,13250.7824507583515965903762932871713,13249.2,1.5824507583515965903762932871713
183,13396.7835542483445873537280187460596,13395.2,1.5835542483445873537280187460596
184,13543.5846517220465010709379275813879,13542.0,1.5846517220465010709379275813879
185,13691.1857432447229435971501956731853,13689.6,1.5857432447229435971501956731853
186,13839.5868288805831354945754628980481,13838.0,1.5868288805831354945754628980481
187,13988.7879086928025922590980526463476,13987.2,1.5879086928025922590980526463476
188,14138.7889827435451966348988143017284,14137.2,1.5889827435451966348988143017284
189,14289.5900510939846867481505443753564,14288.0,1.5900510939846867481505443753564
190,14441.1911138043255757108300267846479,14439.6,1.5911138043255757108300267846479
191,14593.5921709338235219171643817473352,14592.0,1.5921709338235219171643817473352
192,14746.7932225408051664148799511293823,14745.2,1.5932225408051664148799511293823
193,14900.7942686826874556550662520670897,14899.2,1.5942686826874556550662520670897
194,15055.5953094159964629614016063977350,15054.0,1.5953094159964629614016063977350
195,15211.1963447963857266510626685312187,15209.6,1.5963447963857266510626685312187
196,15367.5973748786541184991805341025693,15366.0,1.5973748786541184991805341025693
197,15524.7983997167632569221268845588937,15523.2,1.5983997167632569221268845588937
198,15682.7994193638544790415713402382083,15681.2,1.5994193638544790415713402382083
199,15841.6004338722653844631256439178316,15840.0,1.6004338722653844631256439178316
200,16001.2014432935459647097357268240808,15999.6,1.6014432935459647097357268240808
201,16161.6024476784743292862005709148153,16160.0,1.6024476784743292862005709148153
202,16322.8034470770720417509292925627667,16321.2,1.6034470770720417509292925627667
203,16484.8044415386190764496185402540895,16483.2,1.6044415386190764496185402540895
204,16647.6054311116684075257118337998963,16646.0,1.6054311116684075257118337998963
205,16811.2064158440602401729529470116274,16809.6,1.6064158440602401729529470116274
206,16975.6073957829358971487303573813601,16974.0,1.6073957829358971487303573813601
207,17140.8083709747513664188383337407146,17139.2,1.6083709747513664188383337407146
208,17306.8093414652905241550594006683303,17305.2,1.6093414652905241550594006683303
209,17473.6103072996780388283958355408202,17472.0,1.6103072996780388283958355408202
210,17641.2112685223919678935493634482789,17639.6,1.6112685223919678935493634482789
211,17809.6122251772760544236055172849460,17808.0,1.6122251772760544236055172849460
212,17978.8131773075517339220448595182398,17977.2,1.6131773075517339220448595182398
213,18148.8141249558298556899691287704014,18147.2,1.6141249558298556899691287704014
214,18319.6150681641221337242258591456525,18318.0,1.6150681641221337242258591456525
215,18491.2160069738523263526563493547960,18489.6,1.6160069738523263526563493547960
216,18663.6169414258671585609175167638309,18662.0,1.6169414258671585609175167638309
217,18836.8178715604469909699131088984397,18835.2,1.6178715604469909699131088984397
218,19010.8187974173162444362773445988226,19009.2,1.6187974173162444362773445988226
219,19185.6197190356535835488398790815570,19184.0,1.6197190356535835488398790815570
220,19361.2206364541018715291927686743573,19359.6,1.6206364541018715291927686743573
221,19537.6215497107778944386421048248402,19536.0,1.6215497107778944386421048248402
222,19714.8224588432818718889024845687519,19713.2,1.6224588432818718889024845687519
223,19892.8233638887067478173580082254170,19891.2,1.6233638887067478173580082254170
224,20071.6242648836472763861805691763435,20070.0,1.6242648836472763861805691763435
225,20251.2251618642089055618403515115558,20249.6,1.6251618642089055618403515115558
226,20431.6260548660164619129415306531898,20430.0,1.6260548660164619129415306531898
227,20612.8269439242226452692220267020726,20611.2,1.6269439242226452692220267020726
228,20794.8278290735163350519087075194226,20793.2,1.6278290735163350519087075194226
229,20977.6287103481307154275634442612942,20976.0,1.6287103481307154275634442612942
230,21161.2295877818512239716485380075686,21159.6,1.6295877818512239716485380075686
231,21345.6304614080233256310660229424187,21344.0,1.6304614080233256310660229424187
232,21530.8313312595601223945755667566020,21529.2,1.6313312595601223945755667566020
233,21716.8321973689497936565791548836679,21715.2,1.6321973689497936565791548836679
234,21903.6330597682628834203221872007068,21902.0,1.6330597682628834203221872007068
235,22091.2339184891594275115944632367844,22089.6,1.6339184891594275115944632367844
236,22279.6347735628959305016826412098073,22278.0,1.6347735628959305016826412098073
237,22468.8356250203321959596843140580119,22467.2,1.6356250203321959596843140580119
238,22658.8364728919380117651773437475018,22657.2,1.6364728919380117651773437475018
