Eigenstate,Energy,Kinetic Energy,Potential Energy
1,0.500000000516919385283134230961448791,0.0,0.500000000516919385283134230961448791
2,1.84623094102535276261882422780033949,1.2,0.64623094102535276261882422780033949
3,3.93633761961679130058417443171230458,3.2,0.73633761961679130058417443171230458
4,6.79966529846017086182757704449512353,6.0,0.79966529846017086182757704449512353
5,10.4480466110503246683023071834562216,9.6,0.8480466110503246683023071834562216
6,14.8870660522159811381782602152780289,14.0,0.8870660522159811381782602152780289
7,20.1197209034308938778637031482065094,19.2,0.9197209034308938778637031482065094
8,26.1477839510917047730771623995080567,25.2,0.9477839510917047730771623995080567
9,32.9723836942171450268401086387311449,32.0,0.9723836942171450268401086387311449
10,40.5942803869646935240941721387599963,39.6,0.9942803869646935240941721387599963
11,49.0140095994824930290844766390286994,48.0,1.0140095994824930290844766390286994
12,58.2319624270813622386490417458390774,57.2,1.0319624270813622386490417458390774
13,68.2484329998328672188535094166008326,67.2,1.0484329998328672188535094166008326
14,79.0636480154257593057286038420707876,78.0,1.0636480154257593057286038420707876
15,90.6777858549803270663449819536217655,89.6,1.0777858549803270663449819536217655
16,103.090989387918946731734198460740677,102.0,1.090989387918946731734198460740677
17,116.303374805427655528964902787264376,115.2,1.103374805427655528964902787264376
18,130.315037871462397863911536510659037,129.2,1.115037871462397863911536510659037
19,145.126058445853035555069705675230403,144.0,1.126058445853035555069705675230403
20,160.736503821937307699362516701025006,159.6,1.136503821937307699362516701025006
21,177.146431232642545130471579538894294,176.0,1.146431232642545130471579538894294
22,194.355889761644423638047039232703740,193.2,1.155889761644423638047039232703740
23,212.364921821303498792428505552227560,211.2,1.164921821303498792428505552227560
24,231.173564310065636213074285813963162,230.0,1.173564310065636213074285813963162
25,250.781849529257944594737421647967855,249.6,1.181849529257944594737421647967855
26,271.189805916896369025690167858556133,270.0,1.189805916896369025690167858556133
27,292.397458640648271612588478856164106,291.2,1.197458640648271612588478856164106
28,314.404830081191475536801688365112626,313.2,1.204830081191475536801688365112626
29,337.211940229416220789743856279961806,336.0,1.211940229416220789743856279961806
30,360.818807015266992226265872154842461,359.6,1.218807015266992226265872154842461
31,385.225446581875242047184745725341592,384.0,1.225446581875242047184745725341592
32,410.431873515556129217170970344437864,409.2,1.231873515556129217170970344437864
33,436.438101039932750505392913569951627,435.2,1.238101039932750505392913569951627
34,463.244141180700791559322361948102418,462.0,1.244141180700791559322361948102418
35,490.850004906207331348332587060554993,489.6,1.250004906207331348332587060554993
36,519.255702247984054429099803467022677,518.0,1.255702247984054429099803467022677
37,548.461242404571040931699906316362631,547.2,1.261242404571040931699906316362631
38,578.466633831336885418628633871843186,577.2,1.266633831336885418628633871843186
39,609.271884318503047116741400920947105,608.0,1.271884318503047116741400920947105
40,640.877001059184513236456437452276287,639.6,1.277001059184513236456437452276287
41,673.281990708942106817196174145016383,672.0,1.281990708942106817196174145016383
42,706.486859438086777935242941105036337,705.2,1.286859438086777935242941105036337
43,740.491612977769730764246075742923606,739.2,1.291612977769730764246075742923606
44,775.296256660724144962301972567249982,774.0,1.296256660724144962301972567249982
45,810.900795457386680289886275706655797,809.6,1.300795457386680289886275706655797
46,847.305234008013817079809008793701726,846.0,1.305234008013817079809008793701726
47,884.509576651314608567618455493505851,883.2,1.309576651314608567618455493505851
48,922.513827450043834726302763936552171,921.2,1.313827450043834726302763936552171
49,961.317990213934884704976479948572382,960.0,1.317990213934884704976479948572382
50,1000.92206852029757225737504003983331,999.6,1.32206852029757225737504003983331
51,1041.32606573256062158334055781090695,1040.0,1.32606573256062158334055781090695
52,1082.52998501700021579204896546502318,1081.2,1.32998501700021579204896546502318
53,1124.53382935786355007707838193169298,1123.2,1.33382935786355007707838193169298
54,1167.33760157106877056188376454733623,1166.0,1.33760157106877056188376454733623
55,1210.94130431663920428166918493034599,1209.6,1.34130431663920428166918493034599
56,1255.34494011000971119748045766484548,1254.0,1.34494011000971119748045766484548
57,1300.54851133232579017319168905608907,1299.2,1.34851133232579017319168905608907
58,1346.55202023984127365975271197707355,1345.2,1.35202023984127365975271197707355
59,1393.35546897250769188377655811091742,1392.0,1.35546897250769188377655811091742
60,1440.95885956183736282984849891650169,1439.6,1.35885956183736282984849891650169
61,1489.36219393811270007843990482093956,1488.0,1.36219393811270007843990482093956
62,1538.56547393700592955621210228330944,1537.2,1.36547393700592955621210228330944
63,1588.56870130566616436649331264077955,1587.2,1.36870130566616436649331264077955
64,1639.37187770832447438781638626347645,1638.0,1.37187770832447438781638626347645
65,1690.97500473146205248846290363361804,1689.6,1.37500473146205248846290363361804
66,1743.37808388858173186593631637669810,1742.0,1.37808388858173186593631637669810
67,1796.58111662461884672900061065769714,1795.2,1.38111662461884672900061065769714
68,1850.58410432002367237915202634972082,1849.2,1.38410432002367237915202634972082
69,1905.38704829454436807771160712578419,1904.0,1.38704829454436807771160712578419
70,1960.98994981073641781650328852228452,1959.6,1.38994981073641781650328852228452
71,2017.39281007722196540640890546004193,2016.0,1.39281007722196540640890546004193
72,2074.59563025172014205575599473689918,2073.2,1.39563025172014205575599473689918
73,2132.59841144386743160415328429169244,2131.2,1.39841144386743160415328429169244
74,2191.40115471784529972888726569440004,2190.0,1.40115471784529972888726569440004
75,2251.00386109483068233995501171444886,2249.6,1.40386109483068233995501171444886
76,2311.40653155528347882311054950352842,2310.0,1.40653155528347882311054950352842
77,2372.60916704108389339195357447554105,2371.2,1.40916704108389339195357447554105
78,2434.61176845753130201197260643373156,2433.2,1.41176845753130201197260643373156
79,2497.41433667521527553953336634732085,2496.0,1.41433667521527553953336634732085
80,2561.01687253176845159322768120471244,2559.6,1.41687253176845159322768120471244
81,2625.41937683351009833360019931013832,2624.0,1.41937683351009833360019931013832
82,2690.62185035698845187678802332722989,2689.2,1.42185035698845187678802332722989
83,2756.62429385042922033390012042270026,2755.2,1.42429385042922033390012042270026
84,2823.42670803509702317632770582032953,2822.0,1.42670803509702317632770582032953
85,2891.02909360657597535108687381155142,2889.6,1.42909360657597535108687381155142
86,2959.43145123597510970498963259320404,2958.0,1.43145123597510970498963259320404
87,3028.63378157106387380573246666925525,3027.2,1.43378157106387380573246666925525
88,3098.63608523734251387034217872748550,3097.2,1.43608523734251387034217872748550
89,3169.43836283905177500935450200402265,3168.0,1.43836283905177500935450200402265
90,3241.04061496012600377846707548994527,3239.6,1.44061496012600377846707548994527
91,3313.44284216509341757745858464678809,3312.0,1.44284216509341757745858464678809
92,3386.64504499992701713872698184640239,3385.2,1.44504499992701713872698184640239
93,3460.64722399284935609285196589698626,3459.2,1.44722399284935609285196589698626
94,3535.44937965509413866995608941763761,3534.0,1.44937965509413866995608941763761
95,3611.05151248162739544172204309664110,3609.6,1.45151248162739544172204309664110
96,3687.45362295183078518692108957289718,3686.0,1.45362295183078518692108957289718
97,3764.65571153014938662132025065837224,3763.2,1.45571153014938662132025065837224
98,3842.65777866670617085865703652528239,3841.2,1.45777866670617085865703652528239
99,3921.45982479788519199731220272381759,3920.0,1.45982479788519199731220272381759
100,4001.06185034688538688702286488777935,3999.6,1.46185034688538688702286488777935
101,4081.46385572424674582595391737847513,4080.0,1.46385572424674582595391737847513
102,4162.66584132835049036386658209236201,4161.2,1.46584132835049036386658209236201
103,4244.66780754589478647364520055294324,4243.2,1.46780754589478647364520055294324
104,4327.46975475234741408888643730953381,4326.0,1.46975475234741408888643730953381
105,4411.07168331237672093163758865179704,4409.6,1.47168331237672093163758865179704
106,4495.47359358026209779029010020812753,4494.0,1.47359358026209779029010020812753
107,4580.67548590028513432583311661970392,4579.2,1.47548590028513432583311661970392
108,4666.67736060710253524527994914023084,4665.2,1.47736060710253524527994914023084
109,4753.47921802610180808772174754300008,4752.0,1.47921802610180808772174754300008
110,4841.08105847374067144850164724335222,4839.6,1.48105847374067144850164724335222
111,4929.48288225787106660599014415506923,4928.0,1.48288225787106660599014415506923
112,5018.68468967804860608199185737973889,5017.2,1.48468967804860608199185737973889
113,5108.68648102582823713120665738716730,5107.2,1.48648102582823713120665738716730
114,5199.48825658504684939761427213448136,5198.0,1.48825658504684939761427213448136
115,5291.09001663209351552734377233597423,5289.6,1.49001663209351552734377233597423
116,5383.49176143616800519615558021842578,5382.0,1.49176143616800519615558021842578
117,5476.69349125952818129686775109997943,5475.2,1.49349125952818129686775109997943
118,5570.69520635772684600117693047822834,5569.2,1.49520635772684600117693047822834
119,5665.49690697983857069683518589444964,5664.0,1.49690697983857069683518589444964
120,5761.09859336867701795914541882440343,5759.6,1.49859336867701795914541882440343
121,5857.50026576100322544873712727299431,5856.0,1.50026576100322544873712727299431
122,5954.70192438772530271470460827937726,5953.2,1.50192438772530271470460827937726
123,6052.70356947408995968951176141891180,6051.2,1.50356947408995968951176141891180
124,6151.50520123986626798253148242816661,6150.0,1.50520123986626798253148242816661
125,6251.10681989952202651309962089006594,6249.6,1.50681989952202651309962089006594
126,6351.50842566239308782694855702857166,6350.0,1.50842566239308782694855702857166
127,6452.71001873284598086229607103604424,6451.2,1.51001873284598086229607103604424
128,6554.71159931043414334497812356221069,6553.2,1.51159931043414334497812356221069
129,6657.51316759004806491909040072825109,6656.0,1.51316759004806491909040072825109
130,6761.11472376205962373805731189312496,6759.6,1.51472376205962373805731189312496
131,6865.51626801246088383727043522382963,6864.0,1.51626801246088383727043522382963
132,6970.71780052299760563257942004059848,6969.2,1.51780052299760563257942004059848
133,7076.71932147129771010768681371874130,7075.2,1.51932147129771010768681371874130
134,7183.52083103099492597792138181966008,7182.0,1.52083103099492597792138181966008
135,7291.12232937184783100989407984603975,7289.6,1.52232937184783100989407984603975
136,7399.52381665985449498940425653273598,7398.0,1.52381665985449498940425653273598
137,7508.72529305736291852243847628886141,7507.2,1.52529305736291852243847628886141
138,7618.72675872317744824252294326103840,7617.2,1.52675872317744824252294326103840
139,7729.52821381266134689222928889410420,7728.0,1.52821381266134689222928889410420
140,7841.12965847783568130111609929631021,7839.6,1.52965847783568130111609929631021
141,7953.53109286747468672535798894643357,7952.0,1.53109286747468672535798894643357
142,8066.73251712719775794154101572988105,8065.2,1.53251712719775794154101572988105
143,8180.73393139955820883742364948652747,8179.2,1.53393139955820883742364948652747
144,8295.53533582412893506334865878499690,8294.0,1.53533582412893506334865878499690
145,8411.13673053758511012075939350730299,8409.6,1.53673053758511012075939350730299
146,8527.53811567378403739609088835650374,8526.0,1.53811567378403739609088835650374
147,8644.73949136384227244589733093130372,8643.2,1.53949136384227244589733093130372
148,8762.74085773621013088164465158878910,8761.2,1.54085773621013088164465158878910
149,8881.54221491674368367514333235179259,8880.0,1.54221491674368367514333235179259
150,9001.14356302877434354614105279488237,8999.6,1.54356302877434354614105279488237
151,9121.54490219317613836764692172247923,9120.0,1.54490219317613836764692172247923
152,9242.74623252843076191014371127017878,9241.2,1.54623252843076191014371127017878
153,9364.74755415069049089708279195523494,9363.2,1.54755415069049089708279195523494
154,9487.54886717383905229433424215544165,9486.0,1.54886717383905229433424215544165
155,9611.15017170955051909377851461896309,9609.6,1.55017170955051909377851461896309
156,9735.55146786734631248237984299640993,9734.0,1.55146786734631248237984299640993
157,9860.75275575465038146913770220498545,9859.2,1.55275575465038146913770220498545
158,9986.75403547684263181466188281078021,9985.2,1.55403547684263181466188281078021
159,10113.5553071373106679637210126141933,10112.0,1.5553071373106679637210126141933
160,10241.1565708374999143467325025703244,10239.6,1.5565708374999143467325025703244
161,10369.5578266769621745756871943833720,10368.0,1.5578266769621745756871943833720
162,10498.7590747534026880259637041041872,10497.2,1.5590747534026880259637041041872
163,10628.7603151627257386886958559097582,10627.2,1.5603151627257386886958559097582
164,10759.5615479990788709627205160433727,10758.0,1.5615479990788709627205160433727
165,10891.1627733548957610198400136579056,10889.6,1.5627733548957610198400136579056
166,11023.5639913209377942936443812842563,11022.0,1.5639913209377942936443812842563
167,11156.7652019863343963600528891805377,11155.2,1.5652019863343963600528891805377
168,11290.7664054386221599355596836569365,11289.2,1.5664054386221599355596836569365
169,11425.5676017637828130936014888303105,11424.0,1.5676017637828130936014888303105
170,11561.1687910462800684818410047551292,11559.6,1.5687910462800684818410047551292
171,11697.5699733690953937758507399144447,11696.0,1.5699733690953937758507399144447
172,11834.7711488137627412783332812028442,11833.2,1.5711488137627412783332812028442
173,11972.7723174604022721101552817472674,11971.2,1.5723174604022721101552817472674
174,12111.5734793877531108822084281548630,12110.0,1.5734793877531108822084281548630
175,12251.1746346732051648801328635698687,12249.6,1.5746346732051648801328635698687
176,12391.5757833928300375170252476875591,12390.0,1.5757833928300375170252476875591
177,12532.7769256214110693651801058428796,12531.2,1.5769256214110693651801058428796
178,12674.7780614324725359735751090737664,12673.2,1.5780614324725359735751090737664
179,12817.5791908983080289702381321562580,12816.0,1.5791908983080289702381321562580
180,12961.1803140900080514520495242932588,12959.6,1.5803140900080514520495242932588
181,13105.5814310774868503687504410642353,13104.0,1.5814310774868503687504410642353
182,13250.7825419295085136568481415316549,13249.2,1.5825419295085136568481415316549
183,13396.7836467137123552352082211559273,13395.2,1.5836467137123552352082211559273
184,13543.5847454966376121686809659249122,13542.0,1.5847454966376121686809659249122
185,13691.1858383437474758750917252802363,13689.6,1.5858383437474758750917252802363
186,13839.5869253194524784139139388797328,13838.0,1.5869253194524784139139388797328
187,13988.7880064871332577294239877621726,13987.2,1.5880064871332577294239877621726
188,14138.7890819091627173596621930929174,14137.2,1.5890819091627173596621930929174
189,14289.5901516469276044201231526714155,14288.0,1.5901516469276044201231526714155
190,14441.1912157608495215940220609012999,14439.6,1.5912157608495215940220609012999
191,14593.5922743104053924355454767206936,14592.0,1.5922743104053924355454767206936
192,14746.7933273541473964553220867292761,14745.2,1.5933273541473964553220867292761
193,14900.7943749497223923823769028443403,14899.2,1.5943749497223923823769028443403
194,15055.5954171538908430372052150615589,15054.0,1.5954171538908430372052150615589
195,15211.1964540225452598458537999393951,15209.6,1.5964540225452598458537999393951
196,15367.5974856107281807882277224413702,15366.0,1.5974856107281807882277224413702
197,15524.7985119726496962612257710145164,15523.2,1.5985119726496962612257710145164
198,15682.7995331617045371281096959512978,15681.2,1.5995331617045371281096959512978
199,15841.6005492304887379017321266029155,15840.0,1.6005492304887379017321266029155
200,16001.2015602308158891200855229916445,15999.6,1.6015602308158891200855229916445
201,16161.6025662137329900136130585778760,16160.0,1.6025662137329900136130585778760
202,16322.8035672295359149683850687991762,16321.2,1.6035672295359149683850687991762
203,16484.8045633277845045729619435144105,16483.2,1.6045633277845045729619435144105
204,16647.6055545573172930023985880545566,16646.0,1.6055545573172930023985880545566
205,16811.2065409662658818488812698929968,16809.6,1.6065409662658818488812698929968
206,16975.6075226020689735678510984631873,16974.0,1.6075226020689735678510984631873
207,17140.8084995114860705665505392218111,17139.2,1.6084995114860705665505392218111
208,17306.8094717406108543191883366114817,17305.2,1.6094717406108543191883366114817
209,17473.6104393348842504211571859062495,17472.0,1.6104393348842504211571859062495
210,17641.2114023391071912545640442923025,17639.6,1.6114023391071912545640442923025
211,17809.6123607974530838081920154033106,17808.0,1.6123607974530838081920154033106
212,17978.8133147534799930709291259329539,17977.2,1.6133147534799930709291259329539
213,18148.8142642501425455766744347367544,18147.2,1.6142642501425455766744347367544
214,18319.6152093298035682850765149735801,18318.0,1.6152093298035682850765149735801
215,18491.2161500342454622220014642216938,18489.6,1.6161500342454622220014642216938
216,18663.6170864046813250612678363657031,18662.0,1.6170864046813250612678363657031
217,18836.8180184817658268436771327252194,18835.2,1.6180184817658268436771327252194
218,19010.8189463056058480531336754099647,19009.2,1.6189463056058480531336754099647
219,19185.6198699157708835810605313222636,19184.0,1.6198699157708835810605313222636
220,19361.2207893513032253569131342453974,19359.6,1.6207893513032253569131342453974
221,19537.6217046507279218288065501759167,19536.0,1.6217046507279218288065501759167
222,19714.8226158520625317859540091122488,19713.2,1.6226158520625317859540091122488
223,19892.8235229928266663913447242288804,19891.2,1.6235229928266663913447242288804
224,20071.6244261100513348055278310839509,20070.0,1.6244261100513348055278310839509
225,20251.2253252402880962942446330239445,20249.6,1.6253252402880962942446330239445
226,20431.6262204196180227095146780741909,20430.0,1.6262204196180227095146780741909
227,20612.8271116836604803548760799001115,20611.2,1.6271116836604803548760799001115
228,20794.8279990675817334299573096091297,20793.2,1.6279990675817334299573096091297
229,20977.6288826061033766094538737639269,20976.0,1.6288826061033766094538737639269
230,21161.2297623335106018646366991685241,21159.6,1.6297623335106018646366991685241
231,21345.6306382836603017584693746796242,21344.0,1.6306382836603017584693746796242
232,21530.8315104899890200861247465501972,21529.2,1.6315104899890200861247465501972
233,21716.8323789855207453313849587928446,21715.2,1.6323789855207453313849587928446
234,21903.6332438028745635933920787996057,21902.0,1.6332438028745635933920787996057
235,22091.2341049742721646878315763445822,22089.6,1.6341049742721646878315763445822
236,22279.6349625315452116803829343019124,22278.0,1.6349625315452116803829343019124
237,22468.8358165061425780589944847606468,22467.2,1.6358165061425780589944847606468
238,22658.8366669291374548914687771696971,22657.2,1.6366669291374548914687771696971
