Eigenstate,Energy,Kinetic Energy,Potential Energy
1,0.500000001135023665277434291810008250,0.0,0.500000001135023665277434291810008250
2,1.84623094506019693671588420761273167,1.2,0.64623094506019693671588420761273167
3,3.93633763146964861444721395941820405,3.2,0.73633763146964861444721395941820405
4,6.79966532315068270207897296175336306,6.0,0.79966532315068270207897296175336306
5,10.4480466538245613816283965813702705,9.6,0.8480466538245613816283965813702705
6,14.8870661184151356194727836837091706,14.0,0.8870661184151356194727836837091706
7,20.1197209984434451067297317824488313,19.2,0.9197209984434451067297317824488313
8,26.1477840803339715612966382712277940,25.2,0.9477840803339715612966382712277940
9,32.9723838631247072073342331405028704,32.0,0.9723838631247072073342331405028704
10,40.5942806009884663212805919615403887,39.6,0.9942806009884663212805919615403887
11,49.0140098640869936458330610040033118,48.0,1.0140098640869936458330610040033118
12,58.2319627477440953277549215710887151,57.2,1.0319627477440953277549215710887151
13,68.2484333820443212931984718848112106,67.2,1.0484333820443212931984718848112106
14,79.0636484646897566033303118581718190,78.0,1.0636484646897566033303118581718190
15,90.6777863768145885470581190168726096,89.6,1.0777863768145885470581190168726096
16,103.090989987855794144127394371297502,102.0,1.090989987855794144127394371297502
17,116.303375489014804606994397015220774,115.2,1.103375489014804606994397015220774
18,130.315038644263814633988372197010036,129.2,1.115038644263814633988372197010036
19,145.126059313449838139864278003731328,144.0,1.126059313449838139864278003731328
20,160.736504789928702263200609154148567,159.6,1.136504789928702263200609154148567
21,177.146432306646788494875618658214730,176.0,1.146432306646788494875618658214730
22,194.355890947299807574366702624486469,193.2,1.155890947299807574366702624486469
23,212.364923124269352620502223625117124,211.2,1.164923124269352620502223625117124
24,231.173565736023345421015772886236815,230.0,1.173565736023345421015772886236815
25,250.781851083911983937738697978480471,249.6,1.181851083911983937738697978480471
26,271.189807605975349079719002530369571,270.0,1.189807605975349079719002530369571
27,292.397460469905998126741914052386762,291.2,1.197460469905998126741914052386762
28,314.404832056408021193935880699089629,313.2,1.204832056408021193935880699089629
29,337.211942356399009180380423051458398,336.0,1.211942356399009180380423051458398
30,360.818809299851893986741601563096555,359.6,1.218809299851893986741601563096555
31,385.225449029927683223868638944125186,384.0,1.225449029927683223868638944125186
32,410.431876132972212004176514170419649,409.2,1.231876132972212004176514170419649
33,436.438103832640386570457342466519332,435.2,1.238103832640386570457342466519332
34,463.244144154660848226289638337380798,462.0,1.244144154660848226289638337380798
35,490.850008067414790948464591096135644,489.6,1.250008067414790948464591096135644
36,519.255705602469187169790272123986755,518.0,1.255705602469187169790272123986755
37,548.461245958400591661944986571963049,547.2,1.261245958400591661944986571963049
38,578.466637590615274697194113654378533,577.2,1.266637590615274697194113654378533
39,609.271888289373587012398817831780721,608.0,1.271888289373587012398817831780721
40,640.877005247830638310718321313293016,639.6,1.277005247830638310718321313293016
41,673.281995121588620759263927091614058,672.0,1.281995121588620759263927091614058
42,706.486864081001116336848698896102473,705.2,1.286864081001116336848698896102473
43,740.491617857263240539081555875967827,739.2,1.291617857263240539081555875967827
44,775.296261783153380931063909517381124,774.0,1.296261783153380931063909517381124
45,810.900800829154719467852173224947830,809.6,1.300800829154719467852173224947830
46,847.305239635571591219468715159954434,846.0,1.305239635571591219468715159954434
47,884.509582541162255524370286307939636,883.2,1.309582541162255524370286307939636
48,922.513833608732069230696984898662916,921.2,1.313833608732069230696984898662916
49,961.317996648066389140551359920445968,960.0,1.317996648066389140551359920445968
50,1000.92207523652840805886441784519927,999.6,1.32207523652840805886441784519927
51,1041.32607273760166188600956728894522,1040.0,1.32607273760166188600956728894522
52,1082.52999231761859997919094796632848,1081.2,1.32999231761859997919094796632848
53,1124.53383696088416088934266261764626,1123.2,1.33383696088416088934266261764626
54,1167.33760948337573444914153154805950,1166.0,1.33760948337573444914153154805950
55,1210.94131254517741569560926683360331,1209.6,1.34131254517741569560926683360331
56,1255.34494866178638154109823388739037,1254.0,1.34494866178638154109823388739037
57,1300.54852021441202214182805731274463,1299.2,1.34852021441202214182805731274463
58,1346.55202945937366172739301120127213,1345.2,1.35202945937366172739301120127213
59,1393.35547853668994970796101407617991,1392.0,1.35547853668994970796101407617991
60,1440.95886947794197836881522153245705,1439.6,1.35886947794197836881522153245705
61,1489.36220421348261923504326327718378,1488.0,1.36220421348261923504326327718378
62,1538.56548457905626918477314728744263,1537.2,1.36548457905626918477314728744263
63,1588.56871232188595550106833885183519,1587.2,1.36871232188595550106833885183519
64,1639.37188910627843657344986651292843,1638.0,1.37188910627843657344986651292843
65,1690.97501651879240012086089370579370,1689.6,1.37501651879240012086089370579370
66,1743.37809607301001346967471999727394,1742.0,1.37809607301001346967471999727394
67,1796.58112921394781812991490261636630,1795.2,1.38112921394781812991490261636630
68,1850.58411732213920475297172960623434,1849.2,1.38411732213920475297172960623434
69,1905.38706171741739188433884286067295,1904.0,1.38706171741739188433884286067295
70,1960.98996366242490365762288641453730,1959.6,1.38996366242490365762288641453730
71,2017.39282436587294287340730974842705,2016.0,1.39282436587294287340730974842705
72,2074.59564498557175766523990697700218,2073.2,1.39564498557175766523990697700218
73,2132.59842663125104694975333858961820,2131.2,1.39842663125104694975333858961820
74,2191.40117036718763101053582603543036,2190.0,1.40117036718763101053582603543036
75,2251.00387721465598246549489825955949,2249.6,1.40387721465598246549489825955949
76,2311.40654815421576331195901211945875,2310.0,1.40654815421576331195901211945875
77,2372.60918412784921134666539640036913,2371.2,1.40918412784921134666539640036913
78,2434.61178604096005346097251205231679,2433.2,1.41178604096005346097251205231679
79,2497.41435476424457649305597531210695,2496.0,1.41435476424457649305597531210695
80,2561.01689113544454819468489678564321,2559.6,1.41689113544454819468489678564321
81,2625.41939596099083153023291071151281,2624.0,1.41939596099083153023291071151281
82,2690.62187001754577407661992894573433,2689.2,1.42187001754577407661992894573433
83,2756.62431405345176556075085776953928,2755.2,1.42431405345176556075085776953928
84,2823.42672879009273228101993739347315,2822.0,1.42672879009273228101993739347315
85,2891.02911492317477788507995566783423,2889.6,1.42911492317477788507995566783423
86,2959.43147312393166411253446262222896,2958.0,1.43147312393166411253446262222896
87,3028.63380404026036764236996814560774,3027.2,1.43380404026036764236996814560774
88,3098.63610829779152580921496842159820,3097.2,1.43610829779152580921496842159820
89,3169.43838650089920045244817448693522,3168.0,1.43838650089920045244817448693522
90,3241.04063923365404594764531944866665,3239.6,1.44063923365404594764531944866665
91,3313.44286706072364602006991207703371,3312.0,1.44286706072364602006991207703371
92,3386.64507052822349564474347668133663,3385.2,1.44507052822349564474347668133663
93,3460.64725016452184208503832193751651,3459.2,1.44725016452184208503832193751651
94,3535.44940648100135619557121788906503,3534.0,1.44940648100135619557121788906503
95,3611.05153997278038396381821397595343,3609.6,1.45153997278038396381821397595343
96,3687.45365111939632644553677868671550,3686.0,1.45365111939632644553677868671550
97,3764.65574038545351190988719064427164,3763.2,1.45574038545351190988719064427164
98,3842.65780822123775113886432792159721,3841.2,1.45780822123775113886432792159721
99,3921.45985506329961335662853460756755,3920.0,1.45985506329961335662853460756755
100,4001.06188133500831392718711680227939,3999.6,1.46188133500831392718711680227939
101,4081.46388744707797565816909973882761,4080.0,1.46388744707797565816909973882761
102,4162.66587379806789997727751467494341,4161.2,1.46587379806789997727751467494341
103,4244.66784077485837633813979460220098,4243.2,1.46784077485837633813979460220098
104,4327.46978875310345095146109361588680,4326.0,1.46978875310345095146109361588680
105,4411.07171809766198286768800887467819,4409.6,1.47171809766198286768800887467819
106,4495.47362916300822467740591532953993,4494.0,1.47362916300822467740591532953993
107,4580.67552229362308701817052079645963,4579.2,1.47552229362308701817052079645963
108,4666.67739782436716684154584135787182,4665.2,1.47739782436716684154584135787182
109,4753.47925608083655080544034591140085,4752.0,1.47925608083655080544034591140085
110,4841.08109737970234274175748826097447,4839.6,1.48109737970234274175748826097447
111,4929.48292202903479829346969194550874,4928.0,1.48292202903479829346969194550874
112,5018.68473032861290038711466278339076,5017.2,1.48473032861290038711466278339076
113,5108.68652257022015367670876504028515,5107.2,1.48652257022015367670876504028515
114,5199.48829903792732734335517851984814,5198.0,1.48829903792732734335517851984814
115,5291.09006000836283519264826407715119,5289.6,1.49006000836283519264826407715119
116,5383.49180575097139366694935366427477,5382.0,1.49180575097139366694935366427477
117,5476.69353652826156668353439355895349,5475.2,1.49353652826156668353439355895349
118,5570.69525259604276518575367052984502,5569.2,1.49525259604276518575367052984502
119,5665.49695420365223558823612965093997,5664.0,1.49695420365223558823612965093997
120,5761.09864159417254546288418450047495,5759.6,1.49864159417254546288418450047495
121,5857.50031500464003655350510180869872,5856.0,1.50031500464003655350510180869872
122,5954.70197466624469630252931945743514,5953.2,1.50197466624469630252931945743514
123,6052.70362080452186688948952517820275,6051.2,1.50362080452186688948952517820275
124,6151.50525363953619311073891430191112,6150.0,1.50525363953619311073891430191112
125,6251.10687338605818087369215097809294,6249.6,1.50687338605818087369215097809294
126,6351.50848025373372289214493486293292,6350.0,1.50848025373372289214493486293292
127,6452.71007444724692760243620210187530,6451.2,1.51007444724692760243620210187530
128,6554.71165616647656474466341042579733,6553.2,1.51165616647656474466341042579733
129,6657.51322560664642899215201965275273,6656.0,1.51322560664642899215201965275273
130,6761.11478295846990464334311214907337,6759.6,1.51478295846990464334311214907337
131,6865.51632840828899899964137075383344,6864.0,1.51632840828899899964137075383344
132,6970.71786213820809708973860861358097,6969.2,1.51786213820809708973860861358097
133,7076.71938432622267863421234780348083,7075.2,1.51938432622267863421234780348083
134,7183.52089514634322688395317230452917,7182.0,1.52089514634322688395317230452917
135,7291.12239476871454087405868777654568,7289.6,1.52239476871454087405868777654568
136,7399.52388335973065896465725409514548,7398.0,1.52388335973065896465725409514548
137,7508.72536108214558825041632625175512,7507.2,1.52536108214558825041632625175512
138,7618.72682809518002082769902899840183,7617.2,1.52682809518002082769902899840183
139,7729.52828455462421582263720403488572,7728.0,1.52828455462421582263720403488572
140,7841.12973061293721065873241643814974,7839.6,1.52973061293721065873241643814974
141,7953.53116641934252050752079097584286,7952.0,1.53116641934252050752079097584286
142,8066.73259211992047681625303416177177,8065.2,1.53259211992047681625303416177177
143,8180.73400785769734718127453178035117,8179.2,1.53400785769734718127453178035117
144,8295.53541377273137168247597111098123,8294.0,1.53541377273137168247597111098123
145,8411.13681000219584663415027205446031,8409.6,1.53681000219584663415027205446031
146,8527.53819668045937886815435048201940,8526.0,1.53819668045937886815435048201940
147,8644.73957393916342549317907152588464,8643.2,1.53957393916342549317907152588464
148,8762.74094190729723514857673802452051,8761.2,1.54094190729723514857673802452051
149,8881.54230071127029327760914190552767,8880.0,1.54230071127029327760914190552767
150,9001.14365047498237582132393876858404,8999.6,1.54365047498237582132393876858404
151,9121.54499131989130804622205113149014,9120.0,1.54499131989130804622205113149014
152,9242.74632336507851964449544638656943,9241.2,1.54632336507851964449544638656943
153,9364.74764672731248593931082925375902,9363.2,1.54764672731248593931082925375902
154,9487.54896152111014002271941094130601,9486.0,1.54896152111014002271941094130601
155,9611.15026785879633503891239795481072,9609.6,1.55026785879633503891239795481072
156,9735.55156585056143550702490609478808,9734.0,1.55156585056143550702490609478808
157,9860.75285560451710981213664553932440,9859.2,1.55285560451710981213664553932440
158,9986.75413722675039682214427999994905,9985.2,1.55413722675039682214427999994905
159,10113.5554108213761115037449828781204,10112.0,1.5554108213761115037449828781204
160,10241.1566764905876571402075162702097,10239.6,1.5566764905876571402075162702097
161,10369.5579343347063039807074755427334,10368.0,1.5579343347063039807074755427334
162,10498.7591844522289951888479283396100,10497.2,1.5591844522289951888479283396100
163,10628.7604269398747364274920997823332,10627.2,1.5604269398747364274920997823332
164,10759.5616618926296252825403769553493,10758.0,1.5616618926296252825403769553493
165,10891.1628894037905707792449941156942,10889.6,1.5628894037905707792449941156942
166,11023.5641095650077552529096223313279,11022.0,1.5641095650077552529096223313279
167,11156.7653224663258876514161777133334,11155.2,1.5653224663258876514161777133334
168,11290.7665281962242929087887103673196,11289.2,1.5665281962242929087887103673196
169,11425.5677268416558845142073080102473,11424.0,1.5677268416558845142073080102473
170,11561.1689184880850622012680390049985,11559.6,1.5689184880850622012680390049985
171,11697.5701032195245772608089296446437,11696.0,1.5701032195245772608089296446437
172,11834.7712811185714057884769194411958,11833.2,1.5712811185714057884769194411958
173,11972.7724522664416678585903341006390,11971.2,1.5724522664416678585903341006390
174,12111.5736167430046312115098272960226,12110.0,1.5736167430046312115098272960226
175,12251.1747746268158363480868856688115,12249.6,1.5747746268158363480868856688115
176,12391.5759259951493758224343859416103,12390.0,1.5759259951493758224343859416103
177,12532.7770709240293642668481506048201,12531.2,1.5770709240293642668481506048201
178,12674.7782094882606317780914951701230,12673.2,1.5782094882606317780914951701230
179,12817.5793417614586708004045726657478,12816.0,1.5793417614586708004045726657478
180,12961.1804678160788713729698311958228,12959.6,1.5804678160788713729698311958228
181,13105.5815877234450715590558712592555,13104.0,1.5815877234450715590558712592555
182,13250.7827015537774551859599500814593,13249.2,1.5827015537774551859599500814593
183,13396.7838093762198246630685427122069,13395.2,1.5838093762198246630685427122069
184,13543.5849112588662781427261440288237,13542.0,1.5849112588662781427261440288237
185,13691.1860072687873181826671223621111,13689.6,1.5860072687873181826671223621111
186,13839.5870974720554185812496003633202,13838.0,1.5870974720554185812496003633202
187,13988.7881819337700792668407035739070,13987.2,1.5881819337700792668407035739070
188,14138.7892607180823911653842882846060,14137.2,1.5892607180823911653842882846060
189,14289.5903338882191417029414706673330,14288.0,1.5903338882191417029414706673330
190,14441.1914015065064839914917349317298,14439.6,1.5914015065064839914917349317298
191,14593.5924636343931968261106911647230,14592.0,1.5924636343931968261106911647230
192,14746.7935203324735603292463928848360,14745.2,1.5935203324735603292463928848360
193,14900.7945716605098745909355905209128,14899.2,1.5945716605098745909355905209128
194,15055.5956176774546443292532568261855,15054.0,1.5956176774546443292532568261855
195,15211.1966584414724578769101265424191,15209.6,1.5966584414724578769101265424191
196,15367.5976940099615853055763403297170,15366.0,1.5976940099615853055763403297170
197,15524.7987244395753219902119216220862,15523.2,1.5987244395753219902119216220862
198,15682.7997497862431045766352506708193,15681.2,1.5997497862431045766352506708193
199,15841.6007701051914259347734863710096,15840.0,1.6007701051914259347734863710096
200,16001.2017854509645778137647348225578,15999.6,1.6017854509645778137647348225578
201,16161.6027958774452480663689895559926,16160.0,1.6027958774452480663689895559926
202,16322.8038014378750029209700938043365,16321.2,1.6038014378750029209700938043365
203,16484.8048021848746833745328074433987,16483.2,1.6048021848746833745328074433987
204,16647.6057981704647471723097746079484,16646.0,1.6057981704647471723097746079484
205,16811.2067894460855877500038774702075,16809.6,1.6067894460855877500038774702075
206,16975.6077760626178662668984339148931,16974.0,1.6077760626178662668984339148931
207,17140.8087580704028875638825603359174,17139.2,1.6087580704028875638825603359174
208,17306.8097355192630612545200217576687,17305.2,1.6097355192630612545200217576687
209,17473.6107084585224828895228900768375,17472.0,1.6107084585224828895228900768375
210,17641.2116769370276783056143073300412,17639.6,1.6116769370276783056143073300412
211,17809.6126410031685527798856425097004,17808.0,1.6126410031685527798856425097004
212,17978.8136007048995923789432558256840,17977.2,1.6136007048995923789432558256840
213,18148.8145560897613622237768601237883,18147.2,1.6145560897613622237768601237883
214,18319.6155072049023604811734686551426,18318.0,1.6155072049023604811734686551426
215,18491.2164540971012749610131054234224,18489.6,1.6164540971012749610131054234224
216,18663.6173968127897081694512531590990,18662.0,1.6173968127897081694512531590990
217,18836.8183353980754313229170923154166,18835.2,1.6183353980754313229170923154166
218,19010.8192698987662379684959632648345,19009.2,1.6192698987662379684959632648345
219,19185.6202003603944678162880495596054,19184.0,1.6202003603944678162880495596054
220,19361.2211268282422868785112155998890,19359.6,1.6211268282422868785112155998890
221,19537.6220493473678023235780887524683,19536.0,1.6220493473678023235780887524683
222,19714.8229679626321174127808488762804,19713.2,1.6229679626321174127808488762804
223,19892.8238827187274167510370836936800,19891.2,1.6238827187274167510370836936800
224,20071.6247936602062030206855124140118,20070.0,1.6247936602062030206855124140118
225,20251.2257008315118043601504632419262,20249.6,1.6257008315118043601504632419262
226,20431.6266042770102842159551098843384,20430.0,1.6266042770102842159551098843384
227,20612.8275040410239036293441010730267,20611.2,1.6275040410239036293441010730267
228,20794.8284001678662936312340476927697,20793.2,1.6284001678662936312340476927697
229,20977.6292927018795170230683343254999,20976.0,1.6292927018795170230683343254999
230,21161.2301816874732145638873266996732,21159.6,1.6301816874732145638873266996732
231,21345.6310671691660481057040168579305,21344.0,1.6310671691660481057040168579305
232,21530.8319491916296847722447547520076,21529.2,1.6319491916296847722447547520076
233,21716.8328277997355766503462780941901,21715.2,1.6328277997355766503462780941901
234,21903.6337030386048406927800908781259,21902.0,1.6337030386048406927800908781259
235,22091.2345749536615533648126437064114,22089.6,1.6345749536615533648126437064114
236,22279.6354435906898281896106787423672,22278.0,1.6354435906898281896106787423672
237,22468.8363089958950802846124956800700,22467.2,1.6363089958950802846124956800700
238,22658.8371712159699277693681487959940,22657.2,1.6371712159699277693681487959940
