Eigenstate,Energy,Kinetic Energy,Potential Energy
1,0.500000000023576558631833270738207359,0.0,0.500000000023576558631833270738207359
2,1.84623093780501002974868182673991035,1.2,0.64623093780501002974868182673991035
3,3.93633761015703046954041210626784683,3.2,0.73633761015703046954041210626784683
4,6.79966527875581608621702764562785219,6.0,0.79966527875581608621702764562785219
5,10.4480465769166875246295232150289563,9.6,0.8480465769166875246295232150289563
6,14.8870659993940818842541739639738921,14.0,0.8870659993940818842541739639738921
7,20.1197208276260618919021493440719224,19.2,0.9197208276260618919021493440719224
8,26.1477838479895205121045269715679791,25.2,0.9477838479895205121045269715679791
9,32.9723835594907095518442925712183919,32.0,0.9723835594907095518442925712183919
10,40.5942802162781857010030569368565120,39.6,0.9942802162781857010030569368565120
11,49.0140093884929788162909320173681968,48.0,1.0140093884929788162909320173681968
12,58.2319621714397129375626864200891624,57.2,1.0319621714397129375626864200891624
13,68.2484326951841923070768784522213318,67.2,1.0484326951841923070768784522213318
14,79.0636476574095595716790635855898825,78.0,1.0636476574095595716790635855898825
15,90.6777854392304786607787269523983325,89.6,1.0777854392304786607787269523983325
16,103.090988910063578657688554574815497,102.0,1.090988910063578657688554574815497
17,116.303374261088957457731854057308625,115.2,1.103374261088957457731854057308625
18,130.315037256256380864322573195660898,129.2,1.115037256256380864322573195660898
19,145.126057755389260021190069718312148,144.0,1.126057755389260021190069718312148
20,160.736503051818587769587977575678961,159.6,1.136503051818587769587977575678961
21,177.146430378464635794393912004269439,176.0,1.146430378464635794393912004269439
22,194.355888818995694752541428331749709,193.2,1.155888818995694752541428331749709
23,212.364920785764598937132496277590412,211.2,1.164920785764598937132496277590412
24,231.173563177209148451951076533188869,230.0,1.173563177209148451951076533188869
25,250.781848294648035621128778489985373,249.6,1.181848294648035621128778489985373
26,271.189804576088432758564395206119425,270.0,1.189804576088432758564395206119425
27,292.397457189188568021959901352900754,291.2,1.197457189188568021959901352900754
28,314.404828514616765268175890542110774,313.2,1.204828514616765268175890542110774
29,337.211938543253396005758497142984984,336.0,1.211938543253396005758497142984984
30,360.818805205032703971643592402074290,359.6,1.218805205032703971643592402074290
31,385.225444643075524359283790285709428,384.0,1.225444643075524359283790285709428
32,410.431871443686020140950398437582977,409.2,1.231871443686020140950398437582977
33,436.438098830475910123007885614423318,435.2,1.238098830475910123007885614423318
34,463.244138829129117106941884493148782,462.0,1.244138829129117106941884493148782
35,490.850002407980569463338391012784937,489.6,1.250002407980569463338391012784937
36,519.255699598549410547561418322592106,518.0,1.255699598549410547561418322592106
37,548.461239599362785837444126013580857,547.2,1.261239599362785837444126013580857
38,578.466630865775958930238275619022758,577.2,1.266630865775958930238275619022758
39,609.271881187996658886607909952522426,608.0,1.271881187996658886607909952522426
40,640.876997759125740625956749460304915,639.6,1.276997759125740625956749460304915
41,673.281987234709489803698167870660134,672.0,1.281987234709489803698167870660134
42,706.486855785043910999604699609014305,705.2,1.286855785043910999604699609014305
43,740.491609141264851701485634078609246,739.2,1.291609141264851701485634078609246
44,775.296252636089720552960578110902909,774.0,1.296252636089720552960578110902909
45,810.900791239938988765119689546072917,809.6,1.300791239938988765119689546072917
46,847.305229593052527309284658146292751,846.0,1.305229593052527309284658146292751
47,884.509572034122355895767371226440296,883.2,1.309572034122355895767371226440296
48,922.513822625885793379287269734037075,921.2,1.313822625885793379287269734037075
49,961.317985178058336687822217089596201,960.0,1.317985178058336687822217089596201
50,1000.92206326793147265802319150766955,999.6,1.32206326793147265802319150766955
51,1041.32606025891516019785801338934122,1040.0,1.32606025891516019785801338934122
52,1082.52997931726637498285615918406492,1081.2,1.32997931726637498285615918406492
53,1124.53382342721265877378598682441151,1123.2,1.33382342721265877378598682441151
54,1167.33759540465205431214405865106798,1166.0,1.33759540465205431214405865106798
55,1210.94129790958733125732819975174717,1209.6,1.34129790958733125732819975174717
56,1255.34493345743233405924404015980410,1254.0,1.34493345743233405924404015980410
57,1300.54850442931108369497854133848411,1299.2,1.34850442931108369497854133848411
58,1346.55201308145546801188549442494213,1345.2,1.35201308145546801188549442494213
59,1393.35546155379460147215483320213486,1392.0,1.35546155379460147215483320213486
60,1440.95885187781791058623716419680694,1439.6,1.35885187781791058623716419680694
61,1489.36218598378443709499182850352818,1488.0,1.36218598378443709499182850352818
62,1538.56546570734254995531469949988285,1537.2,1.36546570734254995531469949988285
63,1588.56869279561701529498246227596556,1587.2,1.36869279561701529498246227596556
64,1639.37186891281406102252905147738230,1638.0,1.37186891281406102252905147738230
65,1690.97499564538953793799795059999011,1689.6,1.37499564538953793799795059999011
66,1743.37807450682043185136069993631287,1742.0,1.37807450682043185136069993631287
67,1796.58110694201571892406680504520955,1795.2,1.38110694201571892406680504520955
68,1850.58409433139880028838222982859268,1849.2,1.38409433139880028838222982859268
69,1905.38703799469043932844735221371751,1904.0,1.38703799469043932844735221371751
70,1960.98993919441819673872163895457633,1959.6,1.38993919441819673872163895457633
71,2017.39279913917575977175154493753067,2016.0,1.39279913917575977175154493753067
72,2074.59561898665326384481856889507773,2073.2,1.39561898665326384481856889507773
73,2132.59839984645765166862121777498343,2131.2,1.39839984645765166862121777498343
74,2191.40114278274029621259206089919927,2190.0,1.40114278274029621259206089919927
75,2251.00384881664748272034822425795986,2249.6,1.40384881664748272034822425795986
76,2311.40651892860789543201859613817735,2310.0,1.40651892860789543201859613817735
77,2372.60915406046995227177303978092261,2371.2,1.40915406046995227177303978092261
78,2434.61175511750066496069881558145539,2433.2,1.41175511750066496069881558145539
79,2497.41432297025665519517727263955838,2496.0,1.41432297025665519517727263955838
80,2561.01685845633701940526949069286141,2559.6,1.41685845633701940526949069286141
81,2625.41936238202688526614300999714400,2624.0,1.41936238202688526614300999714400
82,2690.62183552383974168501831920340603,2689.2,1.42183552383974168501831920340603
83,2756.62427862996593525232415222349396,2755.2,1.42427862996593525232415222349396
84,2823.42669242163410185403454043094675,2822.0,1.42669242163410185403454043094675
85,2891.02907759439174286598691829519331,2889.6,1.42907759439174286598691829519331
86,2959.43143481931063948559126277267304,2958.0,1.43143481931063948559126277267304
87,3028.63376474412234128554042008654843,3027.2,1.43376474412234128554042008654843
88,3098.63606799428854169639605337153850,3097.2,1.43606799428854169639605337153850
89,3169.43834517401076962276318375727666,3168.0,1.43834517401076962276318375727666
90,3241.04059686718348318103700179342761,3239.6,1.44059686718348318103700179342761
91,3313.44282363829433009465496858934084,3312.0,1.44282363829433009465496858934084
92,3386.64502603327505098524806205994553,3385.2,1.44502603327505098524806205994553
93,3460.64720458030623954302943714564111,3459.2,1.44720458030623954302943714564111
94,3535.44935979057893063102062980396054,3534.0,1.44935979057893063102062980396054
95,3611.05149215901576622368645111817061,3609.6,1.45149215901576622368645111817061
96,3687.45360216495428725843326904152418,3686.0,1.45360216495428725843326904152418
97,3764.65569027279471513631579886588506,3763.2,1.45569027279471513631579886588506
98,3842.65775693261441373400277568857579,3841.2,1.45775693261441373400277568857579
99,3921.45980258075106931686279538345401,3920.0,1.45980258075106931686279538345401
100,4001.06182764035647940261551289087847,3999.6,1.46182764035647940261551289087847
101,4081.46383252192271232083892106192784,4080.0,1.46383252192271232083892106192784
102,4162.66581762378227363890234404320066,4161.2,1.46581762378227363890234404320066
103,4244.66778333258380771128189024115471,4243.2,1.46778333258380771128189024115471
104,4327.46973002374475534450474696305020,4326.0,1.46973002374475534450474696305020
105,4411.07165806188229549621171516514932,4409.6,1.47165806188229549621171516514932
106,4495.47356780122380816258373956601517,4494.0,1.47356780122380816258373956601517
107,4580.67545958599801752642275099012999,4579.2,1.47545958599801752642275099012999
108,4666.67733375080789519862273657875122,4665.2,1.47733375080789519862273657875122
109,4753.47919062098633479223282398301568,4752.0,1.47919062098633479223282398301568
110,4841.08103051293554664818907304530042,4839.6,1.48103051293554664818907304530042
111,4929.48285373445105567059316492153852,4928.0,1.48285373445105567059316492153852
112,5018.68466058503113579578270194645929,5017.2,1.48466058503113579578270194645929
113,5108.68645135617245908364374423861072,5107.2,1.48645135617245908364374423861072
114,5199.48822633165268866185989399106928,5198.0,1.48822633165268866185989399106928
115,5291.08998578780070430528963939300997,5289.6,1.48998578780070430528963939300997
116,5383.49172999375510110101546099905851,5382.0,1.49172999375510110101546099905851
117,5476.69345921171156993660144408695203,5475.2,1.49345921171156993660144408695203
118,5570.69517369715972751799057305934180,5569.2,1.49517369715972751799057305934180
119,5665.49687369910992990975656123196198,5664.0,1.49687369910992990975656123196198
120,5761.09855946031057774819012462319763,5759.6,1.49855946031057774819012462319763
121,5857.50023121745638301045536271066370,5856.0,1.50023121745638301045536271066370
122,5954.70188920138804830991911987148576,5953.2,1.50188920138804830991911987148576
123,6052.70353363728377749482421250305983,6051.2,1.50353363728377749482421250305983
124,6151.50516474484301864766873484017304,6150.0,1.50516474484301864766873484017304
125,6251.10678273846281101639058063372247,6249.6,1.50678273846281101639058063372247
126,6351.50838782740709221115871920026799,6350.0,1.50838782740709221115871920026799
127,6452.70998021596930142268638968991325,6451.2,1.50998021596930142268638968991325
128,6554.71156010362859183079150448874553,6553.2,1.51156010362859183079150448874553
129,6657.51312768519995329869141261563297,6656.0,1.51312768519995329869141261563297
130,6761.11468315097852806665191867733640,6759.6,1.51468315097852806665191867733640
131,6865.51622668687838675449242076959829,6864.0,1.51622668687838675449242076959829
132,6970.71775847456601700524817440463142,6969.2,1.51775847456601700524817440463142
133,7076.71927869158876532070675150728657,7075.2,1.51927869158876532070675150728657
134,7183.52078751149846136357694822983487,7182.0,1.52078751149846136357694822983487
135,7291.12228510397043589270585946936324,7289.6,1.52228510397043589270585946936324
136,7399.52377163491813981022947926792856,7398.0,1.52377163491813981022947926792856
137,7508.72524726660355849159865656035567,7507.2,1.52524726660355849159865656035567
138,7618.72671215774360195743156139210443,7617.2,1.52671215774360195743156139210443
139,7729.52816646361264934023827514428650,7728.0,1.52816646361264934023827514428650
140,7841.12961033614141065309476488722197,7839.6,1.52961033614141065309476488722197
141,7953.53104392401226430985363469860235,7952.0,1.53104392401226430985363469860235
142,8066.73246737275122077321195257444063,8065.2,1.53246737275122077321195257444063
143,8180.73388082481665405678706803291369,8179.2,1.53388082481665405678706803291369
144,8295.53528441968493562771452100453533,8294.0,1.53528441968493562771452100453533
145,8411.13667829393310106852288529026584,8409.6,1.53667829393310106852288529026584
146,8527.53806258131867198828954543899504,8526.0,1.53806258131867198828954543899504
147,8644.73943741285674747011545608981087,8643.2,1.53943741285674747011545608981087
148,8762.74080291689448038392343253120341,8761.2,1.54080291689448038392343253120341
149,8881.54215921918304036551042705463664,8880.0,1.54215921918304036551042705463664
150,9001.14350644294716710270697471717074,8999.6,1.54350644294716710270697471717074
151,9121.54484470895240984287312380887426,9120.0,1.54484470895240984287312380887426
152,9242.74617413557014342087572271994435,9241.2,1.54617413557014342087572271994435
153,9364.74749483884044975721512603040785,9363.2,1.54749483884044975721512603040785
154,9487.54880693253294872551735697968807,9486.0,1.54880693253294872551735697968807
155,9611.15011052820565662535813494224702,9609.6,1.55011052820565662535813494224702
156,9735.55140573526195012675501636344392,9734.0,1.55140573526195012675501636344392
157,9860.75269266100570673290382348376530,9859.2,1.55269266100570673290382348376530
158,9986.75397141069469357923317799594553,9985.2,1.55397141069469357923317799594553
159,10113.5552420875922682415828594001860,10112.0,1.5552420875922682415828594001860
160,10241.1565047930174578910160595783177,10239.6,1.5565047930174578910160595783177
161,10369.5577596263934752913567773362773,10368.0,1.5577596263934752913567773362773
162,10498.7590066852947311005241397705721,10497.2,1.5590066852947311005241397705721
163,10628.7602460654923973289331910838342,10627.2,1.5602460654923973289331910838342
164,10759.5614778609985765915275308846013,10758.0,1.5614778609985765915275308846013
165,10891.1627021641091257536317415501435,10889.6,1.5627021641091257536317415501435
166,11023.5639190654451844861826263356833,11022.0,1.5639190654451844861826263356833
167,11156.7651286539934559626290134016011,11155.2,1.5651286539934559626290134016011
168,11290.7663310171452823863840077494971,11289.2,1.5663310171452823863840077494971
169,11425.5675262407345604108904614441726,11424.0,1.5675262407345604108904614441726
170,11561.1687144090745361953857811029631,11559.6,1.5687144090745361953857811029631
171,11697.5698956049935202907970149997263,11696.0,1.5698956049935202907970149997263
172,11834.7710699098695602223945213674354,11833.2,1.5710699098695602223945213674354
173,11972.7722374036641061715051201322445,11971.2,1.5722374036641061715051201322445
174,12111.5733981649547055997690278558537,12110.0,1.5733981649547055997690278558537
175,12251.1745522709667608008438223251551,12249.6,1.5745522709667608008438223251551
176,12391.5756997976043790858783964657396,12390.0,1.5756997976043790858783964657396
177,12532.7768408194803488632646035684433,12531.2,1.5768408194803488632646035684433
178,12674.7779754099452707670329511178914,12673.2,1.5779754099452707670329511178914
179,12817.5791036411158702788083034427047,12816.0,1.5791036411158702788083034427047
180,12961.1802255839025227896946451725231,12959.6,1.5802255839025227896946451725231
181,13105.5813413080360137506450697884666,13104.0,1.5813413080360137506450697884666
182,13250.7824508820935616066725585256248,13249.2,1.5824508820935616066725585256248
183,13396.7835543735241265641453810558770,13395.2,1.5835543735241265641453810558770
184,13543.5846518486730294326731910408505,13542.0,1.5846518486730294326731910408505
185,13691.1857433728059023496770089689578,13689.6,1.5857433728059023496770089689578
186,13839.5868290101319923562322243437871,13838.0,1.5868290101319923562322243437871
187,13988.7879088238268416246517117005814,13987.2,1.5879088238268416246517117005814
188,14138.7889828760543597740931399965442,14137.2,1.5889828760543597740931399965442
189,14289.5900512279883120052474956152077,14288.0,1.5900512279883120052474956152077
190,14441.1911139398332387051529549062350,14439.6,1.5911139398332387051529549062350
191,14593.5921710708448257446518151625386,14592.0,1.5921710708448257446518151625386
192,14746.7932226793497418506588020966294,14745.2,1.5932226793497418506588020966294
193,14900.7942688227649613570533375172086,14899.2,1.5942688227649613570533375172086
194,15055.5953095576165856749424910352897,15054.0,1.5953095576165856749424910352897
195,15211.1963449395581814146168120978815,15209.6,1.5963449395581814146168120978815
196,15367.5973750233886488510619006402254,15366.0,1.5973750233886488510619006402254
197,15524.7983998630696351083091604232062,15523.2,1.5983998630696351083091604232062
198,15682.7994195117425062245670156416348,15681.2,1.5994195117425062245670156416348
199,15841.6004340217448909319482728347161,15840.0,1.6004340217448909319482728347161
200,16001.2014434446268100909547744734476,15999.6,1.6014434446268100909547744734476
201,16161.6024478311664027560982484289683,16160.0,1.6024478311664027560982484289683
202,16322.8034472313852622487689972451400,16321.2,1.6034472313852622487689972451400
203,16484.8044416945633928920344478579441,16483.2,1.6044416945633928920344478579441
204,16647.6054312692537990222293406804943,16646.0,1.6054312692537990222293406804943
205,16811.2064160032967162426497211268300,16809.6,1.6064160032967162426497211268300
206,16975.6073959438334979380478489533931,16974.0,1.6073959438334979380478489533931
207,17140.8083711373201629205536160720369,17139.2,1.6083711373201629205536160720369
208,17306.8093416295406184284273623816511,17305.2,1.6093416295406184284273623816511
209,17473.6103074656195642204717951459137,17472.0,1.6103074656195642204717951459137
210,17641.2112686900350892617022109038880,17639.6,1.6112686900350892617022109038880
211,17809.6122253466309683592316457428936,17808.0,1.6122253466309683592316457428936
212,17978.8131774786286689754931967734086,17977.2,1.6131774786286689754931967734086
213,18148.8141251286390725966876074487168,18147.2,1.6141251286390725966876074487168
214,18319.6150683386739256321398626013773,18318.0,1.6150683386739256321398626013773
215,18491.2160071501570190507896542498553,18489.6,1.6160071501570190507896542498553
216,18663.6169416039351107092663600492684,18662.0,1.6169416039351107092663600492684
217,18836.8178717402885943305841274123161,18835.2,1.6178717402885943305841274123161
218,19010.8187975989419241059001612280279,19009.2,1.6187975989419241059001612280279
219,19185.6197192190737981922652813055343,19184.0,1.6197192190737981922652813055343
220,19361.2206366393271136144874451767083,19359.6,1.6206366393271136144874451767083
221,19537.6215498978186904733909841725614,19536.0,1.6215498978186904733909841725614
222,19714.8224590321487826578298709492738,19713.2,1.6224590321487826578298709492738
223,19892.8233640794103686212787704712306,19891.2,1.6233640794103686212787704712306
224,20071.6242650761982372822927168597802,20070.0,1.6242650761982372822927168597802
225,20251.2251620586178716053704099792662,20249.6,1.6251620586178716053704099792662
226,20431.6260550622941334001543081990837,20430.0,1.6260550622941334001543081990837
227,20612.8269441223797579818063406661003,20611.2,1.6269441223797579818063406661003
228,20794.8278292735636605027508156945634,20793.2,1.6278292735636605027508156945634
229,20977.6287105500790611079199951320238,20976.0,1.6287105500790611079199951320238
230,21161.2295879857114335997309566565388,21159.6,1.6295879857114335997309566565388
231,21345.6304616138062794020483650298274,21344.0,1.6304616138062794020483650298274
232,21530.8313314672767372320379060108324,21529.2,1.6313314672767372320379060108324
233,21716.8321975786110234653987418523155,21715.2,1.6321975786110234653987418523155
234,21903.6330599798797193410247163377892,21902.0,1.6330599798797193410247163377892
235,22091.2339187027428981761778318704611,22089.6,1.6339187027428981761778318704611
236,22279.6347737784571022909257206362148,22278.0,1.6347737784571022909257206362148
237,22468.8356252378821732619533857162857,22467.2,1.6356252378821732619533857162857
238,22658.8364731114879372367429166923075,22657.2,1.6364731114879372367429166923075
