Eigenstate,Energy,Kinetic Energy,Potential Energy
1,0.500000000117057673860315056810498031,0.0,0.500000000117057673860315056810498031
2,1.84623093841520879440632489059382883,1.2,0.64623093841520879440632489059382883
3,3.93633761194945269605579265365650442,3.2,0.73633761194945269605579265365650442
4,6.79966528248926285186678970993528283,6.0,0.79966528248926285186678970993528283
5,10.4480465833838606388251584118631855,9.6,0.8480465833838606388251584118631855
6,14.8870660094016066629966471424133532,14.0,0.8870660094016066629966471424133532
7,20.1197208419871335187869203032347317,19.2,0.9197208419871335187869203032347317
8,26.1477838675208437695102953400440560,25.2,0.9477838675208437695102953400440560
9,32.9723835850110817685630047762155241,32.0,0.9723835850110817685630047762155241
10,40.5942802486077830433283840431596109,39.6,0.9942802486077830433283840431596109
11,49.0140094284529736887428764248862473,48.0,1.0140094284529736887428764248862473
12,58.2319622198520601196774268525340542,57.2,1.0319622198520601196774268525340542
13,68.2484327528715069584103047384720930,67.2,1.0484327528715069584103047384720930
14,79.0636477251950481148674255740983045,78.0,1.0636477251950481148674255740983045
15,90.6777855179379015727960642267815769,89.6,1.0777855179379015727960642267815769
16,103.090989000517233312250127921960990,102.0,1.090989000517233312250127921960990
17,116.303374364113674018824375623123202,115.2,1.103374364113674018824375623123202
18,130.315037372677526940372578279019317,129.2,1.115037372677526940372578279019317
19,145.126057886032751362379025796969241,144.0,1.126057886032751362379025796969241
20,160.736503197510903236626907054188791,159.6,1.136503197510903236626907054188791
21,177.146430540032835413720406126144701,176.0,1.146430540032835413720406126144701
22,194.355888997267440047010304593362601,193.2,1.155888997267440047010304593362601
23,212.364920981568174965845542768109324,211.2,1.164920981568174965845542768109324
24,231.173563391373487156383746754230487,230.0,1.173563391373487156383746754230487
25,250.781848528002740186269099525473803,249.6,1.181848528002740186269099525473803
26,271.189804829463802775306214975940745,270.0,1.189804829463802775306214975940745
27,292.397457463415625291784608434509640,291.2,1.197457463415625291784608434509640
28,314.404828810527280130482701618538679,313.2,1.204828810527280130482701618538679
29,337.211938861679914096832032445951966,336.0,1.211938861679914096832032445951966
30,360.818805546808573345362908421320840,359.6,1.218805546808573345362908421320840
31,385.225445009034922915440865171086055,384.0,1.225445009034922915440865171086055
32,410.431871834663983318947356748473417,409.2,1.231871834663983318947356748473417
33,436.438099247308358827782018784016617,435.2,1.238099247308358827782018784016617
34,463.244139272652885840962509997360484,462.0,1.244139272652885840962509997360484
35,490.850002879033434643957989116027533,489.6,1.250002879033434643957989116027533
36,519.255700097970118993267935689582875,518.0,1.255700097970118993267935689582875
37,548.461240127991083409932598863555906,547.2,1.261240127991083409932598863555906
38,578.466631424452619321905130223889991,577.2,1.266631424452619321905130223889991
39,609.271881777563512545225745551955836,608.0,1.271881777563512545225745551955836
40,640.876998380425703810027886004583428,639.6,1.276998380425703810027886004583428
41,673.281987888586593763400261375712599,672.0,1.281987888586593763400261375712599
42,706.486856472343331279399687984134833,705.2,1.286856472343331279399687984134833
43,740.491609862832937561416355778678461,739.2,1.291609862832937561416355778678461
44,775.296253392774024506448268176359868,774.0,1.296253392774024506448268176359868
45,810.900792032588296231732564532635196,809.6,1.300792032588296231732564532635196
46,847.305230422516886381497636053255687,846.0,1.305230422516886381497636053255687
47,884.509572901253107219195508650513649,883.2,1.309572901253107219195508650513649
48,922.513823531535600146267071302738097,921.2,1.313823531535600146267071302738097
49,961.317986123081214744547686355445055,960.0,1.317986123081214744547686355445055
50,1000.92206425318282072572779982418468,999.6,1.32206425318282072572779982418468
51,1041.32606128525179020877827273654194,1040.0,1.32606128525179020877827273654194
52,1082.52998038554654253192328782962592,1081.2,1.32998038554654253192328782962592
53,1124.53382453829609368717518113609369,1123.2,1.33382453829609368717518113609369
54,1167.33759655939999133397067842460596,1166.0,1.33759655939999133397067842460596
55,1210.94129910886254085592014331993510,1209.6,1.34129910886254085592014331993510
56,1255.34493470209915335454307355939951,1254.0,1.34493470209915335454307355939951
57,1300.54850572023544750873263537572300,1299.2,1.34850572023544750873263537572300
58,1346.55201441950494004239215490497090,1345.2,1.35201441950494004239215490497090
59,1393.35546293983840559540239238409397,1392.0,1.35546293983840559540239238409397
60,1440.95885331272696228537011153741813,1439.6,1.35885331272696228537011153741813
61,1489.36218746843137502009763901294696,1488.0,1.36218746843137502009763901294696
62,1538.56546724260176761559492595898952,1537.2,1.36546724260176761559492595898952
63,1588.56869438236469288543057182657950,1587.2,1.36869438236469288543057182657950
64,1639.37187055192819738729260686330328,1638.0,1.37187055192819738729260686330328
65,1690.97499733774998267265428111649121,1689.6,1.37499733774998267265428111649121
66,1743.37807625330891754638281966425178,1742.0,1.37807625330891754638281966425178
67,1796.58110874351589355180133446685329,1795.2,1.38110874351589355180133446685329
68,1850.58409618879625973590355412141193,1849.2,1.38409618879625973590355412141193
69,1905.38703990887276007869280912505243,1904.0,1.38703990887276007869280912505243
70,1960.98994116627496870235043471717079,1959.6,1.38994116627496870235043471717079
71,2017.39280116959861927220778144673196,2016.0,1.39280116959861927220778144673196
72,2074.59562107653592675911367931945263,2073.2,1.39562107653592675911367931945263
73,2132.59840199669594672638617430761260,2131.2,1.39840199669594672638617430761260
74,2191.40114499423219845598285080560309,2190.0,1.40114499423219845598285080560309
75,2251.00385109029314712742121920675933,2249.6,1.40385109029314712742121920675933
76,2311.40652126530969070622417165269307,2310.0,1.40652126530969070622417165269307
77,2372.60915646113249480024768022630475,2371.2,1.40915646113249480024768022630475
78,2434.61175758303085294406707127111760,2433.2,1.41175758303085294406707127111760
79,2497.41432550156370295160580030885353,2496.0,1.41432550156370295160580030885353
80,2561.01686105433249185154579507888716,2559.6,1.41686105433249185154579507888716
81,2625.41936504762473257858231941632230,2624.0,1.41936504762473257858231941632230
82,2690.62183825795633414303213420141685,2689.2,1.42183825795633414303213420141685
83,2756.62428143352009826751440791000209,2755.2,1.42428143352009826751440791000209
84,2823.42669529554715118770766258489399,2822.0,1.42669529554715118770766258489399
85,2891.02908053958752003801245873934800,2889.6,1.42908053958752003801245873934800
86,2959.43143783671554737756019696689310,2958.0,1.43143783671554737756019696689310
87,3028.63376783466537994120921515120721,3027.2,1.43376783466537994120921515120721
88,3098.63607115890134432243308740210340,3097.2,1.43607115890134432243308740210340
89,3169.43834841362763879284539202307063,3168.0,1.43834841362763879284539202307063
90,3241.04060018274142724637578655811708,3239.6,1.44060018274142724637578655811708
91,3313.44282703073309980406246677158701,3312.0,1.44282703073309980406246677158701
92,3386.64502950353717631788616945560784,3385.2,1.44502950353717631788616945560784
93,3460.64720812933706675701683681901891,3459.2,1.44720812933706675701683681901891
94,3535.44936341932665953110533448518276,3534.0,1.44936341932665953110533448518276
95,3611.05149586843148765122455959795710,3609.6,1.45149586843148765122455959795710
96,3687.45360595599202080694782411173267,3686.0,1.45360595599202080694782411173267
97,3764.65569414641144709594395131186202,3763.2,1.45569414641144709594395131186202
98,3842.65776088977013526817290500308179,3841.2,1.45776088977013526817290500308179
99,3921.45980662240881487457889939429161,3920.0,1.45980662240881487457889939429161
100,4001.06183176748236536976053346847693,3999.6,1.46183176748236536976053346847693
101,4081.46383673548597591394496635983242,4080.0,1.46383673548597591394496635983242
102,4162.66582192475531204487151986248206,4161.2,1.46582192475531204487151986248206
103,4244.66778772194221747657815301119993,4243.2,1.46778772194221747657815301119993
104,4327.46973450246737201737495849190708,4326.0,1.46973450246737201737495849190708
105,4411.07166263095123352553111272839043,4409.6,1.47166263095123352553111272839043
106,4495.47357246162450105695978182098009,4494.0,1.47357246162450105695978182098009
107,4580.67546433871925827723011363731571,4579.2,1.47546433871925827723011363731571
108,4666.67733859684187697068158807595674,4665.2,1.47733859684187697068158807595674
109,4753.47919556132869188588290954331538,4752.0,1.47919556132869188588290954331538
110,4841.08103554858539573655241141232602,4839.6,1.48103554858539573655241141232602
111,4929.48285886641103731585971591090408,4928.0,1.48285886641103731585971591090408
112,5018.68466581430745624839541509651486,5017.2,1.48466581430745624839541509651486
113,5108.68645668377493236830169441455414,5107.2,1.48645668377493236830169441455414
114,5199.48823175859477895430172838143091,5198.0,1.48823175859477895430172838143091
115,5291.08999131509956860386336230524555,5289.6,1.48999131509956860386336230524555
116,5383.49173562243163219708539148638555,5382.0,1.49173562243163219708539148638555
117,5476.69346494279043968788824121717904,5475.2,1.49346494279043968788824121717904
118,5570.69517953166943042898646678137671,5569.2,1.49517953166943042898646678137671
119,5665.49687963808282702340455167131224,5664.0,1.49687963808282702340455167131224
120,5761.09856550478294085306372838413412,5759.6,1.49856550478294085306372838413412
121,5857.50023736846843916772331214616192,5856.0,1.50023736846843916772331214616192
122,5954.70189545998402470442877755592676,5953.2,1.50189545998402470442877755592676
123,6052.70354000451194661468717908204251,6051.2,1.50354000451194661468717908204251
124,6151.50517122175574379678255629165723,6150.0,1.50517122175574379678255629165723
125,6251.10678932611659216438221511987033,6249.6,1.50678932611659216438221511987033
126,6351.50839452686261218528745238766287,6350.0,1.50839452686261218528745238766287
127,6452.70998702829147244629677456299230,6451.2,1.50998702829147244629677456299230
128,6554.71156702988660241296124452908329,6553.2,1.51156702988660241296124452908329
129,6657.51313472646731547977359180764178,6656.0,1.51313472646731547977359180764178
130,6761.11469030833312502446659489166199,6759.6,1.51469030833312502446659489166199
131,6865.51623396140252077597925700576296,6864.0,1.51623396140252077597925700576296
132,6970.71776586734645782844966283829921,6969.2,1.51776586734645782844966283829921
133,7076.71928620371679885200878431634054,7075.2,1.51928620371679885200878431634054
134,7183.52079514406993877519423381419056,7182.0,1.52079514406993877519423381419056
135,7291.12229285808582310545918542682445,7289.6,1.52229285808582310545918542682445
136,7399.52377951168256736672283216062746,7398.0,1.52377951168256736672283216062746
137,7508.72525526712687182496721849612915,7507.2,1.52525526712687182496721849612915
138,7618.72672028314041206089439264744347,7617.2,1.52672028314041206089439264744347
139,7729.52817471500238384275362240703158,7728.0,1.52817471500238384275362240703158
140,7841.12961871464836530648170361981128,7839.6,1.52961871464836530648170361981128
141,7953.53105243076565489280965223613377,7952.0,1.53105243076565489280965223613377
142,8066.73247600888523541772377581471787,8065.2,1.53247600888523541772377581471787
143,8180.73388959147050600250061870522989,8179.2,1.53388959147050600250061870522989
144,8295.53529331800291640989946480283382,8294.0,1.53529331800291640989946480283382
145,8411.13668732506463414533774895062058,8409.6,1.53668732506463414533774895062058
146,8527.53807174641836681312581664506588,8526.0,1.53807174641836681312581664506588
147,8644.73944671308445401487195850359865,8643.2,1.53944671308445401487195850359865
148,8762.74081235341534411913628459273171,8761.2,1.54081235341534411913628459273171
149,8881.54216879316755770334006322272288,8880.0,1.54216879316755770334006322272288
150,9001.14351615557124130885929780423179,8999.6,1.54351615557124130885929780423179
151,9121.54485456139740742361154850113616,9120.0,1.54485456139740742361154850113616
152,9242.74618412902295099135852017374148,9241.2,1.54618412902295099135852017374148
153,9364.74750497449353139747392907288522,9363.2,1.54750497449353139747392907288522
154,9487.54881721158440383047428654159692,9486.0,1.54881721158440383047428654159692
155,9611.15012095185927825536226408618254,9609.6,1.55012095185927825536226408618254
156,9735.55141630472728386520382615512897,9734.0,1.55141630472728386520382615512897
157,9860.75270337749811005760065517863761,9859.2,1.55270337749811005760065517863761
158,9986.75398227543539575421969073994604,9985.2,1.55398227543539575421969073994604
159,10113.5552531018084307362738464939558,10112.0,1.5552531018084307362738464939558
160,10241.1565159579422353335546939014026,10239.6,1.5565159579422353335546939014026
161,10369.5577709432660769632002003142625,10368.0,1.5577709432660769632002003142625
162,10498.7590181553604829793621533132547,10497.2,1.5590181553604829793621533132547
163,10628.7602576900028046871380041785018,10627.2,1.5602576900028046871380041785018
164,10759.5614896412113871574290599700720,10758.0,1.5614896412113871574290599700720
165,10891.1627141012883934430108319318632,10889.6,1.5627141012883934430108319318632
166,11023.5639311608613337114743146402833,11022.0,1.5639311608613337114743146402833
167,11156.7651409089233465274290285856630,11155.2,1.5651409089233465274290285856630
168,11290.7663434328722749729552931424090,11289.2,1.5663434328722749729552931424090
169,11425.5675388185485826684705764798641,11424.0,1.5675388185485826684705764798641
170,11561.1687271502721494372030828589049,11559.6,1.5687271502721494372030828589049
171,11697.5699085108779868078115880954445,11696.0,1.5699085108779868078115880954445
172,11834.7710829817509112218897666126765,11833.2,1.5710829817509112218897666126765
173,11972.7722506428592103487677291358154,11971.2,1.5722506428592103487677291358154
174,12111.5734115727873383512099081626419,12110.0,1.5734115727873383512099081626419
175,12251.1745658487676740870266406839445,12249.6,1.5745658487676740870266406839445
176,12391.5757135467113719530416581621680,12390.0,1.5757135467113719530416581621680
177,12532.7768547412383386320417658070807,12531.2,1.5768547412383386320417658070807
178,12674.7779895057063648971971818555018,12673.2,1.5779895057063648971971818555018
179,12817.5791179122394389189922775032681,12816.0,1.5791179122394389189922775032681
180,12961.1802400317552720211619321043939,12959.6,1.5802400317552720211619321043939
181,13105.5813559339920595343168510014465,13104.0,1.5813559339920595343168510014465
182,13250.7824656875345044427441722562412,13249.2,1.5824656875345044427441722562412
183,13396.7835693598391268737596813324431,13395.2,1.5835693598391268737596813324431
184,13543.5846670172588836712516815036095,13542.0,1.5846670172588836712516815036095
185,13691.1857587250671198616482453050371,13689.6,1.5857587250671198616482453050371
186,13839.5868445474808729810336039076449,13838.0,1.5868445474808729810336039076449
187,13988.7879245476835540640253321274439,13987.2,1.5879245476835540640253321274439
188,14138.7889987878470207308386252851525,14137.2,1.5889987878470207308386252851525
189,14289.5900673291530661037419835294912,14288.0,1.5900673291530661037419835294912
190,14441.1911302318143392040976078926335,14439.6,1.5911302318143392040976078926335
191,14593.5921875550947160526557958383769,14592.0,1.5921875550947160526557958383769
192,14746.7932393573291378554260845368636,14745.2,1.5932393573291378554260845368636
193,14900.7942856959429345790946968098748,14899.2,1.5942856959429345790946968098748
194,15055.5953266274706472568946003128278,15054.0,1.5953266274706472568946003128278
195,15211.1963622075743669574130977426055,15209.6,1.5963622075743669574130977426055
196,15367.5973924910616041083653037248567,15366.0,1.5973924910616041083653037248567
197,15524.7984175319027025507849146090103,15523.2,1.5984175319027025507849146090103
198,15682.7994373832478124857443690373338,15681.2,1.5994373832478124857443690373338
199,15841.6004520974434351475956259896008,15840.0,1.6004520974434351475956259896008
200,16001.2014617260485531440686757681696,15999.6,1.6014617260485531440686757681696
201,16161.6024663198503574397864582309501,16160.0,1.6024663198503574397864582309501
202,16322.8034659288795843594944618055359,16321.2,1.6034659288795843594944618055359
203,16484.8044606024254732658695981527131,16483.2,1.6044606024254732658695981527131
204,16647.6054503890503565269637735836114,16646.0,1.6054503890503565269637735836114
205,16811.2064353366038917387853734311033,16809.6,1.6064353366038917387853734311033
206,16975.6074154922369492219143239337006,16974.0,1.6074154922369492219143239337006
207,17140.8083909024151606629758063743463,17139.2,1.6083909024151606629758063743463
208,17306.8093616129321431225813678563283,17305.2,1.6093616129321431225813678563283
209,17473.6103276689224041527739624689809,17472.0,1.6103276689224041527739624689809
210,17641.2112891148739395197860019231940,17639.6,1.6112891148739395197860019231940
211,17809.6122459946405308912828348185817,17808.0,1.6122459946405308912828348185817
212,17978.8131983514537537154327385771850,17977.2,1.6131983514537537154327385771850
213,18148.8141462279346996699153035798542,18147.2,1.6141462279346996699153035798542
214,18319.6150896661054286567773788730485,18318.0,1.6150896661054286567773788730485
215,18491.2160287074001495495935734897068,18489.6,1.6160287074001495495935734897068
216,18663.6169633926761436476175652769686,18662.0,1.6169633926761436476175652769686
217,18836.8178937622244347961980262272414,18835.2,1.6178937622244347961980262272414
218,19010.8188198557802151461469219957457,19009.2,1.6188198557802151461469219957457
219,19185.6197417125330298252384723014546,19184.0,1.6197417125330298252384723014546
220,19361.2206593711367330302105375052134,19359.6,1.6206593711367330302105375052134
221,19537.6215728697192134418101998543228,19536.0,1.6215728697192134418101998543228
222,19714.8224822458919061605032498432240,19713.2,1.6224822458919061605032498432240
223,19892.8233875367590847239388018749838,19891.2,1.6233875367590847239388018749838
224,20071.6242887789269482657317114954237,20070.0,1.6242887789269482657317114954237
225,20251.2251860085125063723750722437099,20249.6,1.6251860085125063723750722437099
226,20431.6260792611522651764982422723366,20430.0,1.6260792611522651764982422723366
227,20612.8269685720107233295950183209339,20611.2,1.6269685720107233295950183209339
228,20794.8278539757886796647091352977998,20793.2,1.6278539757886796647091352977998
229,20977.6287355067313597015082180713472,20976.0,1.6287355067313597015082180713472
230,21161.2296131986363656802796945008991,21159.6,1.6296131986363656802796945008991
231,21345.6304870848614519144127896857702,21344.0,1.6304870848614519144127896857702
232,21530.8313571983321358705861197469252,21529.2,1.6313571983321358705861197469252
233,21716.8322235715491399624708026409976,21715.2,1.6322235715491399624708026409976
234,21903.6330862365956802043261765964049,21902.0,1.6330862365956802043261765964049
235,22091.2339452251445948959042791227460,22089.6,1.6339452251445948959042791227460
236,22279.6348005684653230377556534564890,22278.0,1.6348005684653230377556534564890
237,22468.8356522974307360973922149065377,22467.2,1.6356522974307360973922149065377
238,22658.8365004425238248576535965074704,22657.2,1.6365004425238248576535965074704
