Eigenstate,Energy,Kinetic Energy,Potential Energy
1,0.500000000043542302351335842298139302,0.0,0.500000000043542302351335842298139302
2,1.84623093793533611538881115022481716,1.2,0.64623093793533611538881115022481716
3,3.93633761053985335703399980535221368,3.2,0.73633761053985335703399980535221368
4,6.79966527955319395236883154527975595,6.0,0.79966527955319395236883154527975595
5,10.4480465782979124809083158920341544,9.6,0.8480465782979124809083158920341544
6,14.8870660015314109577549907895408873,14.0,0.8870660015314109577549907895408873
7,20.1197208306931441558200439132588520,19.2,0.9197208306931441558200439132588520
8,26.1477838521607411937682145847955173,25.2,0.9477838521607411937682145847955173
9,32.9723835649408850971174137219153824,32.0,0.9723835649408850971174137219153824
10,40.5942802231824090564841318995597802,39.6,0.9942802231824090564841318995597802
11,49.0140093970265354273416962218469332,48.0,1.0140093970265354273416962218469332
12,58.2319621817780327821972783485530908,57.2,1.0319621817780327821972783485530908
13,68.2484327075028215480580889139269709,67.2,1.0484327075028215480580889139269709
14,79.0636476718841434990766566075019812,78.0,1.0636476718841434990766566075019812
15,90.6777854560367514460092599383892731,89.6,1.0777854560367514460092599383892731
16,103.090988929377357386360961230053907,102.0,1.090988929377357386360961230053907
17,116.303374283086138945980610106515337,115.2,1.103374283086138945980610106515337
18,130.315037281112940342006078298246140,129.2,1.115037281112940342006078298246140
19,145.126057783281251101288098690715455,144.0,1.126057783281251101288098690715455
20,160.736503082922143325133255313780877,159.6,1.136503082922143325133255313780877
21,177.146430412955969489566589680174287,176.0,1.146430412955969489566589680174287
22,194.355888857051103054454761751448761,193.2,1.155888857051103054454761751448761
23,212.364920827560463487071985266176664,211.2,1.164920827560463487071985266176664
24,231.173563222921938709750346224731700,230.0,1.173563222921938709750346224731700
25,250.781848344454311720190126584938292,249.6,1.181848344454311720190126584938292
26,271.189804630164848525588453021972944,270.0,1.189804630164848525588453021972944
27,292.397457247711874127149755590354207,291.2,1.197457247711874127149755590354207
28,314.404828577763812480078725135798975,313.2,1.204828577763812480078725135798975
29,337.211938611201138531020818292881034,336.0,1.211938611201138531020818292881034
30,360.818805277958202864464467271347564,359.6,1.218805277958202864464467271347564
31,385.225444721155950988715885557597363,384.0,1.225444721155950988715885557597363
32,410.431871527098659706739002929468717,409.2,1.231871527098659706739002929468717
33,436.438098919398165212595864518358807,435.2,1.238098919398165212595864518358807
34,463.244138923738511287760974948812381,462.0,1.244138923738511287760974948812381
35,490.850002508454750905667241901091716,489.6,1.250002508454750905667241901091716
36,519.255699705066155674139997107519193,518.0,1.255699705066155674139997107519193
37,548.461239712100002996752537692319606,547.2,1.261239712100002996752537692319606
38,578.466630984911692090919904838496322,577.2,1.266630984911692090919904838496322
39,609.271881313709091350975238841082864,608.0,1.271881313709091350975238841082864
40,640.876997891593198760888221861444769,639.6,1.276997891593198760888221861444769
41,673.281987374110446787534907693080166,672.0,1.281987374110446787534907693080166
42,706.486855931556990583901389014584141,705.2,1.286855931556990583901389014584141
43,740.491609295068831986671552868638438,739.2,1.291609295068831986671552868638438
44,775.296252797363537777133391107632615,774.0,1.296252797363537777133391107632615
45,810.900791408861741105332902460815704,809.6,1.300791408861741105332902460815704
46,847.305229769803478694805108363369943,846.0,1.305229769803478694805108363369943
47,884.509572218880939832875846689303509,883.2,1.309572218880939832875846689303509
48,922.513822818831616787276861591933248,921.2,1.313822818831616787276861591933248
49,961.317985379371183745917897301705988,960.0,1.317985379371183745917897301705988
50,1000.92206347779130866300464233499160,999.6,1.32206347779130866300464233499160
51,1041.32606047750213543221765234492284,1040.0,1.32606047750213543221765234492284
52,1082.52997954476082859336702113955474,1081.2,1.32997954476082859336702113955474
53,1124.53382366379512266039083013565262,1123.2,1.33382366379512266039083013565262
54,1167.33759565050325702710874218017979,1166.0,1.33759565050325702710874218017979
55,1210.94129816488820191462979338070342,1209.6,1.34129816488820191462979338070342
56,1255.34493372236400625418794461477079,1254.0,1.34493372236400625418794461477079
57,1300.54850470405489943405963279680178,1299.2,1.34850470405489943405963279680178
58,1346.55201336619298165292654101310932,1345.2,1.35201336619298165292654101310932
59,1393.35546184870758367477130344799969,1392.0,1.35546184870758367477130344799969
60,1440.95885218308835227269163408211426,1439.6,1.35885218308835227269163408211426
61,1489.36218629959455342151359568413119,1488.0,1.36218629959455342151359568413119
62,1538.56546603387478429397126192712793,1537.2,1.36546603387478429397126192712793
63,1588.56869313305404322619927734209621,1587.2,1.36869313305404322619927734209621
64,1639.37186926133879433836275402109796,1638.0,1.37186926133879433836275402109796
65,1690.97499600518512865627607550065091,1689.6,1.37499600518512865627607550065091
66,1743.37807487807027624080800023677322,1742.0,1.37807487807027624080800023677322
67,1796.58110732490346154054461442401139,1795.2,1.38110732490346154054461442401139
68,1850.58409472610833802237309317354466,1849.2,1.38409472610833802237309317354466
69,1905.38703840140592546392243849595970,1904.0,1.38703840140592546392243849595970
70,1960.98993961332404502353313725413298,1959.6,1.38993961332404502353313725413298
71,2017.39279957045664849969675012749730,2016.0,1.39279957045664849969675012749730
72,2074.59561943049413994952629736747671,2073.2,1.39561943049413994952629736747671
73,2132.59840030304373482941499675225491,2131.2,1.39840030304373482941499675225491
74,2191.40114325225708297248791723266745,2190.0,1.40114325225708297248791723266745
75,2251.00384929928075061634818260055592,2249.6,1.40384929928075061634818260055592
76,2311.40651942454370713786390986588886,2310.0,1.40651942454370713786390986588886
77,2372.60915456989465975332405929264769,2371.2,1.40915456989465975332405929264769
78,2434.61175564060091364411102071169098,2433.2,1.41175564060091364411102071169098
79,2497.41432350721938814804552066939271,2496.0,1.41432350721938814804552066939271
80,2561.01685900734948153091483413118197,2559.6,1.41685900734948153091483413118197
81,2625.41936294727662751121878927682059,2624.0,1.41936294727662751121878927682059
82,2690.62183610351462526061435168084193,2689.2,1.42183610351462526061435168084193
83,2756.62427922425413586874989712582586,2755.2,1.42427922425413586874989712582586
84,2823.42669303072411396946413360576345,2822.0,1.42669303072411396946413360576345
85,2891.02907821847238394915091639048442,2889.6,1.42907821847238394915091639048442
86,2959.43143545857105429270173024793551,2958.0,1.43143545857105429270173024793551
87,3028.63376539875200615163790155986898,3027.2,1.43376539875200615163790155986898
88,3098.63606866447726884130867026030798,3097.2,1.43606866447726884130867026030798
89,3169.43834585994871147186984344113748,3168.0,1.43834585994871147186984344113748
90,3241.04059756906113670102839829251888,3239.6,1.44059756906113670102839829251888
91,3313.44282435630254114448772737197945,3312.0,1.44282435630254114448772737197945
92,3386.64502676760501868248900547464537,3385.2,1.44502676760501868248900547464537
93,3460.64720533114952064578855838507641,3459.2,1.44720533114952064578855838507641
94,3535.44936055812744393567298006411059,3534.0,1.44936055812744393567298006411059
95,3611.05149294346179697858472802320590,3609.6,1.45149294346179697858472802320590
96,3687.45360296649049159381440927497278,3686.0,1.45360296649049159381440927497278
97,3764.65569109161412451060656495623804,3763.2,1.45569109161412451060656495623804
98,3842.65775776891043939673070858268640,3841.2,1.45775776891043939673070858268640
99,3921.45980343471750678838063382602775,3920.0,1.45980343471750678838063382602775
100,4001.06182851218751297084859783591222,3999.6,1.46182851218751297084859783591222
101,4081.46383341181291955526671421630797,4080.0,1.46383341181291955526671421630797
102,4162.66581853192662992198673081620724,4161.2,1.46581853192662992198673081620724
103,4244.66778425917769078755643467356903,4243.2,1.46778425917769078755643467356903
104,4327.46973096898394988754074542968059,4326.0,1.46973096898394988754074542968059
105,4411.07165902596299769367831551744343,4409.6,1.47165902596299769367831551744343
106,4495.47356878434263031962105009519299,4494.0,1.47356878434263031962105009519299
107,4580.67546058835199268754840570396910,4579.2,1.47546058835199268754840570396910
108,4666.67733477259448178839395193556500,4665.2,1.47733477259448178839395193556500
109,4753.47919166240342127488763309377245,4752.0,1.47919166240342127488763309377245
110,4841.08103157418145620649195158331327,4839.6,1.48103157418145620649195158331327
111,4929.48285481572455090411193477752143,4928.0,1.48285481572455090411193477752143
112,5018.68466168653142343882521413660220,5017.2,1.48466168653142343882521413660220
113,5108.68645247809919474308442453737357,5107.2,1.48645247809919474308442453737357
114,5199.48822747420598157508803858086833,5198.0,1.48822747420598157508803858086833
115,5291.08998695118112211851279201449697,5289.6,1.48998695118112211851279201449697
116,5383.49173117816367466815310163866710,5382.0,1.49173117816367466815310163866710
117,5476.69346041734979813900581726928758,5475.2,1.49346041734979813900581726928758
118,5570.69517492422958210523313893211069,5569.2,1.49517492422958210523313893211069
119,5665.49687494781386036172041097910870,5664.0,1.49687494781386036172041097910870
120,5761.09856073085151615871042420254410,5759.6,1.49856073085151615871042420254410
121,5857.50023251003774899275157071268922,5856.0,1.50023251003774899275157071268922
122,5954.70189051621375392406456740565733,5953.2,1.50189051621375392406456740565733
123,6052.70353497455823219750046341556132,6051.2,1.50353497455823219750046341556132
124,6151.50516610477113426445390497655504,6150.0,1.50516610477113426445390497655504
125,6251.10678412125000673683267863116270,6249.6,1.50678412125000673683267863116270
126,6351.50838923325929960688695072541528,6350.0,1.50838923325929960688695072541528
127,6452.70998164509296948881516646198616,6451.2,1.50998164509296948881516646198616
128,6554.71156155623069205087392473731757,6553.2,1.51156155623069205087392473731757
129,6657.51312916148798473348080356038529,6656.0,1.51312916148798473348080356038529
130,6761.11468465116052246693201378747598,6759.6,1.51468465116052246693201378747598
131,6865.51622821116291369823867142164186,6864.0,1.51622821116291369823867142164186
132,6970.71776002316218905938487024842605,6969.2,1.51776002316218905938487024842605
133,7076.71928026470624322772628977888105,7075.2,1.51928026470624322772628977888105
134,7183.52078910934745925328995829904859,7182.0,1.52078910934745925328995829904859
135,7291.12228672676172651939285194723031,7289.6,1.52228672676172651939285194723031
136,7399.52377328286305981546661556467570,7398.0,1.52377328286305981546661556467570
137,7508.72524893991401369303258829840142,7507.2,1.52524893991401369303258829840142
138,7618.72671385663207266378019829971892,7617.2,1.52671385663207266378019829971892
139,7729.52816818829219569279668933290125,7728.0,1.52816818829219569279668933290125
140,7841.12961208682567799402751018825963,7839.6,1.52961208682567799402751018825963
141,7953.53104570091548857755693848232310,7952.0,1.53104570091548857755693848232310
142,8066.73246917608823392503156436334036,8065.2,1.53246917608823392503156436334036
143,8180.73388265480288951937975647949706,8179.2,1.53388265480288951937975647949706
144,8295.53528627653643377534352168326805,8294.0,1.53528627653643377534352168326805
145,8411.13668017786651472957986827054920,8409.6,1.53668017786651472957986827054920
146,8527.53806449255127198033804005393453,8526.0,1.53806449255127198033804005393453
147,8644.73943935160642816375307793218340,8643.2,1.53943935160642816375307793218340
148,8762.74080488337976529576257337600014,8761.2,1.54080488337976529576257337600014
149,8881.54216121362308778057962338515421,8880.0,1.54216121362308778057962338515421
150,9001.14350846556177572657730494505016,8999.6,1.54350846556177572657730494505016
151,9121.54484675996202448381701083545832,9120.0,1.54484675996202448381701083545832
152,9242.74617621519586070236750274466017,9241.2,1.54617621519586070236750274466017
153,9364.74749694730402386108556065060361,9363.2,1.54749694730402386108556065060361
154,9487.54880907005679716607674155450656,9486.0,1.54880907005679716607674155450656
155,9611.15011269501286605480528226499324,9609.6,1.55011269501286605480528226499324
156,9735.55140793157628217219215653019209,9734.0,1.55140793157628217219215653019209
157,9860.75269488705160386527982282267310,9859.2,1.55269488705160386527982282267310
158,9986.75397366669728501454048502848775,9985.2,1.55397366669728501454048502848775
159,10113.5552443737773758746360891320351,10112.0,1.5552443737773758746360891320351
160,10241.1565071096116022621430228609513,10239.6,1.5565071096116022621430228609513
161,10369.5577619736238815863355553095781,10368.0,1.5577619736238815863355553095781
162,10498.7590090633893351841025251976571,10497.2,1.5590090633893351841025251976571
163,10628.7602484746798518122697011934213,10627.2,1.5602484746798518122697011934213
164,10759.5614803015082569338961738881819,10758.0,1.5614803015082569338961738881819
165,10891.1627046361711363987356435570066,10889.6,1.5627046361711363987356435570066
166,11023.5639215692903650334244754008108,11022.0,1.5639215692903650334244754008108
167,11156.7651311898533873736892761794414,11155.2,1.5651311898533873736892761794414
168,11290.7663335852522932274611352557480,11289.2,1.5663335852522932274611352557480
169,11425.5675288413217331309600010286804,11424.0,1.5675288413217331309600010286804
170,11561.1687170423757134408388524148485,11559.6,1.5687170423757134408388524148485
171,11697.5698982712433112568213065740341,11696.0,1.5698982712433112568213065740341
172,11834.7710726093033470414644695478982,11833.2,1.5710726093033470414644695478982
173,11972.7722401365180503393509953660650,11971.2,1.5722401365180503393509953660650
174,12111.5734009314657544391979412868547,12110.0,1.5734009314657544391979412868547
175,12251.1745550713726539637890092300771,12249.6,1.5745550713726539637890092300771
176,12391.5757026321436550940563644480173,12390.0,1.5757026321436550940563644480173
177,12532.7768436883923516878232273645705,12531.2,1.5768436883923516878232273645705
178,12674.7779783134701564475768631888752,12673.2,1.5779783134701564475768631888752
179,12817.5791065794946135821915747498488,12816.0,1.5791065794946135821915747498488
180,12961.1802285573769239089740187925812,12959.6,1.5802285573769239089740187925812
181,13105.5813443168487050445908029574912,13104.0,1.5813443168487050445908029574912
182,13250.7824539264880143802372326294118,13249.2,1.5824539264880143802372326294118
183,13396.7835574537446578902948729565630,13395.2,1.5835574537446578902948729565630
184,13543.5846549649648090159875672949366,13542.0,1.5846549649648090159875672949366
185,13691.1857465254149594321329244929572,13689.6,1.5857465254149594321329244929572
186,13839.5868321993052226655818531105116,13838.0,1.5868321993052226655818531105116
187,13988.7879120498120143658175192029602,13987.2,1.5879120498120143658175192029602
188,14138.7889861391001246640011258112349,14137.2,1.5889861391001246640011258112349
189,14289.5900545283442063515258854856138,14288.0,1.5900545283442063515258854856138
190,14441.1911172777496945291269104427903,14439.6,1.5911172777496945291269104427903
191,14593.5921744465731769490689051993809,14592.0,1.5921744465731769490689051993809
192,14746.7932260931422314325839699662260,14745.2,1.5932260931422314325839699662260
193,14900.7942722748747486663761048996970,14899.2,1.5942722748747486663761048996970
194,15055.5953130482977537189433800621815,15054.0,1.5953130482977537189433800621815
195,15211.1963484690657442090439954489439,15209.6,1.5963484690657442090439954489439
196,15367.5973785919785588181735284300281,15366.0,1.5973785919785588181735284300281
197,15524.7984034709987905223408484008490,15523.2,1.5984034709987905223408484008490
198,15682.7994231592687587050884086704850,15681.2,1.5994231592687587050884086704850
199,15841.6004377091270529855771114978342,15840.0,1.6004377091270529855771114978342
200,16001.2014471721246627019011262253194,15999.6,1.6014471721246627019011262253194
201,16161.6024515990407030260160230341058,16160.0,1.6024515990407030260160230341058
202,16322.8034510398977510863967486533172,16321.2,1.6034510398977510863967486533172
203,16484.8044455439768027531115083216262,16483.2,1.6044455439768027531115083216262
204,16647.6054351598318617001786293332702,16646.0,1.6054351598318617001786293332702
205,16811.2064199353041707105225856944466,16809.6,1.6064199353041707105225856944466
206,16975.6073999175360982422316660691684,16974.0,1.6073999175360982422316660691684
207,17140.8083751529846861267472825840572,17139.2,1.6083751529846861267472825840572
208,17306.8093456874348726203949125259767,17305.2,1.6093456874348726203949125259767
209,17473.6103115660123965520892308788729,17472.0,1.6103115660123965520892308788729
210,17641.2112728331963940628175975741878,17639.6,1.6112728331963940628175975741878
211,17809.6122295328316952958636562166035,17808.0,1.6122295328316952958636562166035
212,17978.8131817081408312648982600546898,17977.2,1.6131817081408312648982600546898
213,18148.8141294017357552778313033491729,18147.2,1.6141294017357552778313033491729
214,18319.6150726556292938921130258151606,18318.0,1.6150726556292938921130258151606
215,18491.2160115112463266077152677453335,18489.6,1.6160115112463266077152677453335
216,18663.6169460094347082522486245460424,18662.0,1.6169460094347082522486245460424
217,18836.8178761904759380172563466135024,18835.2,1.6178761904759380172563466135024
218,19010.8188020940955841181339085174064,19009.2,1.6188020940955841181339085174064
219,19185.6197237594734673506084923703167,19184.0,1.6197237594734673506084923703167
220,19361.2206412252536160519050344984558,19359.6,1.6206412252536160519050344984558
221,19537.6215545295539903688872747176987,19536.0,1.6215545295539903688872747176987
222,19714.8224637099759930305375228127575,19713.2,1.6224637099759930305375228127575
223,19892.8233688036137601856051505889526,19891.2,1.6233688036137601856051505889526
224,20071.6242698470632473647203518065113,20070.0,1.6242698470632473647203518065113
225,20251.2251668764311131235143770002122,20249.6,1.6251668764311131235143770002122
226,20431.6260599273434039046851495947446,20430.0,1.6260599273434039046851495947446
227,20612.8269490349540487618533438216660,20611.2,1.6269490349540487618533438216660
228,20794.8278342339531657554068655713911,20793.2,1.6278342339531657554068655713911
229,20977.6287155585751871724753004501532,20976.0,1.6287155585751871724753004501532
230,21161.2295930426068082572693960927583,21159.6,1.6295930426068082572693960927583
231,21345.6304667193947612410466429056016,21344.0,1.6304667193947612410466429056016
232,21530.8313366218534250806140582249241,21529.2,1.6313366218534250806140582249241
233,21716.8322027824722658908635451906943,21715.2,1.6322027824722658908635451906943
234,21903.6330652333231242173956634437529,21902.0,1.6330652333231242173956634437529
235,22091.2339240060673423203225711783632,22089.6,1.6339240060673423203225711783632
236,22279.6347791319627411680084342565970,22278.0,1.6347791319627411680084342565970
237,22468.8356306418704507608645786778063,22467.2,1.6356306418704507608645786778063
238,22658.8364785662615955162003151124567,22657.2,1.6364785662615955162003151124567
