Eigenstate,Energy,Kinetic Energy,Potential Energy
1,0.500000000563216035237270840473587379,0.0,0.500000000563216035237270840473587379
2,1.84623094132756309590738350668764766,1.2,0.64623094132756309590738350668764766
3,3.93633762050455505884416056452689467,3.2,0.73633762050455505884416056452689467
4,6.79966530030941065242268572867045548,6.0,0.79966530030941065242268572867045548
5,10.4480466142538717285076592220678368,9.6,0.8480466142538717285076592220678368
6,14.8870660571737226946742220053332270,14.0,0.8870660571737226946742220053332270
7,20.1197209105461724346698167093620049,19.2,0.9197209105461724346698167093620049
8,26.1477839607698437881621425591641398,25.2,0.9477839607698437881621425591641398
9,32.9723837068647884942711137890920166,32.0,0.9723837068647884942711137890920166
10,40.5942804029894939975610811171792249,39.6,0.9942804029894939975610811171792249
11,49.0140096192929637478129542375054564,48.0,1.0140096192929637478129542375054564
12,58.2319624510868129513386316713774222,57.2,1.0319624510868129513386316713774222
13,68.2484330284433856488909794999223268,67.2,1.0484330284433856488909794999223268
14,79.0636480490522189604771596659842071,78.0,1.0636480490522189604771596659842071
15,90.6777858940344110183032018034285747,89.6,1.0777858940344110183032018034285747
16,103.090989432813181512806033535506780,102.0,1.090989432813181512806033535506780
17,116.303374856575451684785061837987009,115.2,1.103374856575451684785061837987009
18,130.315037929278095057279687639143047,129.2,1.115037929278095057279687639143047
19,145.126058510751950886760792276767867,144.0,1.126058510751950886760792276767867
20,160.736503894335786383160757341022876,159.6,1.136503894335786383160757341022876
21,177.146431312958012949975786978482180,176.0,1.146431312958012949975786978482180
22,194.355889850295440798229355241718541,193.2,1.155889850295440798229355241718541
23,212.364921918709814900210310678013376,211.2,1.164921918709814900210310678013376
24,231.173564416648246202320124618611137,230.0,1.173564416648246202320124618611137
25,250.781849645439145466477158630996237,249.6,1.181849645439145466477158630996237
26,271.189806043099817312939389453194407,270.0,1.189806043099817312939389453194407
27,292.397458777299041506442812978034994,291.2,1.197458777299041506442812978034994
28,314.404830228716117630132404134835792,313.2,1.204830228716117630132404134835792
29,337.211940388242821409182391148438829,336.0,1.211940388242821409182391148438829
30,360.818807185825233333811200786249867,359.6,1.218807185825233333811200786249867
31,385.225446764596461700770543930665259,384.0,1.225446764596461700770543930665259
32,410.431873710873382585627043232234948,409.2,1.231873710873382585627043232234948
33,436.438101248280871437943638727716477,435.2,1.238101248280871437943638727716477
34,463.244141402516454713448484766007771,462.0,1.244141402516454713448484766007771
35,490.850005141929114882744043847941760,489.6,1.250005141929114882744043847941760
36,519.255702498052503270915530423366229,518.0,1.255702498052503270915530423366229
37,548.461242669428730628845496247370475,547.2,1.261242669428730628845496247370475
38,578.466634111428486590046854896524336,577.2,1.266634111428486590046854896524336
39,609.271884614275390514341170520326207,608.0,1.271884614275390514341170520326207
40,640.877001371086655433860939980359836,639.6,1.277001371086655433860939980359836
41,673.281991037425396541334387169293166,672.0,1.281991037425396541334387169293166
42,706.486859783604923057695073139948862,705.2,1.286859783604923057695073139948862
43,740.491613340778865970028566272447633,739.2,1.291613340778865970028566272447633
44,775.296257041682900114481824342097597,774.0,1.296257041682900114481824342097597
45,810.900795856756249509063947846984151,809.6,1.300795856756249509063947846984151
46,847.305234426258028558116486613797279,846.0,1.305234426258028558116486613797279
47,884.509577088899995137454731389255541,883.2,1.309577088899995137454731389255541
48,922.513827907439705204580556587791366,921.2,1.313827907439705204580556587791366
49,961.317990691613396034188342608102788,960.0,1.317990691613396034188342608102788
50,1000.92206901873380246530965253551152,999.6,1.32206901873380246530965253551152
51,1041.32606625223264358379501011506923,1040.0,1.32606625223264358379501011506923
52,1082.52998555838917204939391565282302,1081.2,1.32998555838917204939391565282302
53,1124.53382992145372815804342038036505,1123.2,1.33382992145372815804342038036505
54,1167.33760215734767959844233372057599,1166.0,1.33760215734767959844233372057599
55,1210.94130492609765236941857333609628,1209.6,1.34130492609765236941857333609628
56,1255.34494074314188375443421093436196,1254.0,1.34494074314188375443421093436196
57,1300.54851198962932928443087740942025,1299.2,1.34851198962932928443087740942025
58,1346.55202092181735843392111548287366,1345.2,1.35202092181735843392111548287366
59,1393.35546967966111984795283591451844,1392.0,1.35546967966111984795283591451844
60,1440.95886029467663238988821321438806,1439.6,1.35886029467663238988821321438806
61,1489.36219469715009407245226453777005,1488.0,1.36219469715009407245226453777005
62,1538.56547472275759992942166364375771,1537.2,1.36547472275759992942166364375771
63,1588.56870211865221799633666417551866,1587.2,1.36870211865221799633666417551866
64,1639.37187854906906008873797939084153,1638.0,1.37187854906906008873797939084153
65,1690.97500560049344922650521000333503,1689.6,1.37500560049344922650521000333503
66,1743.37808478643243821386652374289204,1742.0,1.37808478643243821386652374289204
67,1796.58111755182567159338047683666421,1795.2,1.38111755182567159338047683666421
68,1850.58410527712782703144070910311327,1849.2,1.38410527712782703144070910311327
69,1905.38704928209155952219256991438397,1904.0,1.38704928209155952219256991438397
70,1960.98995082927694352854780865224414,1959.6,1.38995082927694352854780865224414
71,2017.39281112731080947533049467030372,2016.0,1.39281112731080947533049467030372
72,2074.59563133391707276727252682877047,2073.2,1.39563133391707276727252682877047
73,2132.59841255873710049825844953909910,2131.2,1.39841255873710049825844953909910
74,2191.40115586595734216973991554838480,2190.0,1.40115586595734216973991554838480
75,2251.00386227675981963522545507885359,2249.6,1.40386227675981963522545507885359
76,2311.40653277160962193107782917007869,2310.0,1.40653277160962193107782917007869
77,2372.60916829239224825552664730289814,2371.2,1.40916829239224825552664730289814
78,2434.61176974441247655971409866537804,2433.2,1.41176974441247655971409866537804
79,2497.41433799826538839469633567293591,2496.0,1.41433799826538839469633567293591
80,2561.01687389158924253277483112063335,2559.6,1.41687389158924253277483112063335
81,2625.41937823070904054016270753379192,2624.0,1.41937823070904054016270753379192
82,2690.62185179217886602753781191370891,2689.2,1.42185179217886602753781191370891
83,2756.62429532423039057135653762910361,2755.2,1.42429532423039057135653762910361
84,2823.42670954813431500719726441931373,2822.0,1.42670954813431500719726441931373
85,2891.02909515948095552034510913678491,2889.6,1.42909515948095552034510913678491
86,2959.43145282938566809355744220130268,2958.0,1.43145282938566809355744220130268
87,3028.63378320562434740127655780495600,3027.2,1.43378320562434740127655780495600
88,3098.63608691370381286194236695140987,3097.2,1.43608691370381286194236695140987
89,3169.43836455787151105802985229984939,3168.0,1.43836455787151105802985229984939
90,3241.04061672206862051683942842875638,3239.6,1.44061672206862051683942842875638
91,3313.44284397083032339315847935446589,3312.0,1.44284397083032339315847935446589
92,3386.64504685013672029751204799521113,3385.2,1.44504685013672029751204799521113
93,3460.64722588821760225881620016462432,3459.2,1.44722588821760225881620016462432
94,3535.44938159631405088165737569580580,3534.0,1.44938159631405088165737569580580
95,3611.05151446939961660455056829229658,3609.6,1.45151446939961660455056829229658
96,3687.45362498686362314357076094731096,3686.0,1.45362498686362314357076094731096
97,3764.65571361315896186381213633903899,3763.2,1.45571361315896186381213633903899
98,3842.65778079841656694700064005251238,3841.2,1.45778079841656694700064005251238
99,3921.45982697902860875157561932004542,3920.0,1.45982697902860875157561932004542
100,4001.06185257820229642132101303292020,3999.6,1.46185257820229642132101303292020
101,4081.46385800648605149465720607479718,4080.0,1.46385800648605149465720607479718
102,4162.66584366226968869217785733886461,4161.2,1.46584366226968869217785733886461
103,4244.66780993226013214660064116246382,4243.2,1.46780993226013214660064116246382
104,4327.46975719193408807479755975358164,4326.0,1.46975719193408807479755975358164
105,4411.07168580596900181801968603534577,4409.6,1.47168580596900181801968603534577
106,4495.47359612865353641241051200969572,4494.0,1.47359612865353641241051200969572
107,4580.67548850427873177016828960507251,4579.2,1.47548850427873177016828960507251
108,4666.67736326751092431239416886321775,4665.2,1.47736326751092431239416886321775
109,4753.47922074374743830137221000670243,4752.0,1.47922074374743830137221000670243
110,4841.08106124945599770014152260294023,4839.6,1.48106124945599770014152260294023
111,4929.48288509249874152628442325765780,4928.0,1.48288509249874152628442325765780
112,5018.68469257244167623347677403286027,5017.2,1.48469257244167623347677403286027
113,5108.68648398085034311882730205299941,5107.2,1.48648398085034311882730205299941
114,5199.48825960157242999655614347496615,5198.0,1.48825960157242999655614347496615
115,5291.09001971100801593034589064624747,5289.6,1.49001971100801593034589064624747
116,5383.49176457836808948535089830250004,5382.0,1.49176457836808948535089830250004
117,5476.69349446592194924815069846914616,5475.2,1.49349446592194924815069846914616
118,5570.69520962923405433214627113669570,5569.2,1.49520962923405433214627113669570
119,5665.49691031739085887250628365551904,5664.0,1.49691031739085887250628365551904
120,5761.09859677321813867288103568976360,5759.6,1.49859677321813867288103568976360
121,5857.50026923348927989920167561452007,5856.0,1.50026923348927989920167561452007
122,5954.70192792912498080311431470641785,5953.2,1.50192792912498080311431470641785
123,6052.70357308538478526504053320714183,6051.2,1.50357308538478526504053320714183
124,6151.50520492205084926743222280379252,6150.0,1.50520492205084926743222280379252
125,6251.10682365360431184292664428183713,6249.6,1.50682365360431184292664428183713
126,6351.50842948939462684522354966444391,6350.0,1.50842948939462684522354966444391
127,6452.71002263380219131304349586611770,6451.2,1.51002263380219131304349586611770
128,6554.71160328639458361078203858455754,6553.2,1.51160328639458361078203858455754
129,6657.51317164207671245669117913226134,6656.0,1.51317164207671245669117913226134
130,6761.11472789123515956802315576977057,6759.6,1.51472789123515956802315576977057
131,6865.51627221987698324894619199923898,6864.0,1.51627221987698324894619199923898
132,6970.71780480976323527034398760500457,6969.2,1.51780480976323527034398760500457
133,7076.71932583853743160954676643084644,7075.2,1.51932583853743160954676643084644
134,7183.52083547984920634263038749855080,7182.0,1.52083547984920634263038749855080
135,7291.12233390347335987413711559516863,7289.6,1.52233390347335987413711559516863
136,7399.52382127542450900211301129570888,7398.0,1.52382127542450900211301129570888
137,7508.72529775806753300902565259814903,7507.2,1.52529775806753300902565259814903
138,7618.72676351022399635775003192168406,7617.2,1.52676351022399635775003192168406
139,7729.52821868727472646654926821538029,7728.0,1.52821868727472646654926821538029
140,7841.12966344125870959168009861602843,7839.6,1.52966344125870959168009861602843
141,7953.53109792096846328944687827951684,7952.0,1.53109792096846328944687827951684
142,8066.73252227204203585698455812059356,8065.2,1.53252227204203585698455812059356
143,8180.73393663705177450161851992629912,8179.2,1.53393663705177450161851992629912
144,8295.53534115558999680978557309557814,8294.0,1.53534115558999680978557309557814
145,8411.13673596435169589952932758667933,8409.6,1.53673596435169589952932758667933
146,8527.53812119721440177267379919055468,8526.0,1.53812119721440177267379919055468
147,8644.73949698531531318065532274338972,8643.2,1.53949698531531318065532274338972
148,8762.74086345712581536085582538742374,8761.2,1.54086345712581536085582538742374
149,8881.54222073852348547312741347797254,8880.0,1.54222073852348547312741347797254
150,9001.14356895286168940707127154430030,8999.6,1.54356895286168940707127154430030
151,9121.54490822103686590501505596112237,9120.0,1.54490822103686590501505596112237
152,9242.74623866155358833155968514989097,9241.2,1.54623866155358833155968514989097
153,9364.74756039058749307217523625039017,9363.2,1.54756039058749307217523625039017
154,9487.54887352204615849396977942026129,9486.0,1.54887352204615849396977942026129
155,9611.15017816762801273966356199381430,9609.6,1.55017816762801273966356199381430
156,9735.55147443687934825736606058576082,9734.0,1.55147443687934825736606058576082
157,9860.75276243724951415022962680233306,9859.2,1.55276243724951415022962680233306
158,9986.75404227414435820284586914193906,9985.2,1.55404227414435820284586914193906
159,10113.5553140509779822973208130345418,10112.0,1.5553140509779822973208130345418
160,10241.1565778692228775980580383636808,10239.6,1.5565778692228775980580383636808
161,10369.5578338284584980443134688195928,10368.0,1.5578338284584980443134688195928
162,10498.7590820264183316560632476779927,10497.2,1.5590820264183316560632476779927
163,10628.7603225590355245524864912455913,10627.2,1.5603225590355245524864912455913
164,10759.5615555204871123672936114962296,10758.0,1.5615555204871123672936114962296
165,10891.1627810032369077104347289197158,10889.6,1.5627810032369077104347289197158
166,11023.5639990980770942428531291510792,11022.0,1.5639990980770942428531291510792
167,11156.7652098941685746495147969411843,11155.2,1.5652098941685746495147969411843
168,11290.7664134790801152544350321731105,11289.2,1.5664134790801152544350321731105
169,11425.5676099388263323965779944918149,11424.0,1.5676099388263323965779944918149
170,11561.1687993579045603686052563593219,11559.6,1.5687993579045603686052563593219
171,11697.5699818193306411739221534501559,11696.0,1.5699818193306411739221534501559
172,11834.7711574046736740319154075531868,11833.2,1.5711574046736740319154075531868
173,11972.7723261940897600992691362245589,11971.2,1.5723261940897600992691362245589
174,12111.5734882663547783188567430589625,12110.0,1.5734882663547783188567430589625
175,12251.1746436988962264516494609397378,12249.6,1.5746436988962264516494609397378
176,12391.5757925678241570711304870509256,12390.0,1.5757925678241570711304870509256
177,12532.7769349479612418566403659590489,12531.2,1.5769349479612418566403659590489
178,12674.7780709128719934187851384843942,12673.2,1.5780709128719934187851384843942
179,12817.5792005348911711835807700095460,12816.0,1.5792005348911711835807700095460
180,12961.1803238851514023665671355042611,12959.6,1.5803238851514023665671355042611
181,13105.5814410336100407735469278343516,13104.0,1.5814410336100407735469278343516
182,13250.7825520490752912148049362740011,13249.2,1.5825520490752912148049362740011
183,13396.7836569992316226770659008246559,13395.2,1.5836569992316226770659008246559
184,13543.5847559506644945934095888034090,13542.0,1.5847559506644945934095888034090
185,13691.1858489688844181217904184654853,13689.6,1.5858489688844181217904184654853
186,13839.5869361183503735073264419508333,13838.0,1.5869361183503735073264419508333
187,13988.7880174624926074395937132979853,13987.2,1.5880174624926074395937132979853
188,14138.7890930637348259563662268954207,14137.2,1.5890930637348259563662268954207
189,14289.5901629835158067446018999698286,14288.0,1.5901629835158067446018999698286
190,14441.1912272823104466142316233827795,14439.6,1.5912272823104466142316233827795
191,14593.5922860196502634968085669109355,14592.0,1.5922860196502634968085669109355
192,14746.7933392541433694859372021777194,14745.2,1.5933392541433694859372021777194
193,14900.7943870434939333635490799947388,14899.2,1.5943870434939333635490799947388
194,15055.5954294445211460987156931700642,15054.0,1.5954294445211460987156931700642
195,15211.1964665131777074032723426265609,15209.6,1.5964665131777074032723426265609
196,15367.5974983045678471943558554383338,15366.0,1.5974983045678471943558554383338
197,15524.7985248729648965038998737716495,15523.2,1.5985248729648965038998737716495
198,15682.7995462718284221687002703001985,15681.2,1.5995462718284221687002703001985
199,15841.6005625538209383137215248082948,15840.0,1.6005625538209383137215248082948
200,16001.2015737708242087551858566997112,15999.6,1.6015737708242087551858566997112
201,16161.6025799739551514941281828797067,16160.0,1.6025799739551514941281828797067
202,16322.8035812135813588791065098302322,16321.2,1.6035812135813588791065098302322
203,16484.8045775393362443039965784070369,16483.2,1.6045775393362443039965784070369
204,16647.6055690001338272761101832607732,16646.0,1.6055690001338272761101832607732
205,16811.2065556441831670498348994739047,16809.6,1.6065556441831670498348994739047
206,16975.6075375190024580844528840572812,16974.0,1.6075375190024580844528840572812
207,17140.8085146714327934471875852001502,17139.2,1.6085146714327934471875852001502
208,17306.8094871476516106443776759607602,17305.2,1.6094871476516106443776759607602
209,17473.6104549931858258966844278211900,17472.0,1.6104549931858258966844278211900
210,17641.2114182529246686391708179230017,17639.6,1.6114182529246686391708179230017
211,17809.6123769711322239032762300938173,17808.0,1.6123769711322239032762300938173
212,17978.8133311914596931192602940730238,17977.2,1.6133311914596931192602940730238
213,18148.8142809569573780426617679107219,18147.2,1.6142809569573780426617679107219
214,18319.6152263100864031209051444584775,18318.0,1.6152263100864031209051444584775
215,18491.2161672927301758624064430680172,18489.6,1.6161672927301758624064430680172
216,18663.6171039462055995351829757059215,18662.0,1.6171039462055995351829757059215
217,18836.8180363112740425438654610715076,18835.2,1.6180363112740425438654610715076
218,19010.8189644281520738656536312542352,19009.2,1.6189644281520738656536312542352
219,19185.6198883365219682454258526187325,19184.0,1.6198883365219682454258526187325
220,19361.2208080755419941056152510199351,19359.6,1.6208080755419941056152510199351
221,19537.6217236838564825419604507965016,19536.0,1.6217236838564825419604507965016
222,19714.8226351996056950937234922539094,19713.2,1.6226351996056950937234922539094
223,19892.8235426604354843641816717796432,19891.2,1.6235426604354843641816717796432
224,20071.6244461035067630905621898633549,20070.0,1.6244461035067630905621898633549
225,20251.2253455655047847862869324572468,20249.6,1.6253455655047847862869324572468
226,20431.6262410826482400875104945410019,20430.0,1.6262410826482400875104945410019
227,20612.8271326906981780702922476563438,20611.2,1.6271326906981780702922476563438
228,20794.8280204249667550030787265194209,20793.2,1.6280204249667550030787265194209
229,20977.6289043203258183739205476925398,20976.0,1.6289043203258183739205476925398
230,21161.2297844112153316005615313890810,21159.6,1.6297844112153316005615313890810
231,21345.6306607316516419712217505808126,21344.0,1.6306607316516419712217505808126
232,21530.8315333152356030222886142755069,21529.2,1.6315333152356030222886142755069
233,21716.8324021951605471767006297316967,21715.2,1.6324021951605471767006297316967
234,21903.6332674042201256707954633408144,21902.0,1.6332674042201256707954633408144
235,22091.2341289748160098683480347654301,22089.6,1.6341289748160098683480347654301
236,22279.6349869389654646369042282559537,22278.0,1.6349869389654646369042282559537
237,22468.8358413283087984344417228708675,22467.2,1.6358413283087984344417228708675
238,22658.8366921741166929199605814825912,22657.2,1.6366921741166929199605814825912
