Eigenstate,Energy,Kinetic Energy,Potential Energy
1,0.500000000106739038389966313121487306,0.0,0.500000000106739038389966313121487306
2,1.84623093834785356507575692850253393,1.2,0.64623093834785356507575692850253393
3,3.93633761175159961621141903055661641,3.2,0.73633761175159961621141903055661641
4,6.79966528207715026254873578396113760,6.0,0.79966528207715026254873578396113760
5,10.4480465826699813737351386017118925,9.6,0.8480465826699813737351386017118925
6,14.8870660082969119781743903417795347,14.0,0.8870660082969119781743903417795347
7,20.1197208404018436037153057532210028,19.2,0.9197208404018436037153057532210028
8,26.1477838653647843457532179744173763,25.2,0.9477838653647843457532179744173763
9,32.9723835821938393052479094544011615,32.0,0.9723835821938393052479094544011615
10,40.5942802450387823345176413013919964,39.6,0.9942802450387823345176413013919964
11,49.0140094240415188805427406544147968,48.0,1.0140094240415188805427406544147968
12,58.2319622145073571101029752110818355,57.2,1.0319622145073571101029752110818355
13,68.2484327465026756547080550598979393,67.2,1.0484327465026756547080550598979393
14,79.0636477177111288519653285720847445,78.0,1.0636477177111288519653285720847445
15,90.6777855092478580074232318003781748,89.6,1.0777855092478580074232318003781748
16,103.090988990529953101370910819408752,102.0,1.090988990529953101370910819408752
17,116.303374352737968054897131009870099,115.2,1.103374352737968054897131009870099
18,130.315037359822127616856088363575625,129.2,1.115037359822127616856088363575625
19,145.126057871606310169275911636083861,144.0,1.126057871606310169275911636083861
20,160.736503181421987881451236202865006,159.6,1.136503181421987881451236202865006
21,177.146430522189926598519119191789068,176.0,1.146430522189926598519119191789068
22,194.355888977578927990771603768282416,193.2,1.155888977578927990771603768282416
23,212.364920959942355734629328976777348,211.2,1.164920959942355734629328976777348
24,231.173563367718558845459062078376030,230.0,1.173563367718558845459062078376030
25,250.781848502226798986228375120056886,249.6,1.181848502226798986228375120056886
26,271.189804801474838945567396877580412,270.0,1.189804801474838945567396877580412
27,292.397457433121519058843059035789516,291.2,1.197457433121519058843059035789516
28,314.404828777835797523932802083273760,313.2,1.204828777835797523932802083273760
29,337.211938826498702733017228440021007,336.0,1.211938826498702733017228440021007
30,360.818805509045158166181086170127616,359.6,1.218805509045158166181086170127616
31,385.225444968596701888090793141931397,384.0,1.225444968596701888090793141931397
32,410.431871791458223101087119407967335,409.2,1.231871791458223101087119407967335
33,436.438099201242190401566991553079279,435.2,1.238099201242190401566991553079279
34,463.244139223633300118657138646695644,462.0,1.244139223633300118657138646695644
35,490.850002826967278047214130229325069,489.6,1.250002826967278047214130229325069
36,519.255700042764089007690595958422228,518.0,1.255700042764089007690595958422228
37,548.461240069551724116180518569142436,547.2,1.261240069551724116180518569142436
38,578.466631362686316904275974415119419,577.2,1.266631362686316904275974415119419
39,609.271881712376490778436533299906447,608.0,1.271881712376490778436533299906447
40,640.876998311724019524707818657816155,639.6,1.276998311724019524707818657816155
41,673.281987816276132290655530572930622,672.0,1.281987816276132290655530572930622
42,706.486856396329801874680555160624236,705.2,1.286856396329801874680555160624236
43,740.491609783021868807810176385773108,739.2,1.291609783021868807810176385773108
44,775.296253309070759697433539477419081,774.0,1.296253309070759697433539477419081
45,810.900791944897988733354946969935122,809.6,1.300791944897988733354946969935122
46,847.305230330744494973866685675819507,846.0,1.305230330744494973866685675819507
47,884.509572805303391417148127103976823,883.2,1.309572805303391417148127103976823
48,922.513823431313115498998785993380133,921.2,1.313823431313115498998785993380133
49,961.317986018490308113974439812001360,960.0,1.317986018490308113974439812001360
50,1000.92206414412762554330777217659846,999.6,1.32206414412762554330777217659846
51,1041.32606117163622171049445952515251,1040.0,1.32606117163622171049445952515251
52,1082.52998026727429297110245669400965,1081.2,1.32998026727429297110245669400965
53,1124.53382441527062752479668731895832,1123.2,1.33382441527062752479668731895832
54,1167.33759643152454040609907451717648,1166.0,1.33759643152454040609907451717648
55,1210.94129897604009951787804863038170,1209.6,1.34129897604009951787804863038170
56,1255.34493456423247360142511450354849,1254.0,1.34493456423247360142511450354849
57,1300.54850557722703407184711018165511,1299.2,1.34850557722703407184711018165511
58,1346.55201427125704546120412753319128,1345.2,1.35201427125704546120412753319128
59,1393.35546278625302526454012030223303,1392.0,1.35546278625302526454012030223303
60,1440.95885315370582947624577079686841,1439.6,1.35885315370582947624577079686841
61,1489.36218730387595587668310516970923,1488.0,1.36218730387595587668310516970923
62,1538.56546707241325612388385098403942,1537.2,1.36546707241325612388385098403942
63,1588.56869420644400581610900571974598,1587.2,1.36869420644400581610900571974598
64,1639.37187037017596921113185702360822,1638.0,1.37187037017596921113185702360822
65,1690.97499715006656044813156059739183,1689.6,1.37499715006656044813156059739183
66,1743.37807605959435577902737484971726,1742.0,1.37807605959435577902737484971726
67,1796.58110854366994902475621101730880,1795.2,1.38110854366994902475621101730880
68,1850.58409598271838631118577533515486,1849.2,1.38409598271838631118577533515486
69,1905.38703969646210346862754434931036,1904.0,1.38703969646210346862754434931036
70,1960.98994094743036121064778970988130,1959.6,1.38994094743036121064778970988130
71,2017.39280094421857450414383347892219,2016.0,1.39280094421857450414383347892219
72,2074.59562084451863430027061037942081,2073.2,1.39562084451863430027061037942081
73,2132.59840175793926678939955734967867,2131.2,1.39840175793926678939955734967867
74,2191.40114474863365649473744193023395,2190.0,1.40114474863365649473744193023395
75,2251.00385083774992841812991216732991,2249.6,1.40385083774992841812991216732991
76,2311.40652100571863489481805474513826,2310.0,1.40652100571863489481805474513826
77,2372.60915619439009041549845296793946,2371.2,1.40915619439009041549845296793946
78,2434.61175730903323187585639336144888,2433.2,1.41175730903323187585639336144888
79,2497.41432522020663489374935081553595,2496.0,1.41432522020663489374935081553595
80,2561.01686076551137870857306517639807,2559.6,1.41686076551137870857306517639807
81,2625.41936475123460283586632764479888,2624.0,1.41936475123460283586632764479888
82,2690.62183795389183719965637029057485,2689.2,1.42183795389183719965637029057485
83,2756.62428112167549873125729507308989,2755.2,1.42428112167549873125729507308989
84,2823.42669497581632313151783579128779,2822.0,1.42669497581632313151783579128779
85,2891.02908021186394121734110467975181,2889.6,1.42908021186394121734110467975181
86,2959.43143750089229340790941079856979,2958.0,1.43143750089229340790941079856979
87,3028.63376749063511843524807233426956,3027.2,1.43376749063511843524807233426956
88,3098.63607080655632898602569534027025,3097.2,1.43607080655632898602569534027025
89,3169.43834805285970347932784709384482,3168.0,1.43834805285970347932784709384482
90,3241.04059981344197996841128354068715,3239.6,1.44059981344197996841128354068715
91,3313.44282665279311670239590609223813,3312.0,1.44282665279311670239590609223813
92,3386.64502911684719558631220738097017,3385.2,1.44502911684719558631220738097017
93,3460.64720773378718252286699766164128,3459.2,1.44720773378718252286699766164128
94,3535.44936301480651569055196217333499,3534.0,1.44936301480651569055196217333499
95,3611.05149545483027165869112877968555,3609.6,1.45149545483027165869112877968555
96,3687.45360553319845741790687453125226,3686.0,1.45360553319845741790687453125226
97,3764.65569371431379206237522803324788,3763.2,1.45569371431379206237522803324788
98,3842.65776044825616898594615750309063,3841.2,1.45776044825616898594615750309063
99,3921.45980617136583598201646975613592,3920.0,1.45980617136583598201646975613592
100,4001.06183130679718429662659506152291,3999.6,1.46183130679718429662659506152291
101,4081.46383626504490838009871807040304,4080.0,1.46383626504490838009871807040304
102,4162.66582144444417250781293876328989,4161.2,1.46582144444417250781293876328989
103,4244.66778723164631252710516609268682,4243.2,1.46778723164631252710516609268682
104,4327.46973400207149372256178857364912,4326.0,1.46973400207149372256178857364912
105,4411.07166212033965271822751394609143,4409.6,1.47166212033965271822751394609143
106,4495.47357194068096057100154949069510,4494.0,1.47357194068096057100154949069510
107,4580.67546380732696612754080179630041,4579.2,1.47546380732696612754080179630041
108,4666.67733805488349947743560345590992,4665.2,1.47733805488349947743560345590992
109,4753.47919500868634674188955229751602,4752.0,1.47919500868634674188955229751602
110,4841.08103498514064501701018180107687,4839.6,1.48103498514064501701018180107687
111,4929.48285829204488042961936147379197,4928.0,1.48285829204488042961936147379197
112,5018.68466522890032282985931395863600,5017.2,1.48466522890032282985931395863600
113,5108.68645608720667510907637757674825,5107.2,1.48645608720667510907637757674825
114,5199.48823115074466637370879899994550,5198.0,1.48823115074466637370879899994550
115,5291.08999069584627775740281159704296,5289.6,1.48999069584627775740281159704296
116,5383.49173499165324132193364353633164,5382.0,1.49173499165324132193364353633164
117,5476.69346430036442078450146079428389,5475.2,1.49346430036442078450146079428389
118,5570.69517887747264177786762607485876,5569.2,1.49517887747264177786762607485876
119,5665.49687897199150563608046078157193,5664.0,1.49687897199150563608046078157193
120,5761.09856482667269485630575775991657,5759.6,1.49856482667269485630575775991657
121,5857.50023667821424012003306583072025,5856.0,1.50023667821424012003306583072025
122,5954.70189475746019984379680012702070,5953.2,1.50189475746019984379680012702070
123,6052.70353928959217103661989532207085,6051.2,1.50353928959217103661989532207085
124,6151.50517049431303256157915221718795,6150.0,1.50517049431303256157915221718795
125,6251.10678858602329233262974651973555,6249.6,1.50678858602329233262974651973555
126,6351.50839377399039478052838162975291,6350.0,1.50839377399039478052838162975291
127,6452.70998626251132434380953647398923,6451.2,1.50998626251132434380953647398923
128,6554.71156625106881815357962105704153,6553.2,1.51156625106881815357962105704153
129,6657.51313393448148900765652185185280,6656.0,1.51313393448148900765652185185280
130,6761.11468950304814134771501378465224,6759.6,1.51468950304814134771501378465224
131,6865.51623314268654754898168869594757,6864.0,1.51623314268654754898168869594757
132,6970.71776503506693685482275674751104,6969.2,1.51776503506693685482275674751104
133,7076.71928535774043750698365148104650,7075.2,1.51928535774043750698365148104650
134,7183.52079428426270134628325152079453,7182.0,1.52079428426270134628325152079453
135,7291.12229198431292205022206513172329,7289.6,1.52229198431292205022206513172329
136,7399.52377862380845448643427449323990,7398.0,1.52377862380845448643427449323990
137,7508.72525436501522935297162245242393,7507.2,1.52525436501522935297162245242393
138,7618.72671936665414366441611012254910,7617.2,1.52671936665414366441611012254910
139,7729.52817378400360553691419828011017,7728.0,1.52817378400360553691419828011017
140,7841.12961776899839627925760448012506,7839.6,1.52961776899839627925760448012506
141,7953.53105147032500823964607749232986,7952.0,1.53105147032500823964607749232986
142,8066.73247503351360878450226203453665,8065.2,1.53247503351360878450226203453665
143,8180.73388860102677213553914066638276,8179.2,1.53388860102677213553914066638276
144,8295.53529231234511361164508857211470,8294.0,1.53529231234511361164508857211470
145,8411.13668630404995663439270305735190,8409.6,1.53668630404995663439270305735190
146,8527.53807070990315498722817696018991,8526.0,1.53807070990315498722817696018991
147,8644.73944566092418461543210944156702,8643.2,1.53944566092418461543210944156702
148,8762.74081128546462029591034374250361,8761.2,1.54081128546462029591034374250361
149,8881.54216770928009897780070150797313,8880.0,1.54216770928009897780070150797313
150,9001.14351505559987343480337990590060,8999.6,1.54351505559987343480337990590060
151,9121.54485344519405214352254419191143,9120.0,1.54485344519405214352254419191143
152,9242.74618299643861568702012846513547,9241.2,1.54618299643861568702012846513547
153,9364.74750382537829863330903121376706,9363.2,1.54750382537829863330903121376706
154,9487.54881604578742078806093510760103,9486.0,1.54881604578742078806093510760103
155,9611.15011976922874605755531890328204,9609.6,1.55011976922874605755531890328204
156,9735.55141510511044678826779593860182,9734.0,1.55141510511044678826779593860182
157,9860.75270216074124462973511790046206,9859.2,1.55270216074124462973511790046206
158,9986.75398104138379973883495212196300,9985.2,1.55398104138379973883495212196300
159,10113.5552518503064119983494960826377,10112.0,1.5552518503064119983494960826377
160,10241.1565146888331005873888644734785,10239.6,1.5565146888331005873888644734785
161,10369.5577696563921203998316416846449,10368.0,1.5577696563921203998316416846449
162,10498.7590168505629747719214991264353,10497.2,1.5590168505629747719214991264353
163,10628.7602563671219793723578410424745,10627.2,1.5602563671219793723578410424745
164,10759.5614883000864318915158691536011,10758.0,1.5614883000864318915158691536011
165,10891.1627127417574361300539787998961,10889.6,1.5627127417574361300539787998961
166,11023.5639297827614310025399306172370,11022.0,1.5639297827614310025399306172370
167,11156.7651395120904716884575964095853,11155.2,1.5651395120904716884575964095853
168,11290.7663420171413056195531964876355,11289.2,1.5663420171413056195531964876355
169,11425.5675373837532883656564548258905,11424.0,1.5675373837532883656564548258905
170,11561.1687256962451791621393640431606,11559.6,1.5687256962451791621393640431606
171,11697.5699070374508562735216776522118,11696.0,1.5699070374508562735216776522118
172,11834.7710814887539900599296420806870,11833.2,1.5710814887539900599296420806870
173,11972.7722491301217091487894477425462,11971.2,1.5722491301217091487894477425462
174,12111.5734100401372955553218979291596,12110.0,1.5734100401372955553218979291596
175,12251.1745642960319427368233534730148,12249.6,1.5745642960319427368233534730148
176,12391.5757119737156062871406847586505,12390.0,1.5757119737156062871406847586505
177,12532.7768531478069805319338369439765,12531.2,1.5768531478069805319338369439765
178,12674.7779878916626301791783182677885,12673.2,1.5779878916626301791783182677885
179,12817.5791162774053034699131762594850,12816.0,1.5791162774053034699131762594850
180,12961.1802383759514577756925358286030,12959.6,1.5802383759514577756925358286030
181,13105.5813542570380202913886735057695,13104.0,1.5813542570380202913886735057695
182,13250.7824639892484115187942648817483,13249.2,1.5824639892484115187942648817483
183,13396.7835676400378545903630521570681,13395.2,1.5835676400378545903630521570681
184,13543.5846652757579946746897634091534,13542.0,1.5846652757579946746897634091534
185,13691.1857569616808502719212044875117,13689.6,1.5857569616808502719212044875117
186,13839.5868427620221173677848670969119,13838.0,1.5868427620221173677848670969119
187,13988.7879227399638502468049160809685,13987.2,1.5879227399638502468049160809685
188,14138.7889969576765344010905036362964,14137.2,1.5889969576765344010905036362964
189,14289.5900654763405752658580805319744,14288.0,1.5900654763405752658580805319744
190,14441.1911283561672184328372995683171,14439.6,1.5911283561672184328372995683171
191,14593.5921856564189205641864105695688,14592.0,1.5921856564189205641864105695688
192,14746.7932374354291873891939336998441,14745.2,1.5932374354291873891939336998441
193,14900.7942837506218970876909170711651,14899.2,1.5942837506218970876909170711651
194,15055.5953246585301224010331104502631,15054.0,1.5953246585301224010331104502631
195,15211.1963602148144694030904582576896,15209.6,1.5963602148144694030904582576896
196,15367.5973904742809466232233321793705,15366.0,1.5973904742809466232233321793705
197,15524.7984154908983788966477814939668,15523.2,1.5984154908983788966477814939668
198,15682.7994353178153801042516759809759,15681.2,1.5994353178153801042516759809759
199,15841.6004500073768976358007768886701,15840.0,1.6004500073768976358007768886701
200,16001.2014596111403425168200714908588,15999.6,1.6014596111403425168200714908588
201,16161.6024641798913161756559299843870,16160.0,1.6024641798913161756559299843870
202,16322.8034637636589472269616256632696,16321.2,1.6034637636589472269616256632696
203,16484.8044584117308489264170811809216,16483.2,1.6044584117308489264170811809216
204,16647.6054481726677089116800193178150,16646.0,1.6054481726677089116800193178150
205,16811.2064330943175211950153307945120,16809.6,1.6064330943175211950153307945120
206,16975.6074132238294734264386772193494,16974.0,1.6074132238294734264386772193494
207,17140.8083886076674952981400058078443,17139.2,1.6083886076674952981400058078443
208,17306.8093592916234823117343016139941,17305.2,1.6093592916234823117343016139941
209,17473.6103253208302006513136251220884,17472.0,1.6103253208302006513136251220884
210,17641.2112867397738846580466839287638,17639.6,1.6112867397738846580466839287638
211,17809.6122435923065342654325552080619,17808.0,1.6122435923065342654325552080619
212,17978.8131959216579226224846231895254,17977.2,1.6131959216579226224846231895254
213,18148.8141437704473182828882358679197,18147.2,1.6141437704473182828882358679197
214,18319.6150871806949369359733320803833,18318.0,1.6150871806949369359733320803833
215,18491.2160261938331218858882082826874,18489.6,1.6160261938331218858882082826874
216,18663.6169608507172672335901518347106,18662.0,1.6169608507172672335901518347106
217,18836.8178911916364877208529240226063,18835.2,1.6178911916364877208529240226063
218,19010.8188172563240442089048107042325,19009.2,1.6188172563240442089048107042325
219,19185.6197390839675280647999847040979,19184.0,1.6197390839675280647999847040979
220,19361.2206567132188169638172699120151,19359.6,1.6206567132188169638172699120151
221,19537.6215701822038000103487202356860,19536.0,1.6215701822038000103487202356860
222,19714.8224795285318893748185415024810,19713.2,1.6224795285318893748185415024810
223,19892.8233847893053120076397819536176,19891.2,1.6233847893053120076397819536176
224,20071.6242860011281964896888132859419,20070.0,1.6242860011281964896888132859419
225,20251.2251832001154575760238249295263,20249.6,1.6251832001154575760238249295263
226,20431.6260764219014819709756726236513,20430.0,1.6260764219014819709756726236513
227,20612.8269657016486239776469078803217,20611.2,1.6269657016486239776469078803217
228,20794.8278510740555128322146770398803,20793.2,1.6278510740555128322146770398803
229,20977.6287325733651788753768949218027,20976.0,1.6287325733651788753768949218027
230,21161.2296102333730032473793182919553,21159.6,1.6296102333730032473793182919553
231,21345.6304840874344928960923447011115,21344.0,1.6304840874344928960923447011115
232,21530.8313541684728913072574965416554,21529.2,1.6313541684728913072574965416554
233,21716.8322205089866199426136766509773,21715.2,1.6322205089866199426136766509773
234,21903.6330831410565665321770949667616,21902.0,1.6330831410565665321770949667616
235,22091.2339420963532133919865686872350,22089.6,1.6339420963532133919865686872350
236,22279.6347974061436154662993530950123,22278.0,1.6347974061436154662993530950123
237,22468.8356491012982317145843562956045,22467.2,1.6356491012982317145843562956045
238,22658.8364972122976115745478599846503,22657.2,1.6364972122976115745478599846503
