Eigenstate,Energy,Kinetic Energy,Potential Energy
1,0.500000000021334189362805779890050933,0.0,0.500000000021334189362805779890050933
2,1.84623093779037301894028072457974576,1.2,0.64623093779037301894028072457974576
3,3.93633761011403546417486413187490121,3.2,0.73633761011403546417486413187490121
4,6.79966527866626249303308954976162359,6.0,0.79966527866626249303308954976162359
5,10.4480465767615625819608735051624060,9.6,0.8480465767615625819608735051624060
6,14.8870659991540402157865671735889318,14.0,0.8870659991540402157865671735889318
7,20.1197208272816022537258613320723143,19.2,0.9197208272816022537258613320723143
8,26.1477838475210595533441422828583512,25.2,0.9477838475210595533441422828583512
9,32.9723835588786161591728218329398119,32.0,0.9723835588786161591728218329398119
10,40.5942802155027984721525401665969382,39.6,0.9942802155027984721525401665969382
11,49.0140093875346155914910687999077759,48.0,1.0140093875346155914910687999077759
12,58.2319621702786762838450088661505529,57.2,1.0319621702786762838450088661505529
13,68.2484326938007727993280825476360819,67.2,1.0484326938007727993280825476360819
14,79.0636476557840378057439301726723208,78.0,1.0636476557840378057439301726723208
15,90.6777854373431265016559529821603545,89.6,1.0777854373431265016559529821603545
16,103.090988907894660007272266698382881,102.0,1.090988907894660007272266698382881
17,116.303374258618728710045485354070811,115.2,1.103374258618728710045485354070811
18,130.315037253465091151198260786517349,129.2,1.115037253465091151198260786517349
19,145.126057752257151313615417469373294,144.0,1.126057752257151313615417469373294
20,160.736503048325894877255263298071982,159.6,1.136503048325894877255263298071982
21,177.146430374591586291915095401420338,176.0,1.146430374591586291915095401420338
22,194.355888814722508851818829699280917,193.2,1.155888814722508851818829699280917
23,212.364920781071489319508653210976812,211.2,1.164920781071489319508653210976812
24,231.173563172076320069839339395844692,230.0,1.173563172076320069839339395844692
25,250.781848289055685476150493878061271,249.6,1.181848289055685476150493878061271
26,271.189804570016749661359095131566697,270.0,1.189804570016749661359095131566697
27,292.397457182617732337520820508197883,291.2,1.197457182617732337520820508197883
28,314.404828507526948649620015205947865,313.2,1.204828507526948649620015205947865
29,337.211938535624761118753828694290414,336.0,1.211938535624761118753828694290414
30,360.818805196845404211210000840521848,359.6,1.218805196845404211210000840521848
31,385.225444634309703560305898659395227,384.0,1.225444634309703560305898659395227
32,410.431871434321812283455653189300249,409.2,1.231871434321812283455653189300249
33,436.438098820493439033045367047296590,435.2,1.238098820493439033045367047296590
34,463.244138818508496153729817538442620,462.0,1.244138818508496153729817538442620
35,490.850002396701901253218067174964872,489.6,1.250002396701901253218067174964872
36,519.255699586592786615193152865948980,518.0,1.255699586592786615193152865948980
37,548.461239586708286334600212343957121,547.2,1.261239586708286334600212343957121
38,578.466630852403652312483706564358980,577.2,1.266630852403652312483706564358980
39,609.271881173886601598108170575774598,608.0,1.271881173886601598108170575774598
40,640.876997744257976782610463132461794,639.6,1.276997744257976782610463132461794
41,673.281987219064050874758660853019358,672.0,1.281987219064050874758660853019358
42,706.486855768600815487927010671780694,705.2,1.286855768600815487927010671780694
43,740.491609124004104822512870788924704,739.2,1.291609124004104822512870788924704
44,775.296252617991313912544845921760583,774.0,1.296252617991313912544845921760583
45,810.900791220982900036257314155479513,809.6,1.300791220982900036257314155479513
46,847.305229573218719907832488650818849,846.0,1.305229573218719907832488650818849
47,884.509572013390778655196121270457354,883.2,1.309572013390778655196121270457354
48,922.513822604236380224518733693244310,921.2,1.313822604236380224518733693244310
49,961.317985155471006308189494801573679,960.0,1.317985155471006308189494801573679
50,1000.92206324438612817938651842762620,999.6,1.32206324438612817938651842762620
51,1041.32606023439168885390322244372191,1040.0,1.32606023439168885390322244372191
52,1082.52997929174464778559803750955036,1081.2,1.32997929174464778559803750955036
53,1124.53382340067253018329471094490112,1123.2,1.33382340067253018329471094490112
54,1167.33759537707336190550936585377976,1166.0,1.33759537707336190550936585377976
55,1210.94129788094989539687291901637493,1209.6,1.34129788094989539687291901637493
56,1255.34493342771595755999596705231974,1254.0,1.34493342771595755999596705231974
57,1300.54850439849555149140735886640066,1299.2,1.34850439849555149140735886640066
58,1346.55201304952054682390942891688113,1345.2,1.35201304952054682390942891688113
59,1393.35546152072003947042000100490247,1392.0,1.35546152072003947042000100490247
60,1440.95885184358343705667101859325940,1439.6,1.35885184358343705667101859325940
61,1489.36218594836976210263077783558097,1488.0,1.36218594836976210263077783558097
62,1538.56546567072736400740476044114911,1537.2,1.36546567072736400740476044114911
63,1588.56869275778098900335077053293390,1587.2,1.36869275778098900335077053293390
64,1639.37186887373684476522311577360985,1638.0,1.37186887373684476522311577360985
65,1690.97499560505076152018868733483660,1689.6,1.37499560505076152018868733483660
66,1743.37807446519970416550456228579048,1742.0,1.37807446519970416550456228579048
67,1796.58110689909262760932163916803715,1795.2,1.38110689909262760932163916803715
68,1850.58409428715291138927090620454659,1849.2,1.38409428715291138927090620454659
69,1905.38703794910129695276266126298117,1904.0,1.38703794910129695276266126298117
70,1960.98993914746532271466549175830133,1959.6,1.38993914746532271466549175830133
71,2017.39279909083865330430102813490355,2016.0,1.39279909083865330430102813490355
72,2074.59561893691140117131105996769728,2073.2,1.39561893691140117131105996769728
73,2132.59839979529048571355036347720556,2131.2,1.39839979529048571355036347720556
74,2191.40114273012725624160610559418245,2190.0,1.40114273012725624160610559418245
75,2251.00384876256797399344187225213000,2249.6,1.40384876256797399344187225213000
76,2311.40651887304129885590930911188847,2310.0,1.40651887304129885590930911188847
77,2372.60915400339562405145241857166406,2371.2,1.40915400339562405145241857166406
78,2434.61175505889793625014947232578450,2433.2,1.41175505889793625014947232578450
79,2497.41432291010483174724538129488332,2496.0,1.41432291010483174724538129488332
80,2561.01685839461538122068300482977361,2559.6,1.41685839461538122068300482977361
81,2625.41936231871468624166533819002869,2624.0,1.41936231871468624166533819002869
82,2690.62183545891620926072707481066863,2689.2,1.42183545891620926072707481066863
83,2756.62427856341027005800442572266759,2755.2,1.42427856341027005800442572266759
84,2823.42669235342547735467598671650167,2822.0,1.42669235342547735467598671650167
85,2891.02907752450930500637379343460914,2889.6,1.42907752450930500637379343460914
86,2959.43143474773350633397442163311325,2958.0,1.43143474773350633397442163311325
87,3028.63376467082960267638012912784930,3027.2,1.43376467082960267638012912784930
88,3098.63606791925925887216436846743225,3097.2,1.43606791925925887216436846743225
89,3169.43834509722397487479449692614479,3168.0,1.43834509722397487479449692614479
90,3241.04059678861817948941526601791901,3239.6,1.44059678861817948941526601791901
91,3313.44282355792949076712598168225750,3312.0,1.44282355792949076712598168225750
92,3386.64502595108961929514508763257169,3385.2,1.44502595108961929514508763257169
93,3460.64720449627912836620033382045604,3459.2,1.44720449627912836620033382045604
94,3535.44935970468902208174455868243175,3534.0,1.44935970468902208174455868243175
95,3611.05149207124191128956813040273433,3609.6,1.45149207124191128956813040273433
96,3687.45360207527530543426265496266182,3686.0,1.45360207527530543426265496266182
97,3764.65569018118939405688096556672971,3763.2,1.45569018118939405688096556672971
98,3842.65775683906150880584367941739919,3841.2,1.45775683906150880584367941739919
99,3921.45980248522930334895352718624106,3920.0,1.45980248522930334895352718624106
100,4001.06182754284454223596253771051831,3999.6,1.46182754284454223596253771051831
101,4081.46383242239926045698272226451857,4080.0,1.46383242239926045698272226451857
102,4162.66581752222592986730980322623501,4161.2,1.46581752222592986730980322623501
103,4244.66778322897316073561665811462101,4243.2,1.46778322897316073561665811462101
104,4327.46972991805835940776274888940691,4326.0,1.46972991805835940776274888940691
105,4411.07165795409867000470887599016175,4409.6,1.47165795409867000470887599016175
106,4495.47356769132143730878291959285433,4494.0,1.47356769132143730878291959285433
107,4580.67545947395534991058679610904311,4579.2,1.47545947395534991058679610904311
108,4666.67733363660334344928047530199850,4665.2,1.47733363660334344928047530199850
109,4753.47919050459827518544474652987982,4752.0,1.47919050459827518544474652987982
110,4841.08103039434231872559935101733211,4839.6,1.48103039434231872559935101733211
111,4929.48285361363096185625459672642941,4928.0,1.48285361363096185625459672642941
112,5018.68466046196244101174107067817232,5017.2,1.48466046196244101174107067817232
113,5108.68645123083339036426800432002769,5107.2,1.48645123083339036426800432002769
114,5199.48822620402143476690451252334500,5198.0,1.48822620402143476690451252334500
115,5291.08998565785541533167533871310428,5289.6,1.48998565785541533167533871310428
116,5383.49172986147388809331452694529756,5382.0,1.49172986147388809331452694529756
117,5476.69345907707250449621368123534778,5475.2,1.49345907707250449621368123534778
118,5570.69517356014084141099589812530583,5569.2,1.49517356014084141099589812530583
119,5665.49687355968921467343014792769586,5664.0,1.49687355968921467343014792769586
120,5761.09855931846598429616593032175579,5759.6,1.49855931846598429616593032175579
121,5857.50023107316582123652377219565073,5856.0,1.50023107316582123652377219565073
122,5954.70188905462938669044437071526000,5953.2,1.50188905462938669044437071526000
123,6052.70353348803484268976716141977919,6051.2,1.50353348803484268976716141977919
124,6151.50516459308159510020046311006252,6150.0,1.50516459308159510020046311006252
125,6251.10678258416664055108222259800003,6249.6,1.50678258416664055108222259800003
126,6351.50838767055387363073282866447616,6350.0,1.50838767055387363073282866447616
127,6452.70998005653669010331506340588879,6451.2,1.50998005653669010331506340588879
128,6554.71155994159419931592639091240639,6553.2,1.51155994159419931592639091240639
129,6657.51312752054134689141064294737336,6656.0,1.51312752054134689141064294737336
130,6761.11468298367323042050892832614578,6759.6,1.51468298367323042050892832614578
131,6865.51622651690387546285149985628576,6864.0,1.51622651690387546285149985628576
132,6970.71775830189972418909151834625377,6969.2,1.51775830189972418909151834625377
133,7076.71927851620807721489769500099831,7075.2,1.51927851620807721489769500099831
134,7183.52078733338071790156395114772687,7182.0,1.52078733338071790156395114772687
135,7291.12228492309293028965173159593236,7289.6,1.52228492309293028965173159593236
136,7399.52377145125811814455024178311099,7398.0,1.52377145125811814455024178311099
137,7508.72524708013821928489632136375372,7507.2,1.52524708013821928489632136375372
138,7618.72671196845009575280503794900614,7617.2,1.52671196845009575280503794900614
139,7729.52816627146807827895646885146425,7728.0,1.52816627146807827895646885146425
140,7841.12961014112282804961591332447065,7839.6,1.52961014112282804961591332447065
141,7953.53104372609667422517476106582618,7952.0,1.53104372609667422517476106582618
142,8066.73246717191557758653220807106356,8065.2,1.53246717191557758653220807106356
143,8180.73388062103786203546869992736839,8179.2,1.53388062103786203546869992736839
144,8295.53528421293984849552502451221589,8294.0,1.53528421293984849552502451221589
145,8411.13667808419852157214185043339105,8409.6,1.53667808419852157214185043339105
146,8527.53806236857135146206355629369257,8526.0,1.53806236857135146206355629369257
147,8644.73943719707338539904434511402856,8643.2,1.53943719707338539904434511402856
148,8762.74080269805172396486105381732390,8761.2,1.54080269805172396486105381732390
149,8881.54215899725748406656299837938629,8880.0,1.54215899725748406656299837938629
150,9001.14350621791535222081193741413141,8999.6,1.54350621791535222081193741413141
151,9121.54484448079082405954138812424674,9120.0,1.54484448079082405954138812424674
152,9242.74617390425522035608001060788151,9241.2,1.54617390425522035608001060788151
153,9364.74749460434856852140701967014935,9363.2,1.54749460434856852140701967014935
154,9487.54880669484043346975558272064895,9486.0,1.54880669484043346975558272064895
155,9611.15011028728877608953044856297397,9609.6,1.55011028728877608953044856297397
156,9735.55140549109691718587596768828347,9734.0,1.55140549109691718587596768828347
157,9860.75269241356867794147056350839458,9859.2,1.55269241356867794147056350839458
158,9986.75397115996176871362134210017302,9985.2,1.55397115996176871362134210017302
159,10113.5552418335394898404644380396138,10112.0,1.5552418335394898404644380396138
160,10241.1565045356208107937810482662780,10239.6,1.5565045356208107937810482662780
161,10369.5577593656288861745203144332024,10368.0,1.5577593656288861745203144332024
162,10498.7590064211380680121006248204645,10497.2,1.5590064211380680121006248204645
163,10628.7602457979194692207588678505355,10627.2,1.5602457979194692207588678505355
164,10759.5614775899851328495128028762136,10758.0,1.5614775899851328495128028762136
165,10891.1627018896308557259243975571064,10889.6,1.5627018896308557259243975571064
166,11023.5639187874777170092230170326095,11022.0,1.5639187874777170092230170326095
167,11156.7651283725123588850781202774870,11155.2,1.5651283725123588850781202774870
168,11290.7663307321260620909051395493969,11289.2,1.5663307321260620909051395493969
169,11425.5675259521526613337652920612924,11424.0,1.5675259521526613337652920612924
170,11561.1687141169053403439451755950285,11559.6,1.5687141169053403439451755950285
171,11697.5698953092123467586470967538730,11696.0,1.5698953092123467586470967538730
172,11834.7710696104516647024181623706413,11833.2,1.5710696104516647024181623706413
173,11972.7722371005846804666190051668452,11971.2,1.5722371005846804666190051668452
174,12111.5733978581888771314162659611411,12110.0,1.5733978581888771314162659611411
175,12251.1745519604895921152018722338989,12249.6,1.5745519604895921152018722338989
176,12391.5756994833908673577620650610302,12390.0,1.5756994833908673577620650610302
177,12532.7768405015054253977036148109820,12531.2,1.5768405015054253977036148109820
178,12674.7779750881838004985034963338048,12673.2,1.5779750881838004985034963338048
179,12817.5791033155426512680978335385604,12816.0,1.5791033155426512680978335385604
180,12961.1802252544922857183789556311712,12959.6,1.5802252544922857183789556311712
181,13105.5813409747634214131567044820263,13104.0,1.5813409747634214131567044820263
182,13250.7824505449332083999392701487580,13249.2,1.5824505449332083999392701487580
183,13396.7835540324505379747773375462208,13395.2,1.5835540324505379747773375462208
184,13543.5846515036606615216774046264654,13542.0,1.5846515036606615216774046264654
185,13691.1857430238291412346773100460561,13689.6,1.5857430238291412346773100460561
186,13839.5868286571651536911729776255509,13838.0,1.5868286571651536911729776255509
187,13988.7879084668441700769633273994602,13987.2,1.5879084668441700769633273994602
188,14138.7889825150300284992971637225648,14137.2,1.5889825150300284992971637225648
189,14289.5900508628964221189790377294349,14288.0,1.5900508628964221189790377294349
190,14441.1911135706478187525779661559115,14439.6,1.5911135706478187525779661559115
191,14593.5921706975398311672565867336647,14592.0,1.5921706975398311672565867336647
192,14746.7932223018990544503888762268928,14745.2,1.5932223018990544503888762268928
193,14900.7942684411423887577788796698054,14899.2,1.5942684411423887577788796698054
194,15055.5953091717958607812269795311803,15054.0,1.5953091717958607812269795311803
195,15211.1963445495129618677657054193615,15209.6,1.5963445495129618677657054193615
196,15367.5973746290925164824278429037089,15366.0,1.5973746290925164824278429037089
197,15524.7983994644960953898300343566504,15523.2,1.5983994644960953898300343566504
198,15682.7994191088649877165129894746343,15681.2,1.5994191088649877165129894746343
199,15841.6004336145367447278538552151201,15840.0,1.6004336145367447278538552151201
200,16001.2014430330613092597116399500541,15999.6,1.6014430330613092597116399500541
201,16161.6024474152167417811844882748353,16160.0,1.6024474152167417811844882748353
202,16322.8034468110245564645901795690539,16321.2,1.6034468110245564645901795690539
203,16484.8044412697646779173517597268648,16483.2,1.6044412697646779173517597268648
204,16647.6054308399900301906498560023082,16646.0,1.6054308399900301906498560023082
205,16811.2064155695407680301536607974908,16809.6,1.6064155695407680301536607974908
206,16975.6073955055581633875274734062547,16974.0,1.6073955055581633875274734062547
207,17140.8083706944981530633382945537349,17139.2,1.6083706944981530633382945537349
208,17306.8093411821445617027690029723013,17305.2,1.6093411821445617027690029723013
209,17473.6103070136220058869647798961339,17472.0,1.6103070136220058869647798961339
210,17641.2112682334084908156117004562068,17639.6,1.6112682334084908156117004562068
211,17809.6122248853477069397038913021906,17808.0,1.6122248853477069397038913021906
212,17978.8131770126610367716213719023168,17977.2,1.6131770126610367716213719023168
213,18148.8141246579592762504064106283168,18147.2,1.6141246579592762504064106283168
214,18319.6150678632540856379219335296085,18318.0,1.6150678632540856379219335296085
215,18491.2160066699691691521166200547662,18489.6,1.6160066699691691521166200547662
216,18663.6169411189511972918471747000266,18662.0,1.6169411189511972918471747000266
217,18836.8178712504804758122931313984049,18835.2,1.6178712504804758122931313984049
218,19010.8187971042813703234069955995229,19009.2,1.6187971042813703234069955995229
219,19185.6197187195324897843286729147833,19184.0,1.6197187195324897843286729147833
220,19361.2206361348766414018845849782212,19359.6,1.6206361348766414018845849782212
221,19537.6215493884305548354540524928444,19536.0,1.6215493884305548354540524928444
222,19714.8224585177943929055609821940146,19713.2,1.6224585177943929055609821940146
223,19892.8233635600610423670144173115025,19891.2,1.6233635600610423670144173115025
224,20071.6242645518251998058885277627941,20070.0,1.6242645518251998058885277627941
225,20251.2251615291922552168768777005240,20249.6,1.6251615291922552168768777005240
226,20431.6260545277869767989537887816453,20430.0,1.6260545277869767989537887816453
227,20612.8269435827620056121814986772145,20611.2,1.6269435827620056121814986772145
228,20794.8278287288061619058543615253458,20793.2,1.6278287288061619058543615253458
229,20977.6287100001525702701153954306632,20976.0,1.6287100001525702701153954306632
230,21161.2295874305866082972734834099248,21159.6,1.6295874305866082972734834099248
231,21345.6304610534536805420756224632636,21344.0,1.6304610534536805420756224632636
232,21530.8313309016668281898387569235728,21529.2,1.6313309016668281898387569235728
233,21716.8321970077141694179292629948044,21715.2,1.6321970077141694179292629948044
234,21903.6330594036661865966395493781144,21902.0,1.6330594036661865966395493781144
235,22091.2339181211828535005450662920499,22089.6,1.6339181211828535005450662920499
236,22279.6347731915206122290931912083359,22278.0,1.6347731915206122290931912083359
237,22468.8356246455392034565339368074512,22467.2,1.6356246455392034565339368074512
238,22658.8364725137083517421859814579946,22657.2,1.6364725137083517421859814579946
