Eigenstate,Energy,Kinetic Energy,Potential Energy
1,0.500000000035579033305141465385823409,0.0,0.500000000035579033305141465385823409
2,1.84623093788335596219778741752780813,1.2,0.64623093788335596219778741752780813
3,3.93633761038716547361139354841816290,3.2,0.73633761038716547361139354841816290
4,6.79966527923516144787631391430423202,6.0,0.79966527923516144787631391430423202
5,10.4480465777470127229002408753765616,9.6,0.8480465777470127229002408753765616
6,14.8870660006789380798555100618266528,14.0,0.8870660006789380798555100618266528
7,20.1197208294698362151628558563973807,19.2,0.9197208294698362151628558563973807
8,26.1477838504970415948824149146690443,25.2,0.9477838504970415948824149146690443
9,32.9723835627670640378937330253470516,32.0,0.9723835627670640378937330253470516
10,40.5942802204286250601223494514955761,39.6,0.9942802204286250601223494514955761
11,49.0140093936228686693699786214477367,48.0,1.0140093936228686693699786214477367
12,58.2319621776545040445463801402976453,57.2,1.0319621776545040445463801402976453
13,68.2484327025894033483084125731202204,67.2,1.0484327025894033483084125731202204
14,79.0636476661107667163613486210806699,78.0,1.0636476661107667163613486210806699
15,90.6777854493333092299884139471810585,89.6,1.0777854493333092299884139471810585
16,103.090988921673707359403895480695905,102.0,1.090988921673707359403895480695905
17,116.303374274312104294945922116108724,115.2,1.103374274312104294945922116108724
18,130.315037271198310165197796497979751,129.2,1.115037271198310165197796497979751
19,145.126057772155780242170871587774092,144.0,1.126057772155780242170871587774092
20,160.736503070515551843821731961059818,159.6,1.136503070515551843821731961059818
21,177.146430399197941873130948447889540,176.0,1.146430399197941873130948447889540
22,194.355888841871287235216510527539322,193.2,1.155888841871287235216510527539322
23,212.364920810888469717230676498215181,211.2,1.164920810888469717230676498215181
24,231.173563204687338326753597512121165,230.0,1.173563204687338326753597512121165
25,250.781848324586635827756856060617498,249.6,1.181848324586635827756856060617498
26,271.189804608593586608691635568719549,270.0,1.189804608593586608691635568719549
27,292.397457224366472614598059357239255,291.2,1.197457224366472614598059357239255
28,314.404828552573673264986915018712226,313.2,1.204828552573673264986915018712226
29,337.211938584095617457020592575443129,336.0,1.211938584095617457020592575443129
30,360.818805248866608183709178404203014,359.6,1.218805248866608183709178404203014
31,385.225444690007541796390274367334798,384.0,1.225444690007541796390274367334798
32,410.431871493822644355771783778884297,409.2,1.231871493822644355771783778884297
33,436.438098883923699711500063769000340,435.2,1.238098883923699711500063769000340
34,463.244138885994697683931604407831472,462.0,1.244138885994697683931604407831472
35,490.850002468370635656003169137074037,489.6,1.250002468370635656003169137074037
36,519.255699662570728004494169566340917,518.0,1.255699662570728004494169566340917
37,548.461239667122193251428123373171925,547.2,1.261239667122193251428123373171925
38,578.466630937380370073201753450367179,577.2,1.266630937380370073201753450367179
39,609.271881263553064655503166004644641,608.0,1.271881263553064655503166004644641
40,640.876997838741211098530967857860649,639.6,1.276997838741211098530967857860649
41,673.281987318491176303303729523196905,672.0,1.281987318491176303303729523196905
42,706.486855873099048168344265976761824,705.2,1.286855873099048168344265976761824
43,740.491609233700759581108463824948687,739.2,1.291609233700759581108463824948687
44,775.296252733013806673026618213673664,774.0,1.296252733013806673026618213673664
45,810.900791341458750238031071860999831,809.6,1.300791341458750238031071860999831
46,847.305229699275552931853550408727295,846.0,1.305229699275552931853550408727295
47,884.509572145156328257047215567381712,883.2,1.309572145156328257047215567381712
48,922.513822741838490974443363345190107,921.2,1.313822741838490974443363345190107
49,961.317985299037636037858924850569731,960.0,1.317985299037636037858924850569731
50,1000.92206339404535043522018634011604,999.6,1.32206339404535043522018634011604
51,1041.32606039027169535679787199625448,1040.0,1.32606039027169535679787199625448
52,1082.52997945397375089695123732453873,1081.2,1.32997945397375089695123732453873
53,1124.53382356937916537723447404258334,1123.2,1.33382356937916537723447404258334
54,1167.33759555238609024726408144472588,1166.0,1.33759555238609024726408144472588
55,1210.94129806299740602723522373925692,1209.6,1.34129806299740602723522373925692
56,1255.34493361662707018585105539298084,1254.0,1.34493361662707018585105539298084
57,1300.54850459439921888231088595698649,1299.2,1.34850459439921888231088595698649
58,1346.55201325254585731471304682984591,1345.2,1.35201325254585731471304682984591
59,1393.35546173099621946995373704919309,1392.0,1.35546173099621946995373704919309
60,1440.95885206123985356250163219170019,1439.6,1.35885206123985356250163219170019
61,1489.36218617353592522192392288798337,1488.0,1.36218617353592522192392288798337
62,1538.56546590353292948392652073578403,1537.2,1.36546590353292948392652073578403
63,1588.56869299835576075065096093806975,1587.2,1.36869299835576075065096093806975
64,1639.37186912221077740604881495551550,1638.0,1.37186912221077740604881495551550
65,1690.97499586155396293218195680332950,1689.6,1.37499586155396293218195680332950
66,1743.37807472986243803324315042579376,1742.0,1.37807472986243803324315042579376
67,1796.58110717204531598276585899643895,1795.2,1.38110717204531598276585899643895
68,1850.58409456852613724868381902713154,1849.2,1.38409456852613724868381902713154
69,1905.38703823902580678017432728718160,1904.0,1.38703823902580678017432728718160
70,1960.98993944607202907195518172617042,1959.6,1.38993944607202907195518172617042
71,2017.39279939825863741797439732744945,2016.0,1.39279939825863741797439732744945
72,2074.59561925327591552405183800121204,2073.2,1.39561925327591552405183800121204
73,2132.59840012073095664262870934235422,2131.2,1.39840012073095664262870934235422
74,2191.40114306477528654422797570766957,2190.0,1.40114306477528654422797570766957
75,2251.00384910655534553912592201386360,2249.6,1.40384910655534553912592201386360
76,2311.40651922649997520597972685491798,2310.0,1.40651922649997520597972685491798
77,2372.60915436645775308573795774081618,2371.2,1.40915436645775308573795774081618
78,2434.61175543169585280098063046195262,2433.2,1.41175543169585280098063046195262
79,2497.41432329277106024084326565597973,2496.0,1.41432329277106024084326565597973
80,2561.01685878728263832603487231473040,2559.6,1.41685878728263832603487231473040
81,2625.41936272151588352698326701823452,2624.0,1.41936272151588352698326701823452
82,2690.62183587198445585758752095677894,2689.2,1.42183587198445585758752095677894
83,2756.62427898687887533326768747797423,2755.2,1.42427898687887533326768747797423
84,2823.42669278742795359028580652986753,2822.0,1.42669278742795359028580652986753
85,2891.02907796917937008713850189506544,2889.6,1.42907796917937008713850189506544
86,2959.43143520320508644343208095520742,2958.0,1.43143520320508644343208095520742
87,3028.63376513723683500085128322806362,3027.2,1.43376513723683500085128322806362
88,3098.63606839673649431309696303258057,3097.2,1.43606839673649431309696303258057
89,3169.43834558590578076950656987312543,3168.0,1.43834558590578076950656987312543
90,3241.04059728863934234034196648330390,3239.6,1.44059728863934234034196648330390
91,3313.44282406942501897967842853050029,3312.0,1.44282406942501897967842853050029
92,3386.64502647419474592428948912085026,3385.2,1.44502647419474592428948912085026
93,3460.64720503112931387186670307452540,3459.2,1.44720503112931387186670307452540
94,3535.44936025141995709317525157959816,3534.0,1.44936025141995709317525157959816
95,3611.05149262998951937871730246441048,3609.6,1.45149262998951937871730246441048
96,3687.45360264617574589835856163392372,3686.0,1.45360264617574589835856163392372
97,3764.65569076437906471026396287534254,3763.2,1.45569076437906471026396287534254
98,3842.65775743467704878119352065077904,3841.2,1.45775743467704878119352065077904
99,3921.45980309340759590802047126339552,3920.0,1.45980309340759590802047126339552
100,4001.06182816372271758991755300075815,3999.6,1.46182816372271758991755300075815
101,4081.46383305611469859650293719003018,4080.0,1.46383305611469859650293719003018
102,4162.66581816891626340251615646857441,4161.2,1.46581816891626340251615646857441
103,4244.66778388877627774598147641951449,4243.2,1.46778388877627774598147641951449
104,4327.46973059111240630210591691812164,4326.0,1.46973059111240630210591691812164
105,4411.07165864054205439140192965376957,4409.6,1.47165864054205439140192965376957
106,4495.47356839129283087628132316007589,4494.0,1.47356839129283087628132316007589
107,4580.67546018759369131841142431097134,4579.2,1.47546018759369131841142431097134
108,4666.67733436404784122957014750306293,4665.2,1.47733436404784122957014750306293
109,4753.47919124598841065520251078193120,4752.0,1.47919124598841065520251078193120
110,4841.08103114981784890975600816267989,4839.6,1.48103114981784890975600816267989
111,4929.48285438333192242167378091364301,4928.0,1.48285438333192242167378091364301
112,5018.68466124602914921229107838414369,5017.2,1.48466124602914921229107838414369
113,5108.68645202940644799708633561742431,5107.2,1.48645202940644799708633561742431
114,5199.48822701724173113998198295084208,5198.0,1.48822701724173113998198295084208
115,5291.08998648586413024288744950349929,5289.6,1.48998648586413024288744950349929
116,5383.49173070441249482102862994730058,5382.0,1.49173070441249482102862994730058
117,5476.69345993508277280160132343436274,5475.2,1.49345993508277280160132343436274
118,5570.69517443336484055218063968139371,5569.2,1.49517443336484055218063968139371
119,5665.49687444826931643160195483104984,5664.0,1.49687444826931643160195483104984
120,5761.09856022254486601379418015659354,5759.6,1.49856022254486601379418015659354
121,5857.50023199288646886780178935030529,5856.0,1.50023199288646886780178935030529
122,5954.70188999013509786409925149216418,5953.2,1.50188999013509786409925149216418
123,6052.70353443946922978436964078116729,6051.2,1.50353443946922978436964078116729
124,6151.50516556058858833211039943954583,6150.0,1.50516556058858833211039943954583
125,6251.10678356789049107516622152793702,6249.6,1.50678356789049107516622152793702
126,6351.50838867063915665399151447988116,6350.0,1.50838867063915665399151447988116
127,6452.70998107312830801155835744560797,6451.2,1.50998107312830801155835744560797
128,6554.71156097483738481363617762218400,6553.2,1.51156097483738481363617762218400
129,6657.51312857058166615493112425909488,6656.0,1.51312857058166615493112425909488
130,6761.11468405065658626470591500011889,6759.6,1.51468405065658626470591500011889
131,6865.51622760097651052138286699908239,6864.0,1.51622760097651052138286699908239
132,6970.71775940320822410843216068074001,6969.2,1.51775940320822410843216068074001
133,7076.71927963489937386226305784750502,7075.2,1.51927963489937386226305784750502
134,7183.52078846960209258687749266551539,7182.0,1.52078846960209258687749266551539
135,7291.12228607699201700170256787667344,7289.6,1.52228607699201700170256787667344
136,7399.52377262298290680148816534348165,7398.0,1.52377262298290680148816534348165
137,7508.72524826983705899921261336191028,7507.2,1.52524826983705899921261336191028
138,7618.72671317627169811094837883735415,7617.2,1.52671317627169811094837883735415
139,7729.52816749756152063573442622392240,7728.0,1.52816749756152063573442622392240
140,7841.12961138563755683753351523152663,7839.6,1.52961138563755683753351523152663
141,7953.53104498918250827886269302597168,7952.0,1.53104498918250827886269302597168
142,8066.73246845372271148241838997117104,8065.2,1.53246845372271148241838997117104
143,8180.73388192171686944684799343152870,8179.2,1.53388192171686944684799343152870
144,8295.53528553264168556318306660774969,8294.0,1.53528553264168556318306660774969
145,8411.13667942307453029068994145922498,8409.6,1.53667942307453029068994145922498
146,8527.53806372677326308214293330566504,8526.0,1.53806372677326308214293330566504
147,8644.73943857475332384555912197443711,8643.2,1.53943857475332384555912197443711
148,8762.74080409536220927140036165849767,8761.2,1.54080409536220927140036165849767
149,8881.54216041435143582617409381857746,8880.0,1.54216041435143582617409381857746
150,9001.14350765494609305328710885246637,8999.6,1.54350765494609305328710885246637
151,9121.54484593791208309538286720346089,9120.0,1.54484593791208309538286720346089
152,9242.74617538162113673730817865644775,9241.2,1.54617538162113673730817865644775
153,9364.74749610211369491937853434114065,9363.2,1.54749610211369491937853434114065
154,9487.54880821315973962015921703434209,9486.0,1.54880821315973962015921703434209
155,9611.15011182631765234472975121499983,9609.6,1.55011182631765234472975121499983
156,9735.55140705099117808476922218284640,9734.0,1.55140705099117808476922218284640
157,9860.75269399448456579703957484036123,9859.2,1.55269399448456579703957484036123
158,9986.75397276205595721834213560280471,9985.2,1.55397276205595721834213560280471
159,10113.5552434569690876897541461504158,10112.0,1.5552434569690876897541461504158
160,10241.1565061805433653276566550369760,10239.6,1.5565061805433653276566550369760
161,10369.5577610322023870376462143736319,10368.0,1.5577610322023870376462143736319
162,10498.7590081095209508324034470861093,10497.2,1.5590081095209508324034470861093
163,10628.7602475082706193067891794070380,10627.2,1.5602475082706193067891794070380
164,10759.5614793224638889067349693628206,10758.0,1.5614793224638889067349693628206
165,10891.1627036443970135921171443493293,10889.6,1.5627036443970135921171443493293
166,11023.5639205646915334091746138823717,11022.0,1.5639205646915334091746138823717
167,11156.7651301723345552047616920330124,11155.2,1.5651301723345552047616920330124
168,11290.7663325547178281713210330589929,11289.2,1.5663325547178281713210330589929
169,11425.5675277976756592846387497173664,11424.0,1.5675277976756592846387497173664
170,11561.1687159855217083774693962458557,11559.6,1.5687159855217083774693962458557
171,11697.5698972010847030434628771309839,11696.0,1.5698972010847030434628771309839
172,11834.7710715257431112380231847269546,11833.2,1.5710715257431112380231847269546
173,11972.7722390394588069784011495561799,11971.2,1.5722390394588069784011495561799
174,12111.5733998208097649865070071801887,12110.0,1.5733998208097649865070071801887
175,12251.1745539470218182593473758498008,12249.6,1.5745539470218182593473758498008
176,12391.5757014939995082734111935012325,12390.0,1.5757014939995082734111935012325
177,12532.7768425363560610835136583624129,12531.2,1.5768425363560610835136583624129
178,12674.7779771474425184704660866301898,12673.2,1.5779771474425184704660866301898
179,12817.5791053993760505824891538385941,12816.0,1.5791053993760505824891538385941
180,12961.1802273630674810167400515674907,12959.6,1.5802273630674810167400515674907
181,13105.5813431082480469895113665787559,13104.0,1.5813431082480469895113665787559
182,13250.7824527034954222904586507552880,13249.2,1.5824527034954222904586507552880
183,13396.7835562162590260701022427752529,13395.2,1.5835562162590260701022427752529
184,13543.5846537128846417021108607596848,13542.0,1.5846537128846417021108607596848
185,13691.1857452586383675284619876257813,13689.6,1.5857452586383675284619876257813
186,13839.5868309177299204560694611594941,13838.0,1.5868309177299204560694611594941
187,13988.7879107533353162053474557702588,13987.2,1.5879107533353162053474557702588
188,14138.7889848276189416469961626296747,14137.2,1.5889848276189416469961626296747
189,14289.5900532017550429580681991024394,14288.0,1.5900532017550429580681991024394
190,14441.1911159359486452483614455142788,14439.6,1.5911159359486452483614455142788
191,14593.5921730894559228796577347213778,14592.0,1.5921730894559228796577347213778
192,14746.7932247206040368599774959620261,14745.2,1.5932247206040368599774959620261
193,14900.7942708868104576166647159222448,14899.2,1.5942708868104576166647159222448
194,15055.5953116446017864890506763305951,15054.0,1.5953116446017864890506763305951
195,15211.1963470496320938730204513743348,15209.6,1.5963470496320938730204513743348
196,15367.5973771567007877093469538937243,15366.0,1.5973771567007877093469538937243
197,15524.7984020197700266910776856704465,15523.2,1.5984020197700266910776856704465
198,15682.7994216919816923519174204429227,15681.2,1.5994216919816923519174204429227
199,15841.6004362256739328694243775969001,15840.0,1.6004362256739328694243775969001
200,16001.2014456723972925231829184925778,15999.6,1.6014456723972925231829184925778
201,16161.6024500829304377843335749341003,16160.0,1.6024500829304377843335749341003
202,16322.8034495072954934125741357606941,16321.2,1.6034495072954934125741357606941
203,16484.8044439947729992153155432573691,16483.2,1.6044439947729992153155432573691
204,16647.6054335939164990838566858191348,16646.0,1.6054335939164990838566858191348
205,16811.2064183525667722718919436356503,16809.6,1.6064183525667722718919436356503
206,16975.6073983178657199350508696831553,16974.0,1.6073983178657199350508696831553
207,17140.8083735362699128020976387785914,17139.2,1.6083735362699128020976387785914
208,17306.8093440535638141991970864805245,17305.2,1.6093440535638141991970864805245
209,17473.6103099148726841700773589079191,17472.0,1.6103099148726841700773589079191
210,17641.2112711646751761876903715980510,17639.6,1.6112711646751761876903715980510
211,17809.6122278468156338163289319816534,17808.0,1.6122278468156338163289319816534
212,17978.8131800045160975513247931812605,17977.2,1.6131800045160975513247931812605
213,18148.8141276803880262142182907403591,18147.2,1.6141276803880262142182907403591
214,18319.6150709164437478790851444886771,18318.0,1.6150709164437478790851444886771
215,18491.2160097541076395362477888760014,18489.6,1.6160097541076395362477888760014
216,18663.6169442342270494478240859353665,18662.0,1.6169442342270494478240859353665
217,18836.8178743970829661541513618094455,18835.2,1.6178743970829661541513618094455
218,19010.8188002824004431035311280259367,19009.2,1.6188002824004431035311280259367
219,19185.6197219293587821782259674722354,19184.0,1.6197219293587821782259674722354
220,19361.2206393766014886248317224037509,19359.6,1.6206393766014886248317224037509
221,19537.6215526622459952913100396010888,19536.0,1.6215526622459952913100396010888
222,19714.8224618238931733680421155575515,19713.2,1.6224618238931733680421155575515
223,19892.8233668986366231937298686258051,19891.2,1.6233668986366231937298686258051
224,20071.6242679230717601854378004720534,20070.0,1.6242679230717601854378004720534
225,20251.2251649333046984493132508307959,20249.6,1.6251649333046984493132508307959
226,20431.6260579649609356099205486783858,20430.0,1.6260579649609356099205486783858
227,20612.8269470531938475010306385441547,20611.2,1.6269470531938475010306385441547
228,20794.8278322326929945280603883446466,20793.2,1.6278322326929945280603883446466
229,20977.6287135376922468542994922211626,20976.0,1.6287135376922468542994922211626
230,21161.2295910019777330971566091409370,21159.6,1.6295910019777330971566091409370
231,21345.6304646588956143236817020707010,21344.0,1.6304646588956143236817020707010
232,21530.8313345413596937542724116333017,21529.2,1.6313345413596937542724116333017
233,21716.8322006818588571600553125334762,21715.2,1.6322006818588571600553125334762
234,21903.6330631124643600999947897104419,21902.0,1.6330631124643600999947897104419
235,22091.2339218648369551688157928723177,22089.6,1.6339218648369551688157928723177
236,22279.6347769702338689544950993403017,22278.0,1.6347769702338689544950993403017
237,22468.8356284595156323254341892815111,22467.2,1.6356284595156323254341892815111
238,22658.8364763631527657783106221125313,22657.2,1.6364763631527657783106221125313
