Eigenstate,Energy,Kinetic Energy,Potential Energy
1,0.500000000081542775084010982552928171,0.0,0.500000000081542775084010982552928171
2,1.84623093818338437380359016954678868,1.2,0.64623093818338437380359016954678868
3,3.93633761126847955194281513821844964,3.2,0.73633761126847955194281513821844964
4,6.79966528107085181990139971438137753,6.0,0.79966528107085181990139971438137753
5,10.4480465809268345104660078413794821,9.6,0.8480465809268345104660078413794821
6,14.8870660055994868619801788772139262,14.0,0.8870660055994868619801788772139262
7,20.1197208365309308814579661586405260,19.2,0.9197208365309308814579661586405260
8,26.1477838601002182047824935359962215,25.2,0.9477838601002182047824935359962215
9,32.9723835753148776311819338843800961,32.0,0.9723835753148776311819338843800961
10,40.5942802363242972924087267006825825,39.6,0.9942802363242972924087267006825825
11,49.0140094132700982487145897691149159,48.0,1.0140094132700982487145897691149159
12,58.2319622014573601315987938337461004,57.2,1.0319622014573601315987938337461004
13,68.2484327309522641246275909836288974,67.2,1.0484327309522641246275909836288974
14,79.0636476994382839496506004586032227,78.0,1.0636476994382839496506004586032227
15,90.6777854880303885253694093143363092,89.6,1.0777854880303885253694093143363092
16,103.090988966145498266523445482129585,102.0,1.090988966145498266523445482129585
17,116.303374324963996828857356627262592,115.2,1.103374324963996828857356627262592
18,130.315037328435935631203475091621360,129.2,1.115037328435935631203475091621360
19,145.126057836385015028235934068010501,144.0,1.126057836385015028235934068010501
20,160.736503142142523309208877205993563,159.6,1.136503142142523309208877205993563
21,177.146430478629035750353678159970774,176.0,1.146430478629035750353678159970774
22,194.355888929513156146351611739856144,193.2,1.155888929513156146351611739856144
23,212.364920907148042525883598946221535,211.2,1.164920907148042525883598946221535
24,231.173563309971830127366153965809205,230.0,1.173563309971830127366153965809205
25,250.781848439303558428796781087647004,249.6,1.181848439303558428796781087647004
26,271.189804733150759404381229671262530,270.0,1.189804733150759404381229671262530
27,292.397457359172033766778380349345468,291.2,1.197457359172033766778380349345468
28,314.404828698036091136048728713296694,313.2,1.204828698036091136048728713296694
29,337.211938740623702248908255540492029,336.0,1.211938740623702248908255540492029
30,360.818805416869523748384457109175670,359.6,1.218805416869523748384457109175670
31,385.225444869894817590892546372336648,384.0,1.225444869894817590892546372336648
32,410.431871686004187520861328380442560,409.2,1.231871686004187520861328380442560
33,436.438099088809807257334075875653299,435.2,1.238099088809807257334075875653299
34,463.244139103996068769660363392648583,462.0,1.244139103996068769660363392648583
35,490.850002699898383952846220751551966,489.6,1.250002699898383952846220751551966
36,519.255699908036394133951534048033565,518.0,1.255699908036394133951534048033565
37,548.461239926937757291937484252453692,547.2,1.261239926937757291937484252453692
38,578.466631211958264129871148803218086,577.2,1.266631211958264129871148803218086
39,609.271881553306185488606257008557475,608.0,1.271881553306185488606257008557475
40,640.876998144082932807305921243825211,639.6,1.276998144082932807305921243825211
41,673.281987639835363062290639100104156,672.0,1.281987639835363062290639100104156
42,706.486856210860067014063455964106872,705.2,1.286856210860067014063455964106872
43,740.491609588293493247348689197606273,739.2,1.291609588293493247348689197606273
44,775.296253104853666473398038439138750,774.0,1.296253104853666473398038439138750
45,810.900791730961688994758790494600340,809.6,1.300791730961688994758790494600340
46,847.305230106858077950055763662006746,846.0,1.305230106858077950055763662006746
47,884.509572571235514343967255845788717,883.2,1.309572571235514343967255845788717
48,922.513823186831993503295160179725956,921.2,1.313823186831993503295160179725956
49,961.317985763363704056106740440015018,960.0,1.317985763363704056106740440015018
50,1000.92206387812283981725087214726348,999.6,1.32206387812283981725087214726348
51,1041.32606089452008200106170524400132,1040.0,1.32606089452008200106170524400132
52,1082.52997997881314396774856352838601,1081.2,1.32997997881314396774856352838601
53,1124.53382411523032059141279404368028,1123.2,1.33382411523032059141279404368028
54,1167.33759611967042320616622463343755,1166.0,1.33759611967042320616622463343755
55,1210.94129865213700559430535316961746,1209.6,1.34129865213700559430535316961746
56,1255.34493422804471191036325146586313,1254.0,1.34493422804471191036325146586313
57,1300.54850522851837846973600061296861,1299.2,1.34850522851837846973600061296861
58,1346.55201390979072414428476568660596,1345.2,1.35201390979072414428476568660596
59,1393.35546241179171016003464470682541,1392.0,1.35546241179171016003464470682541
60,1440.95885276601162558438597757179734,1439.6,1.35885276601162558438597757179734
61,1489.36218690271039056274577909118670,1488.0,1.36218690271039056274577909118670
62,1538.56546665753726835937103170273830,1537.2,1.36546665753726835937103170273830
63,1588.56869377761793536819248847434518,1587.2,1.36869377761793536819248847434518
64,1639.37186992715954577946364950877442,1638.0,1.37186992715954577946364950877442
65,1690.97499669261889274810522771294345,1689.6,1.37499669261889274810522771294345
66,1743.37807558747392057055953381412268,1742.0,1.37807558747392057055953381412268
67,1796.58110805663458008564236346966080,1795.2,1.38110805663458008564236346966080
68,1850.58409548052526335407016337148662,1849.2,1.38409548052526335407016337148662
69,1905.38703917886774100061276261470476,1904.0,1.38703917886774100061276261470476
70,1960.98994041419059733455651124865164,1959.6,1.38994041419059733455651124865164
71,2017.39280039508855966043165272938081,2016.0,1.39280039508855966043165272938081
72,2074.59562027925281994857635195323044,2073.2,1.39562027925281994857635195323044
73,2132.59840117629139402870660293728501,2131.2,1.39840117629139402870660293728501
74,2191.40114415035674462110731481840752,2190.0,1.40114415035674462110731481840752
75,2251.00385022259626341895694965727486,2249.6,1.40385022259626341895694965727486
76,2311.40652037343975787854196692995149,2310.0,1.40652037343975787854196692995149
77,2372.60915554473678597569933843116598,2371.2,1.40915554473678597569933843116598
78,2434.61175664175551638864471235118448,2433.2,1.41175664175551638864471235118448
79,2497.41432453505374474735135623224293,2496.0,1.41432453505374474735135623224293
80,2561.01686006223175846400014773926365,2559.6,1.41686006223175846400014773926365
81,2625.41936402957589331754454982046209,2624.0,1.41936402957589331754454982046209
82,2690.62183721360086351488041745115567,2689.2,1.42183721360086351488041745115567
83,2756.62428036249825821732081899307969,2755.2,1.42428036249825821732081899307969
84,2823.42669419749797322935994624041519,2822.0,1.42669419749797322935994624041519
85,2891.02907941414878727053629517050749,2889.6,1.42907941414878727053629517050749
86,2959.43143668352377638581581637630453,2958.0,1.43143668352377638581581637630453
87,3028.63376665335580257911620264002621,3027.2,1.43376665335580257911620264002621
88,3098.63606994910788937685730020466314,3097.2,1.43606994910788937685730020466314
89,3169.43834717498291352626140616683614,3168.0,1.43834717498291352626140616683614
90,3241.04059891487669881639779156556671,3239.6,1.44059891487669881639779156556671
91,3313.44282573327827655791537473095255,3312.0,1.44282573327827655791537473095255
92,3386.64502817612078895986785426978571,3385.2,1.44502817612078895986785426978571
93,3460.64720677158624938698073113911501,3459.2,1.44720677158624938698073113911501
94,3535.44936203086713055197087604847654,3534.0,1.44936203086713055197087604847654
95,3611.05149444888753054350093408213949,3609.6,1.45149444888753054350093408213949
96,3687.45360450498646476823408366243195,3686.0,1.45360450498646476823408366243195
97,3764.65569266356564754334546413997008,3763.2,1.45569266356564754334546413997008
98,3842.65775937470395420155163818559654,3841.2,1.45775937470395420155163818559654
99,3921.45980507474060109853082945157211,3920.0,1.45980507474060109853082945157211
100,4001.06183018682893457219025836221779,3999.6,1.46183018682893457219025836221779
101,4081.46383512146259059908295567105528,4080.0,1.46383512146259059908295567105528
102,4162.66582027697566131855512010131116,4161.2,1.46582027697566131855512010131116
103,4244.66778604001839668159240564160526,4243.2,1.46778604001839668159240564160526
104,4327.46973278600986221662373708916884,4326.0,1.46973278600986221662373708916884
105,4411.07166087956888083078353006142699,4409.6,1.47166087956888083078353006142699
106,4495.47357067492449580089047950171733,4494.0,1.47357067492449580089047950171733
107,4580.67546251630711402644532090754708,4579.2,1.47546251630711402644532090754708
108,4666.67733673832140937739599808612796,4665.2,1.47733673832140937739599808612796
109,4753.47919366630199737588456758700561,4752.0,1.47919366630199737588456758700561
110,4841.08103361665283003106510993337007,4839.6,1.48103361665283003106510993337007
111,4929.48285689717119378488382346685372,4928.0,1.48285689717119378488382346685372
112,5018.68466380735714409307905607985248,5017.2,1.48466380735714409307905607985248
113,5108.68645463870915462986502182639954,5107.2,1.48645463870915462986502182639954
114,5199.48822967500671034700702388835817,5198.0,1.48822967500671034700702388835817
115,5291.08998919258053316949327342401287,5289.6,1.48998919258053316949327342401287
116,5383.49173346057108077836077599298956,5382.0,1.49173346057108077836077599298956
117,5476.69346274117592721822574507875658,5475.2,1.49346274117592721822574507875658
118,5570.69517728988659303596394808064612,5569.2,1.49517728988659303596394808064612
119,5665.49687735571535894327004766912658,5664.0,1.49687735571535894327004766912658
120,5761.09856318141257115359060390789422,5759.6,1.49856318141257115359060390789422
121,5857.50023500367490827668077854062752,5856.0,1.50023500367490827668077854062752
122,5954.70189305334506074090268979594892,5953.2,1.50189305334506074090268979594892
123,6052.70353755560324152045151367977777,6051.2,1.50353755560324152045151367977777
124,6151.50516873015092926488652400121129,6150.0,1.50516873015092926488652400121129
125,6251.10678679138721536208223370305834,6249.6,1.50678679138721536208223370305834
126,6351.50839194857811126841652946017132,6350.0,1.50839194857811126841652946017132
127,6452.70998440601915186212710239762756,6451.2,1.50998440601915186212710239762756
128,6554.71156436319160798857777181066808,6553.2,1.51156436319160798857777181066808
129,6657.51313201491260929293806521269076,6656.0,1.51313201491260929293806521269076
130,6761.11468755147946005391277348979087,6759.6,1.51468755147946005391277348979087
131,6865.51623115880841532804003924240725,6864.0,1.51623115880841532804003924240725
132,6970.71776301856816973687673582803032,6969.2,1.51776301856816973687673582803032
133,7076.71928330830829944780446732823758,7075.2,1.51928330830829944780446732823758
134,7183.52079220158288662323326120366568,7182.0,1.52079220158288662323326120366568
135,7291.12228986806953750463589624901591,7289.6,1.52228986806953750463589624901591
136,7399.52377647368400161031636955998607,7398.0,1.52377647368400161031636955998607
137,7508.72525218069058621787289348203209,7507.2,1.52525218069058621787289348203209
138,7618.72671714780854669032526059822819,7617.2,1.52671714780854669032526059822819
139,7729.52817153031463109897095741065343,7728.0,1.52817153031463109897095741065343
140,7841.12961548014194215006661064341846,7839.6,1.52961548014194215006661064341846
141,7953.53104914597527486494144770718205,7952.0,1.53104914597527486494144770718205
142,8066.73247267334308038988301158578343,8065.2,1.53247267334308038988301158578343
143,8180.73388620470619766196597110687843,8179.2,1.53388620470619766196597110687843
144,8295.53528987954348747735846876108203,8294.0,1.53528987954348747735846876108203
145,8411.13668383443449932088131064015877,8409.6,1.53668383443449932088131064015877
146,8527.53806820313929344684512934140458,8526.0,1.53806820313929344684512934140458
147,8644.73944311667553249822466623347963,8643.2,1.53944311667553249822466623347963
148,8762.74080870339295799319600307763432,8761.2,1.54080870339295799319600307763432
149,8881.54216508904535347998956887011210,8880.0,1.54216508904535347998956887011210
150,9001.14351239686009800093323481552102,8999.6,1.54351239686009800093323481552102
151,9121.54485074760540577993858338702917,9120.0,1.54485074760540577993858338702917
152,9242.74618025965534243259683042789033,9241.2,1.54618025965534243259683042789033
153,9364.74750104905270664857608167297547,9363.2,1.54750104905270664857608167297547
154,9487.54881322956986124555928435627829,9486.0,1.54881322956986124555928435627829
155,9611.15011691276759183071296794476418,9609.6,1.55011691276759183071296794476418
156,9735.55141220805207093604746919726733,9734.0,1.55141220805207093604746919726733
157,9860.75269922272999867426861997410869,9859.2,1.55269922272999867426861997410869
158,9986.75397806206199173322012465758691,9985.2,1.55397806206199173322012465758691
159,10113.5552488293142843817470548379503,10112.0,1.5552488293142843817470548379503
160,10241.1565116258088078245164474222618,10239.6,1.5565116258088078245164474222618
161,10369.5577665509717064019117657807101,10368.0,1.5577665509717064019117657807101
162,10498.7590137023803500960996529322167,10497.2,1.5590137023803500960996529322167
163,10628.7602531758088981965645828245579,10627.2,1.5602531758088981965645828245579
164,10759.5614850652724687617045016840582,10758.0,1.5614850652724687617045016840582
165,10891.1627094630699624767024512815597,10889.6,1.5627094630699624767024512815597
166,11023.5639264598255914232609525052666,11022.0,1.5639264598255914232609525052666
167,11156.7651361445291599935170984845665,11155.2,1.5651361445291599935170984845665
168,11290.7663386045751406370513896465975,11289.2,1.5663386045751406370513896465975
169,11425.5675339258005895030792056554737,11424.0,1.5675339258005895030792056554737
170,11561.1687221925219417209414931746058,11559.6,1.5687221925219417209414931746058
171,11697.5699034875707265133546996569898,11696.0,1.5699034875707265133546996569898
172,11834.7710778923282400090791029160256,11833.2,1.5710778923282400090791029160256
173,11972.7722454867592111573368547569307,11971.2,1.5722454867592111573368547569307
174,12111.5734063494444965874955029190515,12110.0,1.5734063494444965874955029190515
175,12251.1745605576128383989518925851752,12249.6,1.5745605576128383989518925851752
176,12391.5757081871717145875714078628671,12390.0,1.5757081871717145875714078628671
177,12532.7768493127373153692229417821751,12531.2,1.5768493127373153692229417821751
178,12674.7779840076636745548090543845687,12673.2,1.5779840076636745548090543845687
179,12817.5791123440709824217408309039176,12816.0,1.5791123440709824217408309039176
180,12961.1802343928731110282606091989910,12959.6,1.5802343928731110282606091989910
181,13105.5813502238043746192032595615448,13104.0,1.5813502238043746192032595615448
182,13250.7824599054455528185863894753611,13249.2,1.5824599054455528185863894753611
183,13396.7835635052491996583095671851326,13395.2,1.5835635052491996583095671851326
184,13543.5846610895642626845038467558473,13542.0,1.5846610895642626845038467558473
185,13691.1857527236600339496628122719695,13689.6,1.5857527236600339496628122719695
186,13839.5868384717494538591792496627970,13838.0,1.5868384717494538591792496627970
187,13988.7879183970117916727948122917504,13987.2,1.5879183970117916727948122917504
188,14138.7889925616147180972832369357261,14137.2,1.5889925616147180972832369357261
189,14289.5900610267357937014636058179377,14288.0,1.5900610267357937014636058179377
190,14441.1911238525833888046272442312857,14439.6,1.5911238525833888046272442312857
191,14593.5921810984170540609362018424865,14592.0,1.5921810984170540609362018424865
192,14746.7932328225673581220017782415836,14745.2,1.5932328225673581220017782415836
193,14900.7942790824552106814973084712936,14899.2,1.5942790824552106814973084712936
194,15055.5953199346106842425932343820541,15054.0,1.5953199346106842425932343820541
195,15211.1963554346913525405800916117039,15209.6,1.5963554346913525405800916117039
196,15367.5973856375001593125841916143032,15366.0,1.5973856375001593125841916143032
197,15524.7984105970028317897039943653296,15523.2,1.5984105970028317897039943653296
198,15682.7994303663448530735525581013883,15681.2,1.5994303663448530735525581013883
199,15841.6004449978680062310671428263910,15840.0,1.6004449978680062310671428263910
200,16001.2014545431265040477922242781235,15999.6,1.6014545431265040477922242781235
201,16161.6024590529027154160614395323082,16160.0,1.6024590529027154160614395323082
202,16322.8034585772225017342382726581521,16321.2,1.6034585772225017342382726581521
203,16484.8044531653701739717433934022490,16483.2,1.6044531653701739717433934022490
204,16647.6054428659030820147809186591057,16646.0,1.6054428659030820147809186591057
205,16811.2064277266658462581235976579169,16809.6,1.6064277266658462581235976579169
206,16975.6074077948042444617050662547818,16974.0,1.6074077948042444617050662547818
207,17140.8083831167787597426951307208579,17139.2,1.6083831167787597426951307208579
208,17306.8093537383778039245142904536103,17305.2,1.6093537383778039245142904536103
209,17473.6103197047306219856683551915596,17472.0,1.6103197047306219856683551915596
210,17641.2112810603198891040548524366280,17639.6,1.6112810603198891040548524366280
211,17809.6122378489940076557516954211378,17808.0,1.6122378489940076557516954211378
212,17978.8131901139791143954656940356206,17977.2,1.6131901139791143954656940356206
213,18148.8141378978908021965846308277814,18147.2,1.6141378978908021965846308277814
214,18319.6150812427455713265724986618893,18318.0,1.6150812427455713265724986618893
215,18491.2160201899720094639904584652191,18489.6,1.6160201899720094639904584652191
216,18663.6169547804217144116528979609428,18662.0,1.6169547804217144116528979609428
217,18836.8178850543799634650125459639357,18835.2,1.6178850543799634650125459639357
218,19010.8188110515761384082777579377586,19009.2,1.6188110515761384082777579377586
219,19185.6197328111939094112531282284131,19184.0,1.6197328111939094112531282284131
220,19361.2206503718811903350845529010343,19359.6,1.6206503718811903350845529010343
221,19537.6215637717598633492553064465420,19536.0,1.6215637717598633492553064465420
222,19714.8224730484352900572551531304148,19713.2,1.6224730484352900572551531304148
223,19892.8233782390056026918109401213371,19891.2,1.6233782390056026918109401213371
224,20071.6242793800707904390349649174837,20070.0,1.6242793800707904390349649174837
225,20251.2251765077415834480940823204023,20249.6,1.6251765077415834480940823204023
226,20431.6260696576481380643999576449238,20430.0,1.6260696576481380643999576449238
227,20612.8269588649485319292272987869883,20611.2,1.6269588649485319292272987869883
228,20794.8278441643370707560242631417458,20793.2,1.6278441643370707560242631417458
229,20977.6287255900524139356189554376519,20976.0,1.6287255900524139356189554376519
230,21161.2296031758855236566246235650694,21159.6,1.6296031758855236566246235650694
231,21345.6304769551874393303710281901813,21344.0,1.6304769551874393303710281901813
232,21530.8313469608768877293411409323398,21529.2,1.6313469608768877293411409323398
233,21716.8322132254477238246779598490248,21715.2,1.6322132254477238246779598490248
234,21903.6330757809762184688873582994209,21902.0,1.6330757809762184688873582994209
235,22091.2339346591281860948991353385918,22089.6,1.6339346591281860948991353385918
236,22279.6347898911659621303172591925745,22278.0,1.6347898911659621303172591925745
237,22468.8356415079552337470506547009287,22467.2,1.6356415079552337470506547009287
238,22658.8364895399717256773992929846469,22657.2,1.6364895399717256773992929846469
