Eigenstate,Energy,Kinetic Energy,Potential Energy
1,0.500000003713591259645139856101168378,0.0,0.500000003713591259645139856101168378
2,1.84623096189337379478381205584360375,1.2,0.64623096189337379478381205584360375
3,3.93633768092318981532680139855806277,3.2,0.73633768092318981532680139855806277
4,6.79966542617800674377002263194896450,6.0,0.79966542617800674377002263194896450
5,10.4480468323358799597643294540370149,9.6,0.8480468323358799597643294540370149
6,14.8870663947338969251676018203496640,14.0,0.8870663947338969251676018203496640
7,20.1197213951110134310135382198181478,19.2,0.9197213951110134310135382198181478
8,26.1477846200327696362248759973598890,25.2,0.9477846200327696362248759973598890
9,32.9723845686467252689160932854721392,32.0,0.9723845686467252689160932854721392
10,40.5942814952232180389151647969668308,39.6,0.9942814952232180389151647969668308
11,49.0140109700186569784725231511092602,48.0,1.0140109700186569784725231511092602
12,58.2319640884533653649531529039598057,57.2,1.0319640884533653649531529039598057
13,68.2484349807128609235224242159692200,67.2,1.0484349807128609235224242159692200
14,79.0636503446061758413480009776588282,78.0,1.0636503446061758413480009776588282
15,90.6777885613813805757155865013112265,89.6,1.0777885613813805757155865013112265
16,103.090992500596907642053481678038153,102.0,1.090992500596907642053481678038153
17,116.303378353583666048832299223209481,115.2,1.103378353583666048832299223209481
18,130.315041884451689135130003548297760,129.2,1.115041884451689135130003548297760
19,145.126062953194460954381956079832996,144.0,1.126062953194460954381956079832996
20,160.736508853323139287004334569992362,159.6,1.136508853323139287004334569992362
21,177.146436817948500470246821743214661,176.0,1.146436817948500470246821743214661
22,194.355895930939903182316997447068679,193.2,1.155895930939903182316997447068679
23,212.364928604862022574470956835133510,211.2,1.164928604862022574470956835133510
24,231.173571738375474377087364487107835,230.0,1.173571738375474377087364487107835
25,250.781857633032940316402490002064320,249.6,1.181857633032940316402490002064320
26,271.189814727086955247279195405477464,270.0,1.189814727086955247279195405477464
27,292.397468188452685123016297615633599,291.2,1.197468188452685123016297615633599
28,314.404840398067173517977075566171580,313.2,1.204840398067173517977075566171580
29,337.211951347091506189775749288354832,336.0,1.211951347091506189775749288354832
30,360.818818965752855317071704409821123,359.6,1.218818965752855317071704409821123
31,385.225459397477426353418497563210835,384.0,1.225459397477426353418497563210835
32,410.431887228887430716762840284773903,409.2,1.231887228887430716762840284773903
33,436.438115683925559635717273910736144,435.2,1.238115683925559635717273910736144
34,463.244156788619888143046005656678425,462.0,1.244156788619888143046005656678425
35,490.850021511662943098236870137566714,489.6,1.250021511662943098236870137566714
36,519.255719884945190215565102429484598,518.0,1.255719884945190215565102429484598
37,548.461261107379110510609390129478168,547.2,1.261261107379110510609390129478168
38,578.466653634719617829256962618706935,577.2,1.266653634719617829256962618706935
39,609.271905257588720475081608205584733,608.0,1.271905257588720475081608205584733
40,640.877023169516509174492089326148741,639.6,1.277023169516509174492089326148741
41,673.282014026493803357050333523636086,672.0,1.282014026493803357050333523636086
42,706.486883999276795142495685664686156,705.2,1.286883999276795142495685664686156
43,740.491638819477544100111828561001450,739.2,1.291638819477544100111828561001450
44,775.296283820306081852589219536291597,774.0,1.296283820306081852589219536291597
45,810.900823972692316052301938397063239,809.6,1.300823972692316052301938397063239
46,847.305263917402787002654200356349611,846.0,1.305263917402787002654200356349611
47,884.509607993673853614611688316395467,883.2,1.309607993673853614611688316395467
48,922.513860264805299056485115467544949,921.2,1.313860264805299056485115467544949
49,961.318024541093683945735659557632616,960.0,1.318024541093683945735659557632616
50,1000.92210440043065225494035528122433,999.6,1.32210440043065225494035528122433
51,1041.32610320684592818109729589704322,1040.0,1.32610320684592818109729589704322
52,1082.53002412723639705519077657179625,1081.2,1.33002412723639705519077657179625
53,1124.53387014649021329512248229716766,1123.2,1.33387014649021329512248229716766
54,1167.33764408118731732114392807206727,1166.0,1.33764408118731732114392807206727
55,1210.94134859203426791083828725549315,1209.6,1.34134859203426791083828725549315
56,1255.34498619517122195405586255864196,1254.0,1.34498619517122195405586255864196
57,1300.54855927247169465983120741519284,1299.2,1.34855927247169465983120741519284
58,1346.55207008094093614123927020596323,1345.2,1.35207008094093614123927020596323
59,1393.35552076130600642068793797471328,1392.0,1.35552076130600642068793797471328
60,1440.95891334587960645822165592008919,1439.6,1.35891334587960645822165592008919
61,1489.36224976577015864979119336372278,1488.0,1.36224976577015864979119336372278
62,1538.56553185750232931365472396797287,1537.2,1.36553185750232931365472396797287
63,1588.56876136910494387506506867137073,1587.2,1.36876136910494387506506867137073
64,1639.37193996571693306556641529607085,1638.0,1.37193996571693306556641529607085
65,1690.97506923475641370469232211174266,1689.6,1.37506923475641370469232211174266
66,1743.37815069069316038999523033111018,1742.0,1.37815069069316038999523033111018
67,1796.58118577946046223339657614208289,1795.2,1.38118577946046223339657614208289
68,1850.58417588253860273097509474389103,1849.2,1.38417588253860273097509474389103
69,1905.38712232073888829964727053703678,1904.0,1.38712232073888829964727053703678
70,1960.99002635771422287046726858130949,1959.6,1.39002635771422287046726858130949
71,2017.39288920321962735735489259758751,2016.0,1.39288920321962735735489259758751
72,2074.59571201614380471904593110041682,2073.2,1.39571201614380471904593110041682
73,2132.59849590733079847654108477575382,2131.2,1.39849590733079847654108477575382
74,2191.40124194220897386059936359431594,2190.0,1.40124194220897386059936359431594
75,2251.00395114324291983445990434990765,2249.6,1.40395114324291983445990434990765
76,2311.40662449222242086350057450639876,2310.0,1.40662449222242086350057450639876
77,2372.60926293240134510103112587074613,2371.2,1.40926293240134510103112587074613
78,2434.61186737049813007053177308510605,2433.2,1.41186737049813007053177308510605
79,2497.41443867856850032855249741109135,2496.0,1.41443867856850032855249741109135
80,2561.01697769576011370634385740864699,2559.6,1.41697769576011370634385740864699
81,2625.41948522995798364327250224015719,2624.0,1.41948522995798364327250224015719
82,2690.62196205932876394916305770184881,2689.2,1.42196205932876394916305770184881
83,2756.62440893377129389328607044432571,2755.2,1.42440893377129389328607044432571
84,2823.42682657628017754163536335702313,2822.0,1.42682657628017754163536335702313
85,2891.02921568422861232663997391137206,2889.6,1.42921568422861232663997391137206
86,2959.43157693057616633160814059924532,2958.0,1.43157693057616633160814059924532
87,3028.63391096500674669196710463991282,3027.2,1.43391096500674669196710463991282
88,3098.63621841500157855734486325975684,3097.2,1.43621841500157855734486325975684
89,3169.43849988685163100779855119363245,3168.0,1.43849988685163100779855119363245
90,3241.04075596661358358656508183872051,3239.6,1.44075596661358358656508183872051
91,3313.44298722101310618273086417618871,3312.0,1.44298722101310618273086417618871
92,3386.64519419829893726328484308711197,3385.2,1.44519419829893726328484308711197
93,3460.64737742905098380664775306746503,3459.2,1.44737742905098380664775306746503
94,3535.44953742694542401662657151762405,3534.0,1.44953742694542401662657151762405
95,3611.05167468947957344953354414074402,3609.6,1.45167468947957344953354414074402
96,3687.45378969865907412969093776544930,3686.0,1.45378969865907412969093776544930
97,3764.65588292164978271318811269208100,3763.2,1.45588292164978271318811269208100
98,3842.65795481139656177972274596137780,3841.2,1.45795481139656177972274596137780
99,3921.46000580721102582839605034728406,3920.0,1.46000580721102582839605034728406
100,4001.06203633533014826196074281281076,3999.6,1.46203633533014826196074281281076
101,4081.46404680944750747713867600146960,4080.0,1.46404680944750747713867600146960
102,4162.66603763121882583806438679612175,4161.2,1.46603763121882583806438679612175
103,4244.66800919074334873630975996063905,4243.2,1.46800919074334873630975996063905
104,4327.46996186702250513258367432099621,4326.0,1.46996186702250513258367432099621
105,4411.07189602839719948536136240670874,4409.6,1.47189602839719948536136240670874
106,4495.47381203296499593155305908380178,4494.0,1.47381203296499593155305908380178
107,4580.67571022897837938069983705409615,4579.2,1.47571022897837938069983705409615
108,4666.67759095522520099254074716945007,4665.2,1.47759095522520099254074716945007
109,4753.47945454139234914927414014868501,4752.0,1.47945454139234914927414014868501
110,4841.08130130841362705487912920644477,4839.6,1.48130130841362705487912920644477
111,4929.48313156880275490145763385046467,4928.0,1.48313156880275490145763385046467
112,5018.68494562697236802930933309567142,5017.2,1.48494562697236802930933309567142
113,5108.68674377953983017041174611362369,5107.2,1.48674377953983017041174611362369
114,5199.48852631562063561406711209307194,5198.0,1.48852631562063561406711209307194
115,5291.09029351711013753365199869088746,5289.6,1.49029351711013753365199869088746
116,5383.49204565895429560959306869944029,5382.0,1.49204565895429560959306869944029
117,5476.69378300941010901990345640408590,5475.2,1.49378300941010901990345640408590
118,5570.69550583029636495658304310618617,5569.2,1.49550583029636495658304310618617
119,5665.49721437723530475263050124029199,5664.0,1.49721437723530475263050124029199
120,5761.09890889988579008442963247438876,5759.6,1.49890889988579008442963247438876
121,5857.50058964216852031952432529541224,5856.0,1.50058964216852031952432529541224
122,5954.70225684248384076567849772325739,5953.2,1.50225684248384076567849772325739
123,6052.70391073392265779677496978114641,6051.2,1.50391073392265779677496978114641
124,6151.50555154447096847558117153871399,6150.0,1.50555154447096847558117153871399
125,6251.10717949720849307500669172007612,6249.6,1.50717949720849307500669172007612
126,6351.50879481050189520006397638875307,6350.0,1.50879481050189520006397638875307
127,6452.71039769819306642783198606769757,6451.2,1.51039769819306642783198606769757
128,6554.71198836978294404793935134108063,6553.2,1.51198836978294404793935134108063
129,6657.51356703061133431287011818808891,6656.0,1.51356703061133431287011818808891
130,6761.11513388203321298913238465626539,6759.6,1.51513388203321298913238465626539
131,6865.51668912159197946949681776508826,6864.0,1.51668912159197946949681776508826
132,6970.71823294319014799649517271875024,6969.2,1.51823294319014799649517271875024
133,7076.71976553725797275237582744395319,7075.2,1.51976553725797275237582744395319
134,7183.52128709092052037746104193027355,7182.0,1.52128709092052037746104193027355
135,7291.12279778816371698243479628155848,7289.6,1.52279778816371698243479628155848
136,7399.52429780999992867699697026626554,7398.0,1.52429780999992867699697026626554
137,7508.72578733463366158794742617350491,7507.2,1.52578733463366158794742617350491
138,7618.72726653762799927764988403877220,7617.2,1.52726653762799927764988403877220
139,7729.52873559207244499674475460064054,7728.0,1.52873559207244499674475460064054
140,7841.13019466875287938635783092449913,7839.6,1.53019466875287938635783092449913
141,7953.53164393632440638894172542646074,7952.0,1.53164393632440638894172542646074
142,8066.73308356148792808996799274998964,8065.2,1.53308356148792808996799274998964
143,8180.73451370917136741582478476223761,8179.2,1.53451370917136741582478476223761
144,8295.53593454271654984970920902662074,8294.0,1.53593454271654984970920902662074
145,8411.13734622407286518150762658261470,8409.6,1.53734622407286518150762658261470
146,8527.53874891399895354941990139835768,8526.0,1.53874891399895354941990139835768
147,8644.74014277227380290876224528045572,8643.2,1.54014277227380290876224528045572
148,8762.74152795791882061268669914450233,8761.2,1.54152795791882061268669914450233
149,8881.54290462943263032400558142351931,8880.0,1.54290462943263032400558142351931
150,9001.14427294504058188242560572368116,8999.6,1.54427294504058188242560572368116
151,9121.54563306296122704004104911068276,9120.0,1.54563306296122704004104911068276
152,9242.74698514169232700000753532020048,9241.2,1.54698514169232700000753532020048
153,9364.74832934031932928247834060362587,9363.2,1.54832934031932928247834060362587
154,9487.54966581884968417092210782768454,9486.0,1.54966581884968417092210782768454
155,9611.15099473857688079493095607753781,9609.6,1.55099473857688079493095607753781
156,9735.55231626247869140496114459314216,9734.0,1.55231626247869140496114459314216
157,9860.75363055565482715008245693765703,9859.2,1.55363055565482715008245693765703
158,9986.75493778581006753000511351622921,9985.2,1.55493778581006753000511351622921
159,10113.5562381237899416372343022145158,10112.0,1.5562381237899416372343022145158
160,10241.1575317441772687475422537544771,10239.6,1.5575317441772687475422537544771
161,10369.5588188259593332932501059124050,10368.0,1.5588188259593332932501059124050
162,10498.7600995532772516709051126897754,10497.2,1.5600995532772516709051126897754
163,10628.7613741162712440098284410879573,10627.2,1.5613741162712440098284410879573
164,10759.5626427120381551900903846550507,10758.0,1.5626427120381551900903846550507
165,10891.1639055457207835644776444657386,10889.6,1.5639055457207835644776444657386
166,11023.5651628317525378993119382664193,11022.0,1.5651628317525378993119382664193
167,11156.7664147952858349992023042870371,11155.2,1.5664147952858349992023042870371
168,11290.7676616738387298886293943215720,11289.2,1.5676616738387298886293943215720
169,11425.5689037192018773359707541715501,11424.0,1.5689037192018773359707541715501
170,11561.1701411996574806468582473177720,11559.6,1.5701411996574806468582473177720
171,11697.5713744025739851369097699095270,11696.0,1.5713744025739851369097699095270
172,11834.7726036374556880225216040923797,11833.2,1.5726036374556880225216040923797
173,11972.7738292395462149194179409715356,11971.2,1.5738292395462149194179409715356
174,12111.5750515741103865015760993850069,12110.0,1.5750515741103865015760993850069
175,12251.1762710415523242718340355193091,12249.6,1.5762710415523242718340355193091
176,12391.5774880835714459569605558464412,12390.0,1.5774880835714459569605558464412
177,12532.7787031906161116624809121638812,12531.2,1.5787031906161116624809121638812
178,12674.7799169109725116256250497812608,12673.2,1.5799169109725116256250497812608
179,12817.5811298619317394830434141966357,12816.0,1.5811298619317394830434141966357
180,12961.1823427436222252658490720205599,12959.6,1.5823427436222252658490720205599
181,13105.5835563562945450589293675317016,13104.0,1.5835563562945450589293675317016
182,13250.7847716221262248726292739774716,13249.2,1.5847716221262248726292739774716
183,13396.7859896130137781057926354138781,13395.2,1.5859896130137781057926354138781
184,13543.5872115863972877709293045455260,13542.0,1.5872115863972877709293045455260
185,13691.1884390320133799910905305189798,13689.6,1.5884390320133799910905305189798
186,13839.5896737337474632314537680679592,13838.0,1.5896737337474632314537680679592
187,13988.7909178527073132878746682681034,13987.2,1.5909178527073132878746682681034
188,14138.7921740406951643415973918911392,14137.2,1.5921740406951643415973918911392
189,14289.5934455981627637754879095189149,14288.0,1.5934455981627637754879095189149
190,14441.1947366988459217498115085963376,14439.6,1.5947366988459217498115085963376
191,14593.5960527171283343752910577630373,14592.0,1.5960527171283343752910577630373
192,14746.7974007187381704257526697058639,14745.2,1.5974007187381704257526697058639
193,14900.7987902208092399466840630814343,14899.2,1.5987902208092399466840630814343
194,15055.6002344157130492735975574272940,15054.0,1.6002344157130492735975574272940
195,15211.2017522355288826192550914078794,15209.6,1.6017522355288826192550914078794
196,15367.6033720387930065048615661204654,15366.0,1.6033720387930065048615661204654
197,15524.8051386824207056015327633721045,15523.2,1.6051386824207056015327633721045
198,15682.8071284044817644778583866045685,15681.2,1.6071284044817644778583866045685
199,15841.6094843331218326520217697949867,15840.0,1.6094843331218326520217697949867
200,16001.2125180396993289876580662766396,15999.6,1.6125180396993289876580662766396
201,16161.6170979718735879620728411176650,16160.0,1.6170979718735879620728411176650
202,16322.8273029995535057941648579762691,16321.2,1.6273029995535057941648579762691
