Eigenstate,Energy,Kinetic Energy,Potential Energy
1,0.500000000541514446012766449225947866,0.0,0.500000000541514446012766449225947866
2,1.84623094118590169513071633758893279,1.2,0.64623094118590169513071633758893279
3,3.93633762008841452360654068360669087,3.2,0.73633762008841452360654068360669087
4,6.79966529944257578722835140668500599,6.0,0.79966529944257578722835140668500599
5,10.4480466127522002699736404796235066,9.6,0.8480466127522002699736404796235066
6,14.8870660548497633524715033056266927,14.0,0.8870660548497633524715033056266927
7,20.1197209072108523352599954737445767,19.2,0.9197209072108523352599954737445767
8,26.1477839562331591709871544026482893,25.2,0.9477839562331591709871544026482893
9,32.9723837009361138876796861254844661,32.0,0.9723837009361138876796861254844661
10,40.5942803954777280609786351738619817,39.6,0.9942803954777280609786351738619817
11,49.0140096100065981890135265469169087,48.0,1.0140096100065981890135265469169087
12,58.2319624398339622082349320663009686,57.2,1.0319624398339622082349320663009686
13,68.2484330150317951747747967087776671,67.2,1.0484330150317951747747967087776671
14,79.0636480332892611580828278143914207,78.0,1.0636480332892611580828278143914207
15,90.6777858757270736844647336497319355,89.6,1.0777858757270736844647336497319355
16,103.090989411768051539792646318066541,102.0,1.090989411768051539792646318066541
17,116.303374832598695636721274623047883,115.2,1.103374832598695636721274623047883
18,130.315037902175437610938379455999477,129.2,1.115037902175437610938379455999477
19,145.126058480328651760757482236844975,144.0,1.126058480328651760757482236844975
20,160.736503860396616159927083079865569,159.6,1.136503860396616159927083079865569
21,177.146431275307228058621311848544643,176.0,1.146431275307228058621311848544643
22,194.355889808736757839475270176380887,193.2,1.155889808736757839475270176380887
23,212.364921873046384437724622607953567,211.2,1.164921873046384437724622607953567
24,231.173564366682626106747622893728854,230.0,1.173564366682626106747622893728854
25,250.781849590973273872480932709112195,249.6,1.181849590973273872480932709112195
26,271.189805983934985231492287056578123,270.0,1.189805983934985231492287056578123
27,292.397458713235865121803932775445939,291.2,1.197458713235865121803932775445939
28,314.404830159554510301728291845863862,313.2,1.204830159554510301728291845863862
29,337.211940313781965391877201475443323,336.0,1.211940313781965391877201475443323
30,360.818807105863551225055465412524568,359.6,1.218807105863551225055465412524568
31,385.225446678931587619362495518951358,384.0,1.225446678931587619362495518951358
32,410.431873619302133083957679673313748,409.2,1.231873619302133083957679673313748
33,436.438101150599216147385006886659116,435.2,1.238101150599216147385006886659116
34,463.244141298519486720813062421469364,462.0,1.244141298519486720813062421469364
35,490.850005031411020834368644646384820,489.6,1.250005031411020834368644646384820
36,519.255702380806533199817078547535895,518.0,1.255702380806533199817078547535895
37,548.461242545247167499492823974037114,547.2,1.261242545247167499492823974037114
38,578.466633980102615554544410361664990,577.2,1.266633980102615554544410361664990
39,609.271884475595467873190766331475180,608.0,1.271884475595467873190766331475180
40,640.877001224841877293929507405131748,639.6,1.277001224841877293929507405131748
41,673.281990883403867163188020827633039,672.0,1.281990883403867163188020827633039
42,706.486859621593622884047027861637391,705.2,1.286859621593622884047027861637391
43,740.491613170563619326678552465548668,739.2,1.291613170563619326678552465548668
44,775.296256863048342574786595407159045,774.0,1.296256863048342574786595407159045
45,810.900795669485794912667347912967536,809.6,1.300795669485794912667347912967536
46,847.305234230133835674374637546573238,846.0,1.305234230133835674374637546573238
47,884.509576883702933963714098543248700,883.2,1.309576883702933963714098543248700
48,922.513827692949322889199839242712718,921.2,1.313827692949322889199839242712718
49,961.317990467607882413936052707201391,960.0,1.317990467607882413936052707201391
50,1000.92206878498995520651514862490445,999.6,1.32206878498995520651514862490445
51,1041.32606600852583291638025997093108,1040.0,1.32606600852583291638025997093108
52,1082.52998530449330508266408844920621,1081.2,1.32998530449330508266408844920621
53,1124.53382965714121276686508462199424,1123.2,1.33382965714121276686508462199424
54,1167.33760188238938786818786707949950,1166.0,1.33760188238938786818786707949950
55,1210.94130464026288358780279647521775,1209.6,1.34130464026288358780279647521775
56,1255.34494044619832693811362758619992,1254.0,1.34494044619832693811362758619992
57,1300.54851168134302522797649012431208,1299.2,1.34851168134302522797649012431208
58,1346.55202060195266126851162114550391,1345.2,1.35202060195266126851162114550391
59,1393.35546934798065809686574629566607,1392.0,1.35546934798065809686574629566607
60,1440.95885995094126950759177765115862,1439.6,1.35885995094126950759177765115862
61,1489.36219434111888845381959894475527,1488.0,1.36219434111888845381959894475527
62,1538.56547435418776437530066349941676,1537.2,1.36547435418776437530066349941676
63,1588.56870173729907862141437321380599,1587.2,1.36870173729907862141437321380599
64,1639.37187815468601465733564608209802,1638.0,1.37187815468601465733564608209802
65,1690.97500519283192490162968504799821,1689.6,1.37500519283192490162968504799821
66,1743.37808436524184870452462434602961,1742.0,1.37808436524184870452462434602961
67,1796.58111711685337368483600000263108,1795.2,1.38111711685337368483600000263108
68,1850.58410482811907648275690802051260,1849.2,1.38410482811907648275690802051260
69,1905.38704881878946631505699143052127,1904.0,1.38704881878946631505699143052127
70,1960.98995035142242645102043980567057,1959.6,1.38995035142242645102043980567057
71,2017.39281063464255002379091587346934,2016.0,1.39281063464255002379091587346934
72,2074.59563082617146834946479096118762,2073.2,1.39563082617146834946479096118762
73,2132.59841203564821691994542159564650,2131.2,1.39841203564821691994542159564650
74,2191.40115532725686538708014450757403,2190.0,1.40115532725686538708014450757403
75,2251.00386172217700675457591236199872,2249.6,1.40386172217700675457591236199872
76,2311.40653220087125143750312277834165,2310.0,1.40653220087125143750312277834165
77,2372.60916770522256945086126056361425,2371.2,1.40916770522256945086126056361425
78,2434.61176914053315819057655006157180,2433.2,1.41176914053315819057655006157180
79,2497.41433737739546645039363470908715,2496.0,1.41433737739546645039363470908715
80,2561.01687325344506719256120792784559,2559.6,1.41687325344506719256120792784559
81,2625.41937757500422224882840728637419,2624.0,1.41937757500422224882840728637419
82,2690.62185111862422067780057644139794,2689.2,1.42185111862422067780057644139794
83,2756.62429463253388377101014134811960,2755.2,1.42429463253388377101014134811960
84,2823.42670883800100540843867204156328,2822.0,1.42670883800100540843867204156328
85,2891.02909443061293718815135564798893,2889.6,1.42909443061293718815135564798893
86,2959.43145208148201188941777534879054,2958.0,1.43145208148201188941777534879054
87,3028.63378243838104135800178477370905,3027.2,1.43378243838104135800178477370905
88,3098.63608612681370152467315383444144,3097.2,1.43608612681370152467315383444144
89,3169.43836375102423376594559256769600,3168.0,1.43836375102423376594559256769600
90,3241.04061589495054859943254122388020,3239.6,1.44061589495054859943254122388020
91,3313.44284312312449625428068191535082,3312.0,1.44284312312449625428068191535082
92,3386.64504598152278035972271999768915,3385.2,1.44504598152278035972271999768915
93,3460.64722499837172873986383841798574,3459.2,1.44722499837172873986383841798574
94,3535.44938068490889237420655750980953,3534.0,1.44938068490889237420655750980953
95,3611.05151353610422242952467208517244,3609.6,1.45151353610422242952467208517244
96,3687.45362403134337344671658658846667,3686.0,1.45362403134337344671658658846667
97,3764.65571263507549642430371710242395,3763.2,1.45571263507549642430371710242395
98,3842.65777979742771266608778689203614,3841.2,1.45777979742771266608778689203614
99,3921.45982595478830578844488652747765,3920.0,1.45982595478830578844488652747765
100,4001.06185153036052294247271641942284,3999.6,1.46185153036052294247271641942284
101,4081.46385693468874700221131540390111,4080.0,1.46385693468874700221131540390111
102,4162.66584256615867589560305232047189,4161.2,1.46584256615867589560305232047189
103,4244.66780881147303734141318498241522,4243.2,1.46780881147303734141318498241522
104,4327.46975604610425999079973748751570,4326.0,1.46975604610425999079973748751570
105,4411.07168463472542889863842966019369,4409.6,1.47168463472542889863842966019369
106,4495.47359493162076248565795528226560,4494.0,1.47359493162076248565795528226560
107,4580.67548728107677007067173046820103,4579.2,1.47548728107677007067173046820103
108,4666.67736201775516981283675742638550,4665.2,1.47736201775516981283675742638550
109,4753.47921946704857831054123113463913,4752.0,1.47921946704857831054123113463913
110,4841.08105994541992068360507583880260,4839.6,1.48105994541992068360507583880260
111,4929.48288376072644410449584513130912,4928.0,1.48288376072644410449584513130912
112,5018.68469121252916831085380399374215,5017.2,1.48469121252916831085380399374215
113,5108.68648259238855109605354361764006,5107.2,1.48648259238855109605354361764006
114,5199.48825818414709801701402776932356,5198.0,1.48825818414709801701402776932356
115,5291.09001826419960511020750667790279,5289.6,1.49001826419960511020750667790279
116,5383.49176310175167507542637913315160,5382.0,1.49176310175167507542637913315160
117,5476.69349295906711567411718562906309,5475.2,1.49349295906711567411718562906309
118,5570.69520809170478805825901422312386,5569.2,1.49520809170478805825901422312386
119,5665.49690874874543903232090656976153,5664.0,1.49690874874543903232090656976153
120,5761.09859517300902540888764786666973,5759.6,1.49859517300902540888764786666973
121,5857.50026760126300035159549551059060,5856.0,1.50026760126300035159549551059060
122,5954.70192626442201268619105875645876,5953.2,1.50192626442201268619105875645876
123,6052.70357138773943796791159824217956,6051.2,1.50357138773943796791159824217956
124,6151.50520319099114241390013818386896,6150.0,1.50520319099114241390013818386896
125,6251.10682188865185124344895967211537,6249.6,1.50682188865185124344895967211537
126,6351.50842769006447777190853671702878,6350.0,1.50842769006447777190853671702878
127,6452.71002079960274902657645307230147,6451.2,1.51002079960274902657645307230147
128,6554.71160141682744106606291149849917,6553.2,1.51160141682744106606291149849917
129,6657.51316973663652511177442620505441,6656.0,1.51316973663652511177442620505441
130,6761.11472594940950721868570432593309,6759.6,1.51472594940950721868570432593309
131,6865.51627024114622880886786555031850,6864.0,1.51627024114622880886786555031850
132,6970.71780279360038041446054307134031,6969.2,1.51780279360038041446054307134031
133,7076.71932378440796919562712099302674,7075.2,1.51932378440796919562712099302674
134,7183.52083338721096952353890050735111,7182.0,1.52083338721096952353890050735111
135,7291.12233177177636781055033816123999,7289.6,1.52233177177636781055033816123999
136,7399.52381910411080908268619950999837,7398.0,1.52381910411080908268619950999837
137,7508.72529554657103948212473608803368,7507.2,1.52529554657103948212473608803368
138,7618.72676125797032527588578266802735,7617.2,1.52676125797032527588578266802735
139,7729.52821639368102684156455441636622,7728.0,1.52821639368102684156455441636622
140,7841.12966110573349065555052531207431,7839.6,1.52966110573349065555052531207431
141,7953.53109554291141775224205575434352,7952.0,1.53109554291141775224205575434352
142,8066.73251985084385905011162797517463,8065.2,1.53251985084385905011162797517463
143,8180.73393417209397929092027782817663,8179.2,1.53393417209397929092027782817663
144,8295.53533864624472415938176935587351,8294.0,1.53533864624472415938176935587351
145,8411.13673340998152096348182637606750,8409.6,1.53673340998152096348182637606750
146,8527.53811859717213538760048373704174,8526.0,1.53811859717213538760048373704174
147,8644.73949433894379862832223729807457,8643.2,1.53949433894379862832223729807457
148,8762.74086076375772026552722759227297,8761.2,1.54086076375772026552722759227297
149,8881.54221799748108869405502299594741,8880.0,1.54221799748108869405502299594741
150,9001.14356616345666278192799784146445,8999.6,1.54356616345666278192799784146445
151,9121.54490538257005069534701418984233,9120.0,1.54490538257005069534701418984233
152,9242.74623577331476621641300145579811,9241.2,1.54623577331476621641300145579811
153,9364.74755745185515153095547612916101,9363.2,1.54755745185515153095547612916101
154,9487.54887053208725041429820246378738,9486.0,1.54887053208725041429820246378738
155,9611.15017512569771008050468471107808,9609.6,1.55017512569771008050468471107808
156,9735.55147134222078959200048365168969,9734.0,1.55147134222078959200048365168969
157,9860.75275928909354590772208351323248,9859.2,1.55275928909354590772208351323248
158,9986.75403907170926942052119868929348,9985.2,1.55403907170926942052119868929348
159,10113.5553107934692326903684093461854,10112.0,1.5553107934692326903684093461854
160,10241.1565745558328187457660867532250,10239.6,1.5565745558328187457660867532250
161,10369.5578304583660874855366469040377,10368.0,1.5578304583660874855366469040377
162,10498.7590785987888396793805108400211,10497.2,1.5590785987888396793805108400211
163,10628.7603190730202334590621868211102,10627.2,1.5603190730202334590621868211102
164,10759.5615519752230079767309828350698,10758.0,1.5615519752230079767309828350698
165,10891.1627773978463628718703309000062,10889.6,1.5627773978463628718703309000062
166,11023.5639954316675441051912141170812,11022.0,1.5639954316675441051912141170812
167,11156.7652061658321834360071820620474,11155.2,1.5652061658321834360071820620474
168,11290.7664096878934342777796458583016,11289.2,1.5664096878934342777796458583016
169,11425.5676060838499490413075956402329,11424.0,1.5676060838499490413075956402329
170,11561.1687954381827377577526348471352,11559.6,1.5687954381827377577526348471352
171,11697.5699778338909482267737367729503,11696.0,1.5699778338909482267737367729503
172,11834.7711533525266056090706338126485,11833.2,1.5711533525266056090706338126485
173,11972.7723220742283469201878982443029,11971.2,1.5723220742283469201878982443029
174,12111.5734840777541863255978524265896,12110.0,1.5734840777541863255978524265896
175,12251.1746394405133452805398594981079,12249.6,1.5746394405133452805398594981079
176,12391.5757882385971772816504871098070,12390.0,1.5757882385971772816504871098070
177,12532.7769305468092205538232369786149,12531.2,1.5769305468092205538232369786149
178,12674.7780664386944078919136611223155,12673.2,1.5780664386944078919136611223155
179,12817.5791959865674601698610689971750,12816.0,1.5791959865674601698610689971750
180,12961.1803192615404945337648792254071,12959.6,1.5803192615404945337648792254071
181,13105.5814363335498700002588164916601,13104.0,1.5814363335498700002588164916601
182,13250.7825472713822982310471273996138,13249.2,1.5825472713822982310471273996138
183,13396.7836521427002426112097322490708,13395.2,1.5836521427002426112097322490708
184,13543.5847510140666299540970580524697,13542.0,1.5847510140666299540970580524697
185,13691.1858439509688967253280936082636,13689.6,1.5858439509688967253280936082636
186,13839.5869310178423908421070148611511,13838.0,1.5869310178423908421070148611511
187,13988.7880122780931529393466136045508,13987.2,1.5880122780931529393466136045508
188,14138.7890877941200926333762893592237,14137.2,1.5890877941200926333762893592237
189,14289.5901576273365836124927316806596,14288.0,1.5901576273365836124927316806596
190,14441.1912218381914933073839584814527,14439.6,1.5912218381914933073839584814527
191,14593.5922804861896664699630598519943,14592.0,1.5922804861896664699630598519943
192,14746.7933336299118791529363462588533,14745.2,1.5933336299118791529363462588533
193,14900.7943813270342815084676757565596,14899.2,1.5943813270342815084676757565596
194,15055.5954236343473428657676213224679,15054.0,1.5954236343473428657676213224679
195,15211.1964606077743171437707787270416,15209.6,1.5964606077743171437707787270416
196,15367.5974923023892424196027242490699,15366.0,1.5974923023892424196027242490699
197,15524.7985187724344891621321323442757,15523.2,1.5985187724344891621321323442757
198,15682.7995400713378714320325812047358,15681.2,1.5995400713378714320325812047358
199,15841.6005562517293340273271484898391,15840.0,1.6005562517293340273271484898391
200,16001.2015673654572296656798609708848,15999.6,1.6015673654572296656798609708848
201,16161.6025734636041973371854779863755,16160.0,1.6025734636041973371854779863755
202,16322.8035745965026553676305869044157,16321.2,1.6035745965026553676305869044157
203,16484.8045708137499200176138150116322,16483.2,1.6045708137499200176138150116322
204,16647.6055621642229614102619965766259,16646.0,1.6055621642229614102619965766259
205,16811.2065486960928069381957932619315,16809.6,1.6065486960928069381957932619315
206,16975.6075304568386053616695678448710,16974.0,1.6075304568386053616695678448710
207,17140.8085074932613576699477617975076,17139.2,1.6085074932613576699477617975076
208,17306.8094798514973291374019376192153,17305.2,1.6094798514973291374019376192153
209,17473.6104475770311485362887976808778,17472.0,1.6104475770311485362887976808778
210,17641.2114107147086062304070813523811,17639.6,1.6114107147086062304070813523811
211,17809.6123693087491587472038515844083,17808.0,1.6123693087491587472038515844083
212,17978.8133234027581503044487700557286,17977.2,1.6133234027581503044487700557286
213,18148.8142730397387559294040659725270,18147.2,1.6142730397387559294040659725270
214,18319.6152182621036614176800123100666,18318.0,1.6152182621036614176800123100666
215,18491.2161591116864796216442580625320,18489.6,1.6161591116864796216442580625320
216,18663.6170956297529173191872606512816,18662.0,1.6170956297529173191872606512816
217,18836.8180278570116969315697167144904,18835.2,1.6180278570116969315697167144904
218,19010.8189558336252423865829375267596,19009.2,1.6189558336252423865829375267596
219,19185.6198795992201327384546954350530,19184.0,1.6198795992201327384546954350530
220,19361.2207991928973364067079725383990,19359.6,1.6207991928973364067079725383990
221,19537.6217146532422243066556372153255,19536.0,1.6217146532422243066556372153255
222,19714.8226260183343794565185189838365,19713.2,1.6226260183343794565185189838365
223,19892.8235333257571970277240995014352,19891.2,1.6235333257571970277240995014352
224,20071.6244366126072903224855347235317,20070.0,1.6244366126072903224855347235317
225,20251.2253359155037056801010692641026,20249.6,1.6253359155037056801010692641026
226,20431.6262312705969503159911280985268,20430.0,1.6262312705969503159911280985268
227,20612.8271227135778422247033282579490,20611.2,1.6271227135778422247033282579490
228,20794.8280102796861844690366214770504,20793.2,1.6280102796861844690366214770504
229,20977.6288940037192715441577473490656,20976.0,1.6288940037192715441577473490656
230,21161.2297739200402330659331775600547,21159.6,1.6297739200402330659331775600547
231,21345.6306500625862171633013780189515,21344.0,1.6306500625862171633013780189515
232,21530.8315224648764246034266585195763,21529.2,1.6315224648764246034266585195763
233,21716.8323911600199892857321532171802,21715.2,1.6323911600199892857321532171802
234,21903.6332561807237219340978725630617,21902.0,1.6332561807237219340978725630617
235,22091.2341175592997108759326708370285,22089.6,1.6341175592997108759326708370285
236,22279.6349753276727903609429862189231,22278.0,1.6349753276727903609429862189231
237,22468.8358295173878808322607018494902,22467.2,1.6358295173878808322607018494902
238,22658.8366801596172037142354852418898,22657.2,1.6366801596172037142354852418898
