Eigenstate,Energy,Kinetic Energy,Potential Energy
1,0.500000000323475820688591155525915470,0.0,0.500000000323475820688591155525915470
2,1.84623093976261994379980292614245710,1.2,0.64623093976261994379980292614245710
3,3.93633761590746027514115100632358239,3.2,0.73633761590746027514115100632358239
4,6.79966529073361479832276449506572222,6.0,0.79966529073361479832276449506572222
5,10.4480465976653703441569799659233556,9.6,0.8480465976653703441569799659233556
6,14.8870660315021125088788562317841180,14.0,0.8870660315021125088788562317841180
7,20.1197208737033329981781127821318476,19.2,0.9197208737033329981781127821318476
8,26.1477839106576080307457168599107030,25.2,0.9477839106576080307457168599107030
9,32.9723836413783987148080948553932706,32.0,0.9723836413783987148080948553932706
10,40.5942803200192536365171872036514836,39.6,0.9942803200192536365171872036514836
11,49.0140095167250395282077003481327083,48.0,1.0140095167250395282077003481327083
12,58.2319623268036037654776837845009604,57.2,1.0319623268036037654776837845009604
13,68.2484328803236552781504130904732250,67.2,1.0484328803236552781504130904732250
14,79.0636478749710925724720577897259184,78.0,1.0636478749710925724720577897259184
15,90.6777856918632891694617705102345790,89.6,1.0777856918632891694617705102345790
16,103.090989200419602012500620047307221,102.0,1.090989200419602012500620047307221
17,116.303374591822917219887769283349862,115.2,1.103374591822917219887769283349862
18,130.315037630025877526356608638904089,129.2,1.115037630025877526356608638904089
19,145.126058174854879358316476023408747,144.0,1.126058174854879358316476023408747
20,160.736503519644023166103721318853486,159.6,1.136503519644023166103721318853486
21,177.146430897316820759358825074856843,176.0,1.146430897316820759358825074856843
22,194.355889391544943039305694459476367,193.2,1.155889391544943039305694459476367
23,212.364921414684750466044779948484716,211.2,1.164921414684750466044779948484716
24,231.173563865177719760282313633458567,230.0,1.173563865177719760282313633458567
25,250.781849044346373922267304079323420,249.6,1.181849044346373922267304079323420
26,271.189805390201872941383921433734472,270.0,1.189805390201872941383921433734472
27,292.397458070406592097172053773096328,291.2,1.197458070406592097172053773096328
28,314.404829465633163894774060887290872,313.2,1.204829465633163894774060887290872
29,337.211939566766431822638910169710572,336.0,1.211939566766431822638910169710572
30,360.818806303745276527368875147600471,359.6,1.218806303745276527368875147600471
31,385.225445819695336483668530513511001,384.0,1.225445819695336483668530513511001
32,410.431872700925745640475209262886465,409.2,1.231872700925745640475209262886465
33,436.438100171053362711348209059979073,435.2,1.238100171053362711348209059979073
34,463.244140255767420504493616641907082,462.0,1.244140255767420504493616641907082
35,490.850003923408328617230130494451412,489.6,1.250003923408328617230130494451412
36,519.255701205500883937489131033258623,518.0,1.255701205500883937489131033258623
37,548.461241300578058843650417294299980,547.2,1.261241300578058843650417294299980
38,578.466632664001118248749088557083832,577.2,1.266632664001118248749088557083832
39,609.271883085983967983933194205391055,608.0,1.271883085983967983933194205391055
40,640.876999759633816231232872577712203,639.6,1.276999759633816231232872577712203
41,673.281989340503479440983068443636541,672.0,1.281989340503479440983068443636541
42,706.486857998895671566951150866189751,705.2,1.286857998895671566951150866189751
43,740.491611465953129106681326690613283,739.2,1.291611465953129106681326690613283
44,775.296255074400330418566710343126995,774.0,1.296255074400330418566710343126995
45,810.900793794664998217765557875651330,809.6,1.300793794664998217765557875651330
46,847.305232266994437870164664932810671,846.0,1.305232266994437870164664932810671
47,884.509574830088287491002516993701612,883.2,1.309574830088287491002516993701612
48,922.513825546691669490307261341459445,921.2,1.313825546691669490307261341459445
49,961.317988226528070663236921612883564,960.0,1.317988226528070663236921612883564
50,1000.92206644689715520961655800430799,999.6,1.32206644689715520961655800430799
51,1041.32606357121724810438090431768762,1040.0,1.32606357121724810438090431768762
52,1082.52998276575388102623738229233224,1081.2,1.32998276575388102623738229233224
53,1124.53382701474334293324171336999473,1123.2,1.33382701474334293324171336999473
54,1167.33759913409261624245982678445055,1166.0,1.33759913409261624245982678445055
55,1210.94130178381360407832554922913951,1209.6,1.34130178381360407832554922913951
56,1255.34493747932947948413672687749895,1254.0,1.34493747932947948413672687749895
57,1300.54850860177378852597861625158295,1299.2,1.34850860177378852597861625158295
58,1346.55201740738814203204620858626768,1345.2,1.35201740738814203204620858626768
59,1393.35546603611157676303753520984075,1392.0,1.35546603611157676303753520984075
60,1440.95885651944364230157200816780971,1439.6,1.35885651944364230157200816780971
61,1489.36219078765370572106941046006372,1488.0,1.36219078765370572106941046006372
62,1538.56547067640066508940172388317403,1537.2,1.36547067640066508940172388317403
63,1588.56869793282002097360087941087136,1587.2,1.36869793282002097360087941087136
64,1639.37187422112894263198004078174253,1638.0,1.37187422112894263198004078174253
65,1690.97500112779443074005099864819274,1689.6,1.37500112779443074005099864819274
66,1743.37808016630483115756338973296385,1742.0,1.37808016630483115756338973296385
67,1796.58111278158069195266856880508820,1795.2,1.38111278158069195266856880508820
68,1850.58410035405719973840320586440235,1849.2,1.38410035405719973840320586440235
69,1905.38704420346711870596695683402899,1904.0,1.38704420346711870596695683402899
70,1960.98994559235022747100460378401858,1959.6,1.38994559235022747100460378401858
71,2017.39280572931265014538399113298948,2016.0,1.39280572931265014538399113298948
72,2074.59562577205717980458148305066926,2073.2,1.39562577205717980458148305066926
73,2132.59840683020363951439617679747944,2131.2,1.39840683020363951439617679747944
74,2191.40114996791650723216554925421925,2190.0,1.40114996791650723216554925421925
75,2251.00385620635539979656393425013318,2249.6,1.40385620635539979656393425013318
76,2311.40652652596256166331723635474954,2310.0,1.40652652596256166331723635474954
77,2372.60916186860020164576154847912080,2371.2,1.40916186860020164576154847912080
78,2434.61176313954935512100273892628198,2433.2,1.41176313954935512100273892628198
79,2497.41433120938090234245371605164742,2496.0,1.41433120938090234245371605164742
80,2561.01686691570843537389229621169166,2559.6,1.41686691570843537389229621169166
81,2625.41937106483181681872058998447543,2624.0,1.41937106483181681872058998447543
82,2690.62184443327951206756411914802029,2689.2,1.42184443327951206756411914802029
83,2756.62428776925708805357342761188821,2755.2,1.42428776925708805357342761188821
84,2823.42670179400864721308870156174080,2822.0,1.42670179400864721308870156174080
85,2891.02908720309740607316845257028522,2889.6,1.42908720309740607316845257028522
86,2959.43144466761111202210778835338035,2958.0,1.43144466761111202210778835338035
87,3028.63377483529753434828937551427070,3027.2,1.43377483529753434828937551427070
88,3098.63607833163484225498724689887302,3097.2,1.43607833163484225498724689887302
89,3169.43835576084129905660045512037253,3168.0,1.43835576084129905660045512037253
90,3241.04060770682835854507913462425549,3239.6,1.44060770682835854507913462425549
91,3313.44283473410092806327382885864028,3312.0,1.44283473410092806327382885864028
92,3386.64503738860827452441461134861546,3385.2,1.44503738860827452441461134861546
93,3460.64721619854878736189141045558981,3459.2,1.44721619854878736189141045558981
94,3535.44937167513156946478516383411972,3534.0,1.44937167513156946478516383411972
95,3611.05150431329760600059077527319007,3609.6,1.45150431329760600059077527319007
96,3687.45361459240305920447403079573301,3686.0,1.45361459240305920447403079573301
97,3764.65570297686705287231732336247246,3763.2,1.45570297686705287231732336247246
98,3842.65776991678613742053133260991544,3841.2,1.45776991678613742053133260991544
99,3921.45981584851747290344509467107867,3920.0,1.45981584851747290344509467107867
100,4001.06184119523262103868869475449525,3999.6,1.46184119523262103868869475449525
101,4081.46384636744370798685330159267447,4080.0,1.46384636744370798685330159267447
102,4162.66583176350359405701206062679463,4161.2,1.46583176350359405701206062679463
103,4244.66779777008157859609633209505131,4243.2,1.46779777008157859609633209505131
104,4327.46974476261606105543678103736412,4326.0,1.46974476261606105543678103736412
105,4411.07167310574548615404205738086043,4409.6,1.47167310574548615404205738086043
106,4495.47358315371881029397205582591206,4494.0,1.47358315371881029397205582591206
107,4580.67547525078664830123174662158116,4579.2,1.47547525078664830123174662158116
108,4666.67734973157418032608220179968582,4665.2,1.47734973157418032608220179968582
109,4753.47920692143683014315953247126607,4752.0,1.47920692143683014315953247126607
110,4841.08104713679966367169246806353046,4839.6,1.48104713679966367169246806353046
111,4929.48287068548139067494075499595360,4928.0,1.48287068548139067494075499595360
112,5018.68467786700380316437076346164153,5017.2,1.48467786700380316437076346164153
113,5108.68646897288742849831926606008226,5107.2,1.48646897288742849831926606008226
114,5199.48824428693412640717124475658460,5198.0,1.48824428693412640717124475658460
115,5291.09000408549731872860532784758503,5289.6,1.49000408549731872860532784758503
116,5383.49174863774049230484299710128058,5382.0,1.49174863774049230484299710128058
117,5476.69347820588458378086548110816063,5475.2,1.49347820588458378086548110816063
118,5570.69519304544481401148663651921551,5569.2,1.49519304544481401148663651921551
119,5665.49689340545750607149097390423656,5664.0,1.49689340545750607149097390423656
120,5761.09857952869739502084329407388605,5759.6,1.49857952869739502084329407388605
121,5857.50025165188589930977021776371854,5856.0,1.50025165188589930977021776371854
122,5954.70191000589080479541628857631493,5953.2,1.50191000589080479541628857631493
123,6052.70355481591778014888284997510883,6051.2,1.50355481591778014888284997510883
124,6151.50518630169412475168840671222604,6150.0,1.50518630169412475168840671222604
125,6251.10680467764512061446611683499867,6249.6,1.50680467764512061446611683499867
126,6351.50841015306334465345536073196200,6350.0,1.50841015306334465345536073196200
127,6452.71000293227127708250161756163262,6451.2,1.51000293227127708250161756163262
128,6554.71158321477751909113022584089775,6553.2,1.51158321477751909113022584089775
129,6657.51315119542692090606603875762540,6656.0,1.51315119542692090606603875762540
130,6761.11470706454490295174765939865904,6759.6,1.51470706454490295174765939865904
131,6865.51625100807623742131449324765480,6864.0,1.51625100807623742131449324765480
132,6970.71778320771854259239248660957870,6969.2,1.51778320771854259239248660957870
133,7076.71930384105073044046249226751016,7075.2,1.51930384105073044046249226751016
134,7183.52081308165663682669642522181738,7182.0,1.52081308165663682669642522181738
135,7291.12231109924404542884674837716397,7289.6,1.52231109924404542884674837716397
136,7399.52379805975931289630011732930247,7398.0,1.52379805975931289630011732930247
137,7508.72527412549778940251783921374958,7507.2,1.52527412549778940251783921374958
138,7618.72673945521021515614786544236332,7617.2,1.52673945521021515614786544236332
139,7729.52819420420527132624533799485739,7728.0,1.52819420420527132624533799485739
140,7841.12963852444844839113212524882940,7839.6,1.52963852444844839113212524882940
141,7953.53107256465739036298843812280087,7952.0,1.53107256465739036298843812280087
142,8066.73249647039386526707205527814699,8065.2,1.53249647039386526707205527814699
143,8180.73391038415250360435145629716678,8179.2,1.53391038415250360435145629716678
144,8295.53531444544643934676603995371393,8294.0,1.53531444544643934676603995371393
145,8411.13670879088998382663500289241631,8409.6,1.53670879088998382663500289241631
146,8527.53809355427845501305803142951539,8526.0,1.53809355427845501305803142951539
147,8644.73946886666527646525034182379286,8643.2,1.53946886666527646525034182379286
148,8762.74083485643646129479477793226386,8761.2,1.54083485643646129479477793226386
149,8881.54219164938258294079950168747136,8880.0,1.54219164938258294079950168747136
150,9001.14353936876833640194017604736654,8999.6,1.54353936876833640194017604736654
151,9121.54487813539978584283026339708607,9120.0,1.54487813539978584283026339708607
152,9242.74620806768938887715095163200256,9241.2,1.54620806768938887715095163200256
153,9364.74752928171888648058572650949460,9363.2,1.54752928171888648058572650949460
154,9487.54884189130014243623326984257996,9486.0,1.54884189130014243623326984257996
155,9611.15014600803401055201348551018347,9609.6,1.55014600803401055201348551018347
156,9735.55144174136730752004391726356956,9734.0,1.55144174136730752004391726356956
157,9860.75272919864796246828976030659173,9859.2,1.55272919864796246828976030659173
158,9986.75400848517841502639413235238310,9985.2,1.55400848517841502639413235238310
159,10113.5552797042673255824162964036852,10112.0,1.5552797042673255824162964036852
160,10241.1565429572796640720200322814645,10239.6,1.5565429572796640720200322814645
161,10369.5577983436852358003331099997668,10368.0,1.5577983436852358003331099997668
162,10498.7590459611057037617915170710178,10497.2,1.5590459611057037617915170710178
163,10628.7602859053601623155866918638182,10627.2,1.5602859053601623155866918638182
164,10759.5615182705093168577484023050072,10758.0,1.5615182705093168577484023050072
165,10891.1627431488983180946325667081274,10889.6,1.5627431488983180946325667081274
166,11023.5639606311983014380742571358549,11022.0,1.5639606311983014380742571358549
167,11156.7651708064466787593238515697290,11155.2,1.5651708064466787593238515697290
168,11290.7663737620862251956073578016033,11289.2,1.5663737620862251956073578016033
169,11425.5675695840030060764538012178367,11424.0,1.5675695840030060764538012178367
170,11561.1687583565631837181042512997124,11559.6,1.5687583565631837181042512997124
171,11697.5699401626487442857919034890240,11696.0,1.5699401626487442857919034890240
172,11834.7711150836921825960303065200472,11833.2,1.5711150836921825960303065200472
173,11972.7722831997101802668643552147882,11971.2,1.5722831997101802668643552147882
174,12111.5734445893363130653777626245414,12110.0,1.5734445893363130653777626245414
175,12251.1745993298528214433254023955950,12249.6,1.5745993298528214433254023955950
176,12391.5757474972214739733415850715978,12390.0,1.5757474972214739733415850715978
177,12532.7768891661135569525271923342290,12531.2,1.5768891661135569525271923342290
178,12674.7780244099390193342505319156596,12673.2,1.5780244099390193342505319156596
179,12817.5791533008747994397228768809846,12816.0,1.5791533008747994397228768809846
180,12961.1802759098923644025495529353584,12959.6,1.5802759098923644025495529353584
181,13105.5813923067844850018272946512238,13104.0,1.5813923067844850018272946512238
182,13250.7825025601912735863599034316838,13249.2,1.5825025601912735863599034316838
183,13396.7836067376255081466496934630905,13395.2,1.5836067376255081466496934630905
184,13543.5847049054972667837919381298068,13542.0,1.5847049054972667837919381298068
185,13691.1857971291378943912043553154487,13689.6,1.5857971291378943912043553154487
186,13839.5868834728233225258327560943811,13838.0,1.5868834728233225258327560943811
187,13988.7879639997967662775887598898269,13987.2,1.5879639997967662775887598898269
188,14138.7890387722908135818221912576031,14137.2,1.5890387722908135818221912576031
189,14289.5901078515489307146460929147258,14288.0,1.5901078515489307146460929147258
190,14441.1911712978463996311728398505287,14439.6,1.5911712978463996311728398505287
191,14593.5922291705107063784495832192134,14592.0,1.5922291705107063784495832192134
192,14746.7932815279413969747994878740374,14745.2,1.5932815279413969747994878740374
193,14900.7943284276294190691945040825106,14899.2,1.5943284276294190691945040825106
194,15055.5953699261759627315053809271262,15054.0,1.5953699261759627315053809271262
195,15211.1964060793108183163432911426430,15209.6,1.5964060793108183163432911426430
196,15367.5974369419102651030493641360837,15366.0,1.5974369419102651030493641360837
197,15524.7984625680145050981285820239071,15523.2,1.5984625680145050981285820239071
198,15682.7994830108446561733981438263968,15681.2,1.5994830108446561733981438263968
199,15841.6004983228193173853378486467487,15840.0,1.6004983228193173853378486467487
200,16001.2015085555707204278142557519579,15999.6,1.6015085555707204278142557519579
201,16161.6025137599604782069294861136700,16160.0,1.6025137599604782069294861136700
202,16322.8035139860949439268504168910333,16321.2,1.6035139860949439268504168910333
203,16484.8045092833401913544178668412495,16483.2,1.6045092833401913544178668412495
204,16647.6054997003366278909201357259579,16646.0,1.6054997003366278909201357259579
205,16811.2064852850132504302652793495246,16809.6,1.6064852850132504302652793495246
206,16975.6074660846015570366024788346584,16974.0,1.6074660846015570366024788346584
207,17140.8084421456491203267995798830030,17139.2,1.6084421456491203267995798830030
208,17306.8094135140328367944227587538801,17305.2,1.6094135140328367944227587538801
209,17473.6103802349718578337493518499763,17472.0,1.6103802349718578337493518499763
210,17641.2113423530402139756038916805887,17639.6,1.6113423530402139756038916805887
211,17809.6122999121791397106597636408565,17808.0,1.6122999121791397106597636408565
212,17978.8132529557091091445423556132449,17977.2,1.6132529557091091445423556132449
213,18148.8142015263415868803653228225986,18147.2,1.6142015263415868803653228225986
214,18319.6151456661905091226778874031726,18318.0,1.6151456661905091226778874031726
215,18491.2160854167834942279332638263039,18489.6,1.6160854167834942279332638263039
216,18663.6170208190727966753917627188623,18662.0,1.6170208190727966753917627188623
217,18836.8179519134460084375830788059718,18835.2,1.6179519134460084375830788059718
218,19010.8188787397365167435005738530089,19009.2,1.6188787397365167435005738530089
219,19185.6198013372337215288460966100614,19184.0,1.6198013372337215288460966100614
220,19361.2207197446930251035130511710691,19359.6,1.6207197446930251035130511710691
221,19537.6216340003455919613879376484937,19536.0,1.6216340003455919613879376484937
222,19714.8225441419078959533375609969770,19713.2,1.6225441419078959533375609969770
223,19892.8234502065910484085050030593537,19891.2,1.6234502065910484085050030593537
224,20071.6243522311099222882735962639159,20070.0,1.6243522311099222882735962639159
225,20251.2252502516920749553437329708988,20249.6,1.6252502516920749553437329708988
226,20431.6261443040864731225936578092671,20430.0,1.6261443040864731225936578092671
227,20612.8270344235720286522085539159127,20611.2,1.6270344235720286522085539159127
228,20794.8279206449659470438161344118423,20793.2,1.6279206449659470438161344118423
229,20977.6288030026318957932681705982663,20976.0,1.6288030026318957932681705982663
230,21161.2296815304879973387852361854997,21159.6,1.6296815304879973387852361854997
231,21345.6305562620146484152259618635662,21344.0,1.6305562620146484152259618635662
232,21530.8314272302621762579769051230595,21529.2,1.6314272302621762579769051230595
233,21716.8322944678583266756162801845712,21715.2,1.6322944678583266756162801845712
234,21903.6331580070156001722383683184471,21902.0,1.6331580070156001722383683184471
235,22091.2340178795384293265332375380428,22089.6,1.6340178795384293265332375380428
236,22279.6348741168302071636337024902210,22278.0,1.6348741168302071636337024902210
237,22468.8357267499001701783725870065506,22467.2,1.6357267499001701783725870065506
238,22658.8365758093701377808239263334967,22657.2,1.6365758093701377808239263334967
