Eigenstate,Energy,Kinetic Energy,Potential Energy
1,0.500000000451515470402956492958644175,0.0,0.500000000451515470402956492958644175
2,1.84623094059841720029774301532493017,1.2,0.64623094059841720029774301532493017
3,3.93633761836264374035520311242482299,3.2,0.73633761836264374035520311242482299
4,6.79966529584775690468280280958391408,6.0,0.79966529584775690468280280958391408
5,10.4480466065247187002024623404242836,9.6,0.8480466065247187002024623404242836
6,14.8870660452123107560572143608715962,14.0,0.8870660452123107560572143608715962
7,20.1197208933794321448801786759340690,19.2,0.9197208933794321448801786759340690
8,26.1477839374199585124352005536095727,25.2,0.9477839374199585124352005536095727
9,32.9723836763507933193884712589033490,32.0,0.9723836763507933193884712589033490
10,40.5942803643280339795666235305859831,39.6,0.9942803643280339795666235305859831
11,49.0140095714986562515865829375916936,48.0,1.0140095714986562515865829375916936
12,58.2319623931724080772714990759616133,57.2,1.0319623931724080772714990759616133
13,68.2484329594198165693483101926089573,67.2,1.0484329594198165693483101926089573
14,79.0636479679285887273948354167998687,78.0,1.0636479679285887273948354167998687
15,90.6777857998179408698765195367415612,89.6,1.0777857998179408698765195367415612
16,103.090989324509134817626134739814390,102.0,1.090989324509134817626134739814390
17,116.303374733187041857552267623648633,115.2,1.103374733187041857552267623648633
18,130.315037789806382542139926131693167,129.2,1.115037789806382542139926131693167
19,145.126058354195732424330967694822836,144.0,1.126058354195732424330967694822836
20,160.736503719691478646797671425323082,159.6,1.136503719691478646797671425323082
21,177.146431119219531935505909121663195,176.0,1.146431119219531935505909121663195
22,194.355889636454077903995747328662173,193.2,1.155889636454077903995747328662173
23,212.364921683754110341715503626320458,211.2,1.164921683754110341715503626320458
24,231.173564159563860210024850276605253,230.0,1.173564159563860210024850276605253
25,250.781849365208727581671261693500607,249.6,1.181849365208727581671261693500607
26,271.189805738702874003612460443258096,270.0,1.189805738702874003612460443258096
27,292.397458447711802259248466262730582,291.2,1.197458447711802259248466262730582
28,314.404829872911399627175170804104419,313.2,1.204829872911399627175170804104419
29,337.211940005189892863760124726191065,336.0,1.211940005189892863760124726191065
30,360.818806774489675533612881743028508,359.6,1.218806774489675533612881743028508
31,385.225446323940029787776197875268130,384.0,1.225446323940029787776197875268130
32,410.431873239853865087302740164111310,409.2,1.231873239853865087302740164111310
33,436.438100745851948553025636571249986,435.2,1.238100745851948553025636571249986
34,463.244140867627555346785976451132506,462.0,1.244140867627555346785976451132506
35,490.850004573525272416687567436595452,489.6,1.250004573525272416687567436595452
36,519.255701895074210055140522341025712,518.0,1.255701895074210055140522341025712
37,548.461242030811791165951534748276999,547.2,1.261242030811791165951534748276999
38,578.466633436103869390524921616517973,577.2,1.266633436103869390524921616517973
39,609.271883901169078591367808369896455,608.0,1.271883901169078591367808369896455
40,640.877000619119495405719366037201144,639.6,1.277000619119495405719366037201144
41,673.281990245512946306972173190771403,672.0,1.281990245512946306972173190771403
42,706.486858950657298008924025146546139,705.2,1.286858950657298008924025146546139
43,740.491612465700583702091578764656048,739.2,1.291612465700583702091578764656048
44,775.296256123372723595104952389390760,774.0,1.296256123372723595104952389390760
45,810.900794894107028664640878370439979,809.6,1.300794894107028664640878370439979
46,847.305233418156540234306317862056601,846.0,1.305233418156540234306317862056601
47,884.509576034226781390188397035588708,883.2,1.309576034226781390188397035588708
48,922.513826805068909876246884471821615,921.2,1.313826805068909876246884471821615
49,961.317989540412599568591704752550389,960.0,1.317989540412599568591704752550389
50,1000.92206781756385491384488128677276,999.6,1.32206781756385491384488128677276
51,1041.32606499994749575416075400807624,1040.0,1.32606499994749575416075400807624
52,1082.52998425383570474705474431741273,1081.2,1.32998425383570474705474431741273
53,1124.53382856347157946954670887336235,1123.2,1.33382856347157946954670887336235
54,1167.33760074476907016459086560695359,1166.0,1.33760074476907016459086560695359
55,1210.94130345774720859519065232984944,1209.6,1.34130345774720859519065232984944
56,1255.34493921783645890142402378657208,1254.0,1.34493921783645890142402378657208
57,1300.54851040617782239044999348543250,1299.2,1.34851040617782239044999348543250
58,1346.55201927902053100325284549397648,1345.2,1.35201927902053100325284549397648
59,1393.35546797631141025458367972260334,1392.0,1.35546797631141025458367972260334
60,1440.95885852955796793485040796914649,1439.6,1.35885852955796793485040796914649
61,1489.36219286903770063519681448135066,1488.0,1.36219286903770063519681448135066
62,1538.56547283041780915190015608260939,1537.2,1.36547283041780915190015608260939
63,1588.56870016084227193720054356086619,1587.2,1.36870016084227193720054356086619
64,1639.37187652453691328376426668164750,1638.0,1.37187652453691328376426668164750
65,1690.97500350797756809002496512213901,1689.6,1.37500350797756809002496512213901
66,1743.37808262466159771460617249916308,1742.0,1.37808262466159771460617249916308
67,1796.58111531951874913672521339635297,1795.2,1.38111531951874913672521339635297
68,1850.58410297299359347868969851347313,1849.2,1.38410297299359347868969851347313
69,1905.38704690482846727589884101748766,1904.0,1.38704690482846727589884101748766
70,1960.98994837757291161151824090384311,1959.6,1.38994837757291161151824090384311
71,2017.39280859984300552930204263688269,2016.0,1.39280859984300552930204263688269
72,2074.59562872935169189567887755881639,2073.2,1.39562872935169189567887755881639
73,2132.59840987572914087585378988248257,2131.2,1.39840987572914087585378988248257
74,2191.40115310315037734015363913572434,2190.0,1.40115310315037734015363913572434
75,2251.00385943278576741578038680171216,2249.6,1.40385943278576741578038680171216
76,2311.40652984508850984241410245757368,2310.0,1.40652984508850984241410245757368
77,2372.60916528193197539173191229634167,2371.2,1.40916528193197539173191229634167
78,2434.61176664860857181276640630978665,2433.2,1.41176664860857181276640630978665
79,2497.41433481570076494507751780931884,2496.0,1.41433481570076494507751780931884
80,2561.01687062083394851610791974161212,2559.6,1.41687062083394851610791974161212
81,2625.41937487032000579766375927301346,2624.0,1.41937487032000579766375927301346
82,2690.62184834069964484595100989030069,2689.2,1.42184834069964484595100989030069
83,2756.62429178019090031585694911824366,2755.2,1.42429178019090031585694911824366
84,2823.42670591005057054849895509407864,2822.0,1.42670591005057054849895509407864
85,2891.02909142585479935493894323722133,2889.6,1.42909142585479935493894323722133
86,2959.43144899870449605362275461684594,2958.0,1.43144899870449605362275461684594
87,3028.63377927636082984836058604693512,3027.2,1.43377927636082984836058604693512
88,3098.63608288431561125597946316590082,3097.2,1.43608288431561125597946316590082
89,3169.43836042680098979067594322909788,3168.0,1.43836042680098979067594322909788
90,3241.04061248774255389542487377045098,3239.6,1.44061248774255389542487377045098
91,3313.44283963165959765881008679371147,3312.0,1.44283963165959765881008679371147
92,3386.64504240451603055816287219831177,3385.2,1.44504240451603055816287219831177
93,3460.64722133452514421490320115898628,3459.2,1.44722133452514421490320115898628
94,3535.44937693291120721930389685230210,3534.0,1.44937693291120721930389685230210
95,3611.05150969463063792793695048017379,3609.6,1.45150969463063792793695048017379
96,3687.45362009905530331501019722736309,3686.0,1.45362009905530331501019722736309
97,3764.65570861062030761676792192707523,3763.2,1.45570861062030761676792192707523
98,3842.65777567943846163389969906842953,3841.2,1.45777567943846163389969906842953
99,3921.45982174188347008479479619193946,3920.0,1.45982174188347008479479619193946
100,4001.06184722114372806213174623351071,3999.6,1.46184722114372806213174623351071
101,4081.46385252774848834122317106088122,4080.0,1.46385252774848834122317106088122
102,4162.66583806006803571389097191722382,4161.2,1.46583806006803571389097191722382
103,4244.66780420478939660811821508433261,4243.2,1.46780420478939660811821508433261
104,4327.46975133736900498910189788157669,4326.0,1.46975133736900498910189788157669
105,4411.07167982246365246365510039787016,4409.6,1.47167982246365246365510039787016
106,4495.47359001434095974575929834072734,4494.0,1.47359001434095974575929834072734
107,4580.67548225727052855920200378561888,4579.2,1.47548225727052855920200378561888
108,4666.67735688589685381377511075083550,4665.2,1.47735688589685381377511075083550
109,4753.47921422559500729807646158252642,4752.0,1.47921422559500729807646158252642
110,4841.08105459281004171192857407862808,4839.6,1.48105459281004171192857407862808
111,4929.48287829538099800033604861250637,4928.0,1.48287829538099800033604861250637
112,5018.68468563285034951737702724080258,5017.2,1.48468563285034951737702724080258
113,5108.68647689675966101273645636304358,5107.2,1.48647689675966101273645636304358
114,5199.48825237093219167595002050194927,5198.0,1.48825237093219167595002050194927
115,5291.09001233174313102503700660726158,5289.6,1.49001233174313102503700660726158
116,5383.49175704837810809467372336286806,5382.0,1.49175704837810809467372336286806
117,5476.69348678308058266617593783053758,5475.2,1.49348678308058266617593783053758
118,5570.69520179138868625057883300642903,5569.2,1.49520179138868625057883300642903
119,5665.49690232236204682251642298891439,5664.0,1.49690232236204682251642298891439
120,5761.09858861879910546050420486296002,5759.6,1.49858861879910546050420486296002
121,5857.50026091744539478211993212430048,5856.0,1.50026091744539478211993212430048
122,5954.70191944919323014958990191693746,5953.2,1.50191944919323014958990191693746
123,6052.70356443927323242850025521648791,6051.2,1.50356443927323242850025521648791
124,6151.50519610743808340269597009739488,6150.0,1.50519610743808340269597009739488
125,6251.10681466813888538232478229036818,6249.6,1.50681466813888538232478229036818
126,6351.50842033069448134484216770252996,6350.0,1.50842033069448134484216770252996
127,6452.71001329945407137107639786812278,6451.2,1.51001329945407137107639786812278
128,6554.71159377395343855143051494653687,6553.2,1.51159377395343855143051494653687
129,6657.51316194906508546423574884096536,6656.0,1.51316194906508546423574884096536
130,6761.11471801514256394658503570284037,6759.6,1.51471801514256394658503570284037
131,6865.51626215815926547404315873999911,6864.0,1.51626215815926547404315873999911
132,6970.71779455984192448862517649132963,6969.2,1.51779455984192448862517649132963
133,7076.71931539779907523303787558689020,7075.2,1.51931539779907523303787558689020
134,7183.52082484564469137344121076638584,7182.0,1.52082484564469137344121076638584
135,7291.12232307311721958484072298594232,7289.6,1.52232307311721958484072298594232
136,7399.52381024619421458591408239437027,7398.0,1.52381024619421458591408239437027
137,7508.72528652720276980235926992438059,7507.2,1.52528652720276980235926992438059
138,7618.72675207492592422608595062808052,7617.2,1.52675207492592422608595062808052
139,7729.52820704470522393190807416949236,7728.0,1.52820704470522393190807416949236
140,7841.12965158853960126767770320282526,7839.6,1.52965158853960126767770320282526
141,7953.53108585518073017655278519560485,7952.0,1.53108585518073017655278519560485
142,8066.73250999022500803710127461761978,8065.2,1.53250999022500803710127461761978
143,8180.73392413620230575703557723547437,8179.2,1.53392413620230575703557723547437
144,8295.53532843266162067701715836492423,8294.0,1.53532843266162067701715836492423
145,8411.13672301625376265349950496742061,8409.6,1.53672301625376265349950496742061
146,8527.53810802081119582112918805180586,8526.0,1.53810802081119582112918805180586
147,8644.73948357742515033256153684114577,8643.2,1.53948357742515033256153684114577
148,8762.74084981452011941583178652902297,8761.2,1.54084981452011941583178652902297
149,8881.54220685792584356168507708148309,8880.0,1.54220685792584356168507708148309
150,9001.14355483094688549351811847837744,8999.6,1.54355483094688549351811847837744
151,9121.54489385442989184632556760988187,9120.0,1.54489385442989184632556760988187
152,9242.74622404682863186631073545171829,9241.2,1.54622404682863186631073545171829
153,9364.74754552426690209372718488297260,9363.2,1.54754552426690209372718488297260
154,9487.54885840059938094144494472347029,9486.0,1.54885840059938094144494472347029
155,9611.15016278747051141889379713976817,9609.6,1.55016278747051141889379713976817
156,9735.55145879437148988181473180363166,9734.0,1.55145879437148988181473180363166
157,9860.75274652869543186891707532172514,9859.2,1.55274652869543186891707532172514
158,9986.75402609579078685848701594351819,9985.2,1.55402609579078685848701594351819
159,10113.5552975990130656331729712684157,10112.0,1.5552975990130656331729712684157
160,10241.1565611397749466063613521804239,10239.6,1.5565611397749466063613521804239
161,10369.5578168175948196226180648754372,10368.0,1.5578168175948196226180648754372
162,10498.7590647301438267101687719180586,10497.2,1.5590647301438267101687719180586
163,10628.7603049732914546560998993873600,10627.2,1.5603049732914546560998993873600
164,10759.5615376411497340588199616060671,10758.0,1.5615376411497340588199616060671
165,10891.1627628261160934764907612340866,10889.6,1.5627628261160934764907612340866
166,11023.5639806189149192060931925130402,11022.0,1.5639806189149192060931925130402
167,11156.7651911086378679451348458085242,11155.2,1.5651911086378679451348458085242
168,11290.7663943827829750452189729729890,11289.2,1.5663943827829750452189729729890
169,11425.5675905272926034405134882310581,11424.0,1.5675905272926034405134882310581
170,11561.1687796265902730158676834454104,11559.6,1.5687796265902730158676834454104
171,11697.5699617636164106313476632687552,11696.0,1.5699617636164106313476632687552
172,11834.7711370198630586928899730828367,11833.2,1.5711370198630586928899730828367
173,11972.7723054754075776951863561738418,11971.2,1.5723054754075776951863561738418
174,12111.5734672089453786048672827544623,12110.0,1.5734672089453786048672827544623
175,12251.1746222978217190942769724304021,12249.6,1.5746222978217190942769724304021
176,12391.5757708180625933583781897993525,12390.0,1.5757708180625933583781897993525
177,12532.7769128444047488023755435365066,12531.2,1.5769128444047488023755435365066
178,12674.7780484503248587823919001061735,12673.2,1.5780484503248587823919001061735
179,12817.5791777080678778730174488943897,12816.0,1.5791777080678778730174488943897
180,12961.1803006886746106379602947397855,12959.6,1.5803006886746106379602947397855
181,13105.5814174620085165832109567390541,13104.0,1.5814174620085165832109567390541
182,13250.7825280967817790199727307572851,13249.2,1.5825280967817790199727307572851
183,13396.7836326605806609195710554349901,13395.2,1.5836326605806609195710554349901
184,13543.5847312198901720359314173041559,13542.0,1.5847312198901720359314173041559
185,13691.1858238401180691389644254566358,13689.6,1.5858238401180691389644254566358
186,13839.5869105856182103638919718191710,13838.0,1.5869105856182103638919718191710
187,13988.7879915197132875146793605248964,13987.2,1.5879915197132875146793605248964
188,14138.7890667047169517968542614892808,14137.2,1.5890667047169517968542614892808
189,14289.5901362019553567511087119299021,14288.0,1.5901362019553567511087119299021
190,14441.1912000717881340804784467621736,14439.6,1.5912000717881340804784467621736
191,14593.5922583736288216368191702800478,14592.0,1.5922583736288216368191702800478
192,14746.7933111659647599934619802749560,14745.2,1.5933111659647599934619802749560
193,14900.7943585063764759541584019208516,14899.2,1.5943585063764759541584019208516
194,15055.5954004515565663869844131417832,15054.0,1.5954004515565663869844131417832
195,15211.1964370573281003651620649548714,15209.6,1.5964370573281003651620649548714
196,15367.5974683786625533580698196572168,15366.0,1.5974683786625533580698196572168
197,15524.7984944696972879009658474152628,15523.2,1.5984944696972879009658474152628
198,15682.7995153837525949605299825280636,15681.2,1.5995153837525949605299825280636
199,15841.6005311733483088872205049888734,15840.0,1.6005311733483088872205049888734
200,16001.2015418902200099538282632708807,15999.6,1.6015418902200099538282632708807
201,16161.6025475853348255180178021512394,16160.0,1.6025475853348255180178021512394
202,16322.8035483089068432486413946711083,16321.2,1.6035483089068432486413946711083
203,16484.8045441104121471364984692537652,16483.2,1.6045441104121471364984692537652
204,16647.6055350386034879728652974366252,16646.0,1.6055350386034879728652974366252
205,16811.2065211415245983321050125999900,16809.6,1.6065211415245983321050125999900
206,16975.6075024665241651507237952593284,16974.0,1.6075024665241651507237952593284
207,17140.8084790602694658499145891601683,17139.2,1.6084790602694658499145891601683
208,17306.8094509687596823023148094323047,17305.2,1.6094509687596823023148094323047
209,17473.6104182373388984681381107137525,17472.0,1.6104182373388984681381107137525
210,17641.2113809107087932817313842850808,17639.6,1.6113809107087932817313842850808
211,17809.6123390329410362362769134306729,17808.0,1.6123390329410362362769134306729
212,17978.8132926474893959859002605672553,17977.2,1.6132926474893959859002605672553
213,18148.8142417972015664388291414036732,18147.2,1.6142417972015664388291414036732
214,18319.6151865243307254167177239767424,18318.0,1.6151865243307254167177239767424
215,18491.2161268705468251897288417287729,18489.6,1.6161268705468251897288417287729
216,18663.6170628769476289492186271438227,18662.0,1.6170628769476289492186271438227
217,18836.8179945840694972887113223630413,18835.2,1.6179945840694972887113223630413
218,19010.8189220318979337816967920627032,19009.2,1.6189220318979337816967920627032
219,19185.6198452598778930499031936086521,19184.0,1.6198452598778930499031936086521
220,19361.2207643069238639557135712438556,19359.6,1.6207643069238639557135712438556
221,19537.6216792114297259516435861877314,19536.0,1.6216792114297259516435861877314
222,19714.8225900112783959201636390853725,19713.2,1.6225900112783959201636390853725
223,19892.8234967438512592061465533919345,19891.2,1.6234967438512592061465533919345
224,20071.6243994460374000484803245555330,20070.0,1.6243994460374000484803245555330
225,20251.2252981542426341207275668127657,20249.6,1.6252981542426341207275668127657
226,20431.6261929043983468784109557829355,20430.0,1.6261929043983468784109557829355
227,20612.8270837319701465220983743929718,20611.2,1.6270837319701465220983743929718
228,20794.8279706719663335597534218249857,20793.2,1.6279706719663335597534218249857
229,20977.6288537589461943010709377080148,20976.0,1.6288537589461943010709377080148
230,21161.2297330270281231582341029695189,21159.6,1.6297330270281231582341029695189
231,21345.6306085098975757385675081975988,21344.0,1.6306085098975757385675081975988
232,21530.8314802408148633426320730860244,21529.2,1.6314802408148633426320730860244
233,21716.8323482526227840666529922728965,21715.2,1.6323482526227840666529922728965
234,21903.6332125777541068779964026505395,21902.0,1.6332125777541068779964026505395
235,22091.2340732482389020671308991737155,22089.6,1.6340732482389020671308991737155
236,22279.6349302957117280173287259101268,22278.0,1.6349302957117280173287259101268
237,22468.8357837514186781654114906629078,22467.2,1.6357837514186781654114906629078
238,22658.8366336462242901489162453660919,22657.2,1.6366336462242901489162453660919
