Eigenstate,Energy,Kinetic Energy,Potential Energy
1,0.500000000012424378988935446822046770,0.0,0.500000000012424378988935446822046770
2,1.84623093773221449505566512630079585,1.2,0.64623093773221449505566512630079585
3,3.93633760994319983512570296391230904,3.2,0.73633760994319983512570296391230904
4,6.79966527831043236041546775210659180,6.0,0.79966527831043236041546775210659180
5,10.4480465761451941304526662563921279,9.6,0.8480465761451941304526662563921279
6,14.8870659982002688901956699846975672,14.0,0.8870659982002688901956699846975672
7,20.1197208259129452667196283023980957,19.2,0.9197208259129452667196283023980957
8,26.1477838456597091880146141049824715,25.2,0.9477838456597091880146141049824715
9,32.9723835564465764561253748821451473,32.0,0.9723835564465764561253748821451473
10,40.5942802124219548816568442344729003,39.6,0.9942802124219548816568442344729003
11,49.0140093837267730688264950464598702,48.0,1.0140093837267730688264950464598702
12,58.2319621656655813039503677777017192,57.2,1.0319621656655813039503677777017192
13,68.2484326883041266172299798828028793,67.2,1.0484326883041266172299798828028793
14,79.0636476493255046790843267809202107,78.0,1.0636476493255046790843267809202107
15,90.6777854298443388741147787598849564,89.6,1.0777854298443388741147787598849564
16,103.090988899277221783136465779056016,102.0,1.090988899277221783136465779056016
17,116.303374248804217287252492062672221,115.2,1.103374248804217287252492062672221
18,130.315037242375058621937857815859521,129.2,1.115037242375058621937857815859521
19,145.126057739813125091653130294710563,144.0,1.126057739813125091653130294710563
20,160.736503034449377920997394786241237,159.6,1.136503034449377920997394786241237
21,177.146430359204057036323315710251349,176.0,1.146430359204057036323315710251349
22,194.355888797745420926627265359058592,193.2,1.155888797745420926627265359058592
23,212.364920762426271107887225997949403,211.2,1.164920762426271107887225997949403
24,231.173563151684374146063812480017580,230.0,1.173563151684374146063812480017580
25,250.781848266838387950208135864430048,249.6,1.181848266838387950208135864430048
26,271.189804545895449451030720296248597,270.0,1.189804545895449451030720296248597
27,292.397457156513750383258617178397417,291.2,1.197457156513750383258617178397417
28,314.404828479361577083793272305607385,313.2,1.204828479361577083793272305607385
29,337.211938505319262398106905722097930,336.0,1.211938505319262398106905722097930
30,360.818805164321010219365189695748417,359.6,1.218805164321010219365189695748417
31,385.225444599487614685642191399718895,384.0,1.225444599487614685642191399718895
32,410.431871397123196476560926223700767,409.2,1.231871397123196476560926223700767
33,436.438098780839430847074921850074040,435.2,1.238098780839430847074921850074040
34,463.244138776320195770338348292788697,462.0,1.244138776320195770338348292788697
35,490.850002351900373496214631960506244,489.6,1.250002351900373496214631960506244
36,519.255699539099059953663130257782454,518.0,1.255699539099059953663130257782454
37,548.461239536443351876917784949816535,547.2,1.261239536443351876917784949816535
38,578.466630799288462792383359082420416,577.2,1.266630799288462792383359082420416
39,609.271881117842070353779272294686412,608.0,1.271881117842070353779272294686412
40,640.876997685204976729614030938044743,639.6,1.276997685204976729614030938044743
41,673.281987156923413473431491897390083,672.0,1.281987156923413473431491897390083
42,706.486855703293329705828975236501200,705.2,1.286855703293329705828975236501200
43,740.491609055450516092383312806292587,739.2,1.291609055450516092383312806292587
44,775.296252546112323086159868274586739,774.0,1.296252546112323086159868274586739
45,810.900791145699162334518155666728526,809.6,1.300791145699162334518155666728526
46,847.305229494450843867363862320276969,846.0,1.305229494450843867363862320276969
47,884.509571931059325071690389727374022,883.2,1.309571931059325071690389727374022
48,922.513822518261861093025602091719735,921.2,1.313822518261861093025602091719735
49,961.317985065773883760520343916525562,960.0,1.317985065773883760520343916525562
50,1000.92206315088681341877657006424348,999.6,1.32206315088681341877657006424348
51,1041.32606013701054108705263486575273,1040.0,1.32606013701054108705263486575273
52,1082.52997919040197315219417054262815,1081.2,1.32997919040197315219417054262815
53,1124.53382329528858068310161387226384,1123.2,1.33382329528858068310161387226384
54,1167.33759526756833432309660265556748,1166.0,1.33759526756833432309660265556748
55,1210.94129776724393022404382659897656,1209.6,1.34129776724393022404382659897656
56,1255.34493330972913791596501918518754,1254.0,1.34493330972913791596501918518754
57,1300.54850427614790204076727297052548,1299.2,1.34850427614790204076727297052548
58,1346.55201292273203269242073062503337,1345.2,1.35201292273203269242073062503337
59,1393.35546138941056515864890942772536,1392.0,1.35546138941056515864890942772536
60,1440.95885170767284535149544956582354,1439.6,1.35885170767284535149544956582354
61,1489.36218580777783298662896526500041,1488.0,1.36218580777783298662896526500041
62,1538.56546552537381356613630146432739,1537.2,1.36546552537381356613630146432739
63,1588.56869260758546833053578522255562,1587.2,1.36869260758546833053578522255562
64,1639.37186871861893886582155434829505,1638.0,1.37186871861893886582155434829505
65,1690.97499544492998821137854129388357,1689.6,1.37499544492998821137854129388357
66,1743.37807429999551297555486803324282,1742.0,1.37807429999551297555486803324282
67,1796.58110672872439867435357309058259,1795.2,1.38110672872439867435357309058259
68,1850.58409411153995434789796054705138,1849.2,1.38409411153995434789796054705138
69,1905.38703776816284983859879754638923,1904.0,1.38703776816284983859879754638923
70,1960.98993896112055084668835476145486,1959.6,1.38993896112055084668835476145486
71,2017.39279889900664817505556143729338,2016.0,1.39279889900664817505556143729338
72,2074.59561873951117933293741147923600,2073.2,1.39561873951117933293741147923600
73,2132.59839959224098766161854966221261,2131.2,1.39839959224098766161854966221261
74,2191.40114252134734529673868038894024,2190.0,1.40114252134734529673868038894024
75,2251.00384854797643518070469515600277,2249.6,1.40384854797643518070469515600277
76,2311.40651865255683778194949738514728,2310.0,1.40651865255683778194949738514728
77,2372.60915377693686577936160074287463,2371.2,1.40915377693686577936160074287463
78,2434.61175482638342417202960700271067,2433.2,1.41175482638342417202960700271067
79,2497.41432267145302645445359043005915,2496.0,1.41432267145302645445359043005915
80,2561.01685814974465937173116121592644,2559.6,1.41685814974465937173116121592644
81,2625.41936206754333942774944691585022,2624.0,1.41936206754333942774944691585022
82,2690.62183520136244286886086419877552,2689.2,1.42183520136244286886086419877552
83,2756.62427829939220213173098840427270,2755.2,1.42427829939220213173098840427270
84,2823.42669208286113745233076176937809,2822.0,1.42669208286113745233076176937809
85,2891.02907724731663305687166938841602,2889.6,1.42907724731663305687166938841602
86,2959.43143446383035149009327567368354,2958.0,1.43143446383035149009327567368354
87,3028.63376438013372216551265595460931,3027.2,1.43376438013372216551265595460931
88,3098.63606762168831684450963534836246,3097.2,1.43606762168831684450963534836246
89,3169.43834479269554124896028189960644,3168.0,1.43834479269554124896028189960644
90,3241.04059647704972879540184283616354,3239.6,1.44059647704972879540184283616354
91,3313.44282323923840098666165574250208,3312.0,1.44282323923840098666165574250208
92,3386.64502562519317069934346426531687,3385.2,1.44502562519317069934346426531687
93,3460.64720416309450235050896128515777,3459.2,1.44720416309450235050896128515777
94,3535.44935936413329999815428699238395,3534.0,1.44935936413329999815428699238395
95,3611.05149172323207327605221874005171,3609.6,1.45149172323207327605221874005171
96,3687.45360171972822924141439654018839,3686.0,1.45360171972822924141439654018839
97,3764.65568981802185387171828108922194,3763.2,1.45568981802185387171828108922194
98,3842.65775646819017407274892839319322,3841.2,1.45775646819017407274892839319322
99,3921.45980210657073758771644646519709,3920.0,1.45980210657073758771644646519709
100,4001.06182715631520185689403755600513,3999.6,1.46182715631520185689403755600513
101,4081.46383202791549357306697852908988,4080.0,1.46383202791549357306697852908988
102,4162.66581711970397510336186770347888,4161.2,1.46581711970397510336186770347888
103,4244.66778281832914603441258524553957,4243.2,1.46778281832914603441258524553957
104,4327.46972949920830083310895882858835,4326.0,1.46972949920830083310895882858835
105,4411.07165752695847054141731338135807,4409.6,1.47165752695847054141731338135807
106,4495.47356725580688565951830494361715,4494.0,1.47356725580688565951830494361715
107,4580.67545902998211928955205747936829,4579.2,1.47545902998211928955205747936829
108,4666.67733318408699037270624724184641,4665.2,1.47733318408699037270624724184641
109,4753.47919004345423825884858772895995,4752.0,1.47919004345423825884858772895995
110,4841.08102992448591742778014772856870,4839.6,1.48102992448591742778014772856870
111,4929.48285313497739531998738704814793,4928.0,1.48285313497739531998738704814793
112,5018.68465997442678680113733001860867,5017.2,1.48465997442678680113733001860867
113,5108.68645073433060324876623631294042,5107.2,1.48645073433060324876623631294042
114,5199.48822569846634549185576572620211,5198.0,1.48822569846634549185576572620211
115,5291.08998514316272938548807503608551,5289.6,1.48998514316272938548807503608551
116,5383.49172933755818447112307371921688,5382.0,1.49172933755818447112307371921688
117,5476.69345854384823446003428726566692,5475.2,1.49345854384823446003428726566692
118,5570.69517301752232724633419673315180,5569.2,1.49517301752232724633419673315180
119,5665.49687300759064844230367660124198,5664.0,1.49687300759064844230367660124198
120,5761.09855875680142658650509897988083,5759.6,1.49855875680142658650509897988083
121,5857.50023050184919990791450212063488,5856.0,1.50023050184919990791450212063488
122,5954.70188847357449561617541143445145,5953.2,1.50188847357449561617541143445145
123,6052.70353289715534049514490741561635,6051.2,1.50353289715534049514490741561635
124,6151.50516399229100389709386196331160,6150.0,1.50516399229100389709386196331160
125,6251.10678197337834466866018696139436,6249.6,1.50678197337834466866018696139436
126,6351.50838704968111834235633990382022,6350.0,1.50838704968111834235633990382022
127,6452.70997942549258034954597256844873,6451.2,1.50997942549258034954597256844873
128,6554.71155930029169842361468206002962,6553.2,1.51155930029169842361468206002962
129,6657.51312686889327528882175380433478,6656.0,1.51312686889327528882175380433478
130,6761.11468232159226434845249465149008,6759.6,1.51468232159226434845249465149008
131,6865.51622584430254568177268090405974,6864.0,1.51622584430254568177268090405974
132,6970.71775761869041468208582529326644,6969.2,1.51775761869041468208582529326644
133,7076.71927782230302388661011588291482,7075.2,1.51927782230302388661011588291482
134,7183.52078662869200727293284377831605,7182.0,1.52078662869200727293284377831605
135,7291.12228420753249818845778953496842,7289.6,1.52228420753249818845778953496842
136,7399.52377072473774839173066871540569,7398.0,1.52377072473774839173066871540569
137,7508.72524634256954237658403899504532,7507.2,1.52524634256954237658403899504532
138,7618.72671121974458753805259594361439,7617.2,1.52671121974458753805259594361439
139,7729.52816551153705863310409339704116,7728.0,1.52816551153705863310409339704116
140,7841.12960936987745954326287045810611,7839.6,1.52960936987745954326287045810611
141,7953.53104294344796078871305622764555,7952.0,1.53104294344796078871305622764555
142,8066.73246637777436317020134321182888,8065.2,1.53246637777436317020134321182888
143,8180.73387981531482926489004459434820,8179.2,1.53387981531482926489004459434820
144,8295.53528339554551732267404737237924,8294.0,1.53528339554551732267404737237924
145,8411.13667725504324792171631222237438,8409.6,1.53667725504324792171631222237438
146,8527.53806152756532587320550593361712,8526.0,1.53806152756532587320550593361712
147,8644.73943634412663166237342485654460,8643.2,1.53943634412663166237342485654460
148,8762.74080183307409775477656905144176,8761.2,1.54080183307409775477656905144176
149,8881.54215812015867156877179452067316,8880.0,1.54215812015867156877179452067316
150,9001.14350532860486875503898761184924,8999.6,1.54350532860486875503898761184924
151,9121.54484357917801269737969735964657,9120.0,1.54484357917801269737969735964657
152,9242.74617299024925053393621294326766,9241.2,1.54617299024925053393621294326766
153,9364.74749367785843464849877311555795,9363.2,1.54749367785843464849877311555795
154,9487.54880575577495353111669407277856,9486.0,1.54880575577495353111669407277856
155,9611.15010933555659024397930976860843,9609.6,1.55010933555659024397930976860843
156,9735.55140452660648635890264632829638,9734.0,1.55140452660648635890264632829638
157,9860.75269143622828241299770011896578,9859.2,1.55269143622828241299770011896578
158,9986.75397016967950670059366062519146,9985.2,1.55397016967950670059366062519146
159,10113.5552408302232760742214753495618,10112.0,1.5552408302232760742214753495618
160,10241.1565035191783750921674130629819,10239.6,1.5565035191783750921674130629819
161,10369.5577583359677720086875242358630,10368.0,1.5577583359677720086875242358630
162,10498.7590053781656310679542597110855,10497.2,1.5590053781656310679542597110855
163,10628.7602447415428759550046043533553,10627.2,1.5602447415428759550046043533553
164,10759.5614765201113590402545388155081,10758.0,1.5614765201113590402545388155081
165,10891.1627008061666850177673507945005,10889.6,1.5627008061666850177673507945005
166,11023.5639176903297394528345543790099,11022.0,1.5639176903297394528345543790099
167,11156.7651272615869694711586835139410,11155.2,1.5651272615869694711586835139410
168,11290.7663296073294592785213000054385,11289.2,1.5663296073294592785213000054385
169,11425.5675248133908455729968226227683,11424.0,1.5675248133908455729968226227683
170,11561.1687129640841125927975984278714,11559.6,1.5687129640841125927975984278714
171,11697.5698941422373069941809716418173,11696.0,1.5698941422373069941809716418173
172,11834.7710684292282104260459990148702,11833.2,1.5710684292282104260459990148702
173,11972.7722359050180052035204712888826,11971.2,1.5722359050180052035204712888826
174,12111.5733966481839689240219708534063,12110.0,1.5733966481839689240219708534063
175,12251.1745507359512320106957751770110,12249.6,1.5745507359512320106957751770110
176,12391.5756982442236278895521754224274,12390.0,1.5756982442236278895521754224274
177,12532.7768392476136690608104204181447,12531.2,1.5768392476136690608104204181447
178,12674.7779738194716782188151835805725,12673.2,1.5779738194716782188151835805725
179,12817.5791020319141008654410543364941,12816.0,1.5791020319141008654410543364941
180,12961.1802239558510303633535990088832,12959.6,1.5802239558510303633535990088832
181,13105.5813396610129680776827926773426,13104.0,1.5813396610129680776827926773426
182,13250.7824492159768463014637588425014,13249.2,1.5824492159768463014637588425014
183,13396.7835526881913370140882939271294,13395.2,1.5835526881913370140882939271294
184,13543.5846501440014707142726924740598,13542.0,1.5846501440014707142726924740598
185,13691.1857416486725871356345611564972,13689.6,1.5857416486725871356345611564972
186,13839.5868272664136388134673432632875,13838.0,1.5868272664136388134673432632875
187,13988.7879070603998713031790668939496,13987.2,1.5879070603998713031790668939496
188,14138.7889810927948954866788936502183,14137.2,1.5889810927948954866788936502183
189,14289.5900494247721756977680296485554,14288.0,1.5900494247721756977680296485554
190,14441.1911121165359493175785583585564,14439.6,1.5911121165359493175785583585564
191,14593.5921692273415970625774371077464,14592.0,1.5921692273415970625774371077464
192,14746.7932208155154803473033946399238,14745.2,1.5932208155154803473033946399238
193,14900.7942669384742640256488319579527,14899.2,1.5942669384742640256488319579527
194,15055.5953076527437378514328763044768,15054.0,1.5953076527437378514328763044768
195,15211.1963430139771545905872743501389,15209.6,1.5963430139771545905872743501389
196,15367.5973730769730984768174153238835,15366.0,1.5973730769730984768174153238835
197,15524.7983978956928983860213645311416,15523.2,1.5983978956928983860213645311416
198,15682.7994175232775998914076786892308,15681.2,1.5994175232775998914076786892308
199,15841.6004320120645090331270444527155,15840.0,1.6004320120645090331270444527155
200,16001.2014414136033217425783853950156,15999.6,1.6014414136033217425783853950156
201,16161.6024457786718498977678001445517,16160.0,1.6024457786718498977678001445517
202,16322.8034451572913573858312185841875,16321.2,1.6034451572913573858312185841875
203,16484.8044395987415168274024463130741,16483.2,1.6044395987415168274024463130741
204,16647.6054291515749985776876039966495,16646.0,1.6054291515749985776876039966495
205,16811.2064138636317019695576627671990,16809.6,1.6064138636317019695576627671990
206,16975.6073937820526418173554361996897,16974.0,1.6073937820526418173554361996897
207,17140.8083689532934960520421978469803,17139.2,1.6083689532934960520421978469803
208,17306.8093394231378287090880214862128,17305.2,1.6093394231378287090880214862128
209,17473.6103052367099940119330317604483,17472.0,1.6103052367099940119330317604483
210,17641.2112664384877330466181295368087,17639.6,1.6112664384877330466181295368087
211,17809.6122230723144703865411552850854,17808.0,1.6122230723144703865411552850854
212,17978.8131751814113208944601197699740,17977.2,1.6131751814113208944601197699740
213,18148.8141228083888110796309388820746,18147.2,1.6141228083888110796309388820746
214,18319.6150659952583299857627775204575,18318.0,1.6150659952583299857627775204575
215,18491.2160047834433088160151730069642,18489.6,1.6160047834433088160151730069642
216,18663.6169392137901432494869559423533,18662.0,1.6169392137901432494869559423533
217,18836.8178693265788624082318949953003,18835.2,1.6178693265788624082318949953003
218,19010.8187951615335534472434866615849,19009.2,1.6187951615335534472434866615849
219,19185.6197167578325450403371783730577,19184.0,1.6197167578325450403371783730577
220,19361.2206341541183622700501895351128,19359.6,1.6206341541183622700501895351128
221,19537.6215473885074508238408935876472,19536.0,1.6215473885074508238408935876472
222,19714.8224564985996876939453257998971,19713.2,1.6224564985996876939453257998971
223,19892.8233615214876719417139868581799,19891.2,1.6233615214876719417139868581799
224,20071.6242624937658105857189912377152,20070.0,1.6242624937658105857189912377152
225,20251.2251594515392021701657833080164,20249.6,1.6251594515392021701657833080164
226,20431.6260524304323215515420010526741,20430.0,1.6260524304323215515420010526741
227,20612.8269414655975145463414542829792,20611.2,1.6269414655975145463414542829792
228,20794.8278265917233042500540786167332,20793.2,1.6278265917233042500540786167332
229,20977.6287078430425161795566393315719,20976.0,1.6287078430425161795566393315719
230,21161.2295852533402269251319705136730,21159.6,1.6295852533402269251319705136730
231,21345.6304588559615381013706328825969,21344.0,1.6304588559615381013706328825969
232,21530.8313286838191860058589973989025,21529.2,1.6313286838191860058589973989025
233,21716.8321947694009819711413206290566,21715.2,1.6321947694009819711413206290566
234,21903.6330571447770995560046666821873,21902.0,1.6330571447770995560046666821873
235,22091.2339158416072017471695516390075,22089.6,1.6339158416072017471695516390075
236,22279.6347708911474178701371593631160,22278.0,1.6347708911474178701371593631160
237,22468.8356223242571738293024719056333,22467.2,1.6356223242571738293024719056333
238,22658.8364701714058774083264299691126,22657.2,1.6364701714058774083264299691126
