Eigenstate,Energy,Kinetic Energy,Potential Energy
1,0.500000000144931839206649378326881961,0.0,0.500000000144931839206649378326881961
2,1.84623093859715858367921021024707740,1.2,0.64623093859715858367921021024707740
3,3.93633761248392356667034649156584308,3.2,0.73633761248392356667034649156584308
4,6.79966528360252760826985136785098320,6.0,0.79966528360252760826985136785098320
5,10.4480465853123136933818331378548075,9.6,0.8480465853123136933818331378548075
6,14.8870660123858117461998637039945114,14.0,0.8870660123858117461998637039945114
7,20.1197208462696354916347116263081914,19.2,0.9197208462696354916347116263081914
8,26.1477838733452606375960312155618847,25.2,0.9477838733452606375960312155618847
9,32.9723835926216866762173539111141304,32.0,0.9723835926216866762173539111141304
10,40.5942802582492959970613508626756965,39.6,0.9942802582492959970613508626756965
11,49.0140094403704520177934405390388871,48.0,1.0140094403704520177934405390388871
12,58.2319622342908392576433423381435723,57.2,1.0319622342908392576433423381435723
13,68.2484327700771686260770619666941462,67.2,1.0484327700771686260770619666941462
14,79.0636477454134042787698640043893170,78.0,1.0636477454134042787698640043893170
15,90.6777855414149879273711418722907721,89.6,1.0777855414149879273711418722907721
16,103.090989027499308750721505812613218,102.0,1.090989027499308750721505812613218
17,116.303374394847224006247581252328090,115.2,1.103374394847224006247581252328090
18,130.315037407409269510211418865114586,129.2,1.115037407409269510211418865114586
19,145.126057925009644927031324370505333,144.0,1.126057925009644927031324370505333
20,160.736503240980155684346535339374003,159.6,1.136503240980155684346535339374003
21,177.146430588241914139317473034433919,176.0,1.146430588241914139317473034433919
22,194.355889050464082675269595425840931,193.2,1.155889050464082675269595425840931
23,212.364921040000400599536304246931298,211.2,1.164921040000400599536304246931298
24,231.173563455289608029495512337406324,230.0,1.173563455289608029495512337406324
25,250.781848597651373636377560326837278,249.6,1.181848597651373636377560326837278
26,271.189804905093883472095050838071263,270.0,1.189804905093883472095050838071263
27,292.397457545276417675091928298597152,291.2,1.197457545276417675091928298597152
28,314.404828898868391022971768948491345,313.2,1.204828898868391022971768948491345
29,337.211938956751305464927232833409517,336.0,1.211938956751305464927232833409517
30,360.818805648860575188393004092841083,359.6,1.218805648860575188393004092841083
31,385.225445118318246267636942122504569,384.0,1.225445118318246267636942122504569
32,410.431871951429733352496643246482377,409.2,1.231871951429733352496643246482377
33,436.438099371808048047851268952024648,435.2,1.238099371808048047851268952024648
34,463.244139405138447365695688580206723,462.0,1.244139405138447365695688580206723
35,490.850003019757235564079983158783653,489.6,1.250003019757235564079983158783653
36,519.255700247184973807203149518370242,518.0,1.255700247184973807203149518370242
37,548.461240285950267531358210184362179,547.2,1.261240285950267531358210184362179
38,578.466631591409882657465304872116999,577.2,1.266631591409882657465304872116999
39,609.271881953773093140781563071933311,608.0,1.271881953773093140781563071933311
40,640.876998566142341564342823527691958,639.6,1.276998566142341564342823527691958
41,673.281988084065544208589465355062183,672.0,1.281988084065544208589465355062183
42,706.486856677840379427822998819343601,705.2,1.286856677840379427822998819343601
43,740.491610078604411818986002408477183,739.2,1.291610078604411818986002408477183
44,775.296253619076810652564311162894283,774.0,1.296253619076810652564311162894283
45,810.900792269679851466262105494098491,809.6,1.300792269679851466262105494098491
46,847.305230670655253439385086454455428,846.0,1.305230670655253439385086454455428
47,884.509573160696928553436652668882094,883.2,1.309573160696928553436652668882094
48,922.513823802544132180104064051601439,921.2,1.313823802544132180104064051601439
49,961.317986405914342193849239687268412,960.0,1.317986405914342193849239687268412
50,1000.92206454810107099261170973095534,999.6,1.32206454810107099261170973095534
51,1041.32606159251634784761462217603625,1040.0,1.32606159251634784761462217603625
52,1082.52998070541926378892808215039757,1081.2,1.32998070541926378892808215039757
53,1124.53382487103952111486743336028058,1123.2,1.33382487103952111486743336028058
54,1167.33759690527736848182262070882095,1166.0,1.33759690527736848182262070882095
55,1210.94129946813782703858110269309106,1209.6,1.34129946813782703858110269309106
56,1255.34493507503703849906380058721226,1254.0,1.34493507503703849906380058721226
57,1300.54850610710136708225911568653979,1299.2,1.34850610710136708225911568653979
58,1346.55201482056509006183694913394642,1345.2,1.35201482056509006183694913394642
59,1393.35546335535975772063760377196296,1392.0,1.35546335535975772063760377196296
60,1440.95885374297727899752001764830391,1439.6,1.35885374297727899752001764830391
61,1489.36218791367922488654084969958762,1488.0,1.36218791367922488654084969958762
62,1538.56546770311654064331626532521219,1537.2,1.36546770311654064331626532521219
63,1588.56869485841661596439171222084319,1587.2,1.36869485841661596439171222084319
64,1639.37187104378834982551826381454722,1638.0,1.37187104378834982551826381454722
65,1690.97499784569031182475774766305499,1689.6,1.37499784569031182475774766305499
66,1743.37807677760225453728056031108584,1742.0,1.37807677760225453728056031108584
67,1796.58110928443596909739200060546641,1795.2,1.38110928443596909739200060546641
68,1850.58409674661772006251171813992598,1849.2,1.38409674661772006251171813992598
69,1905.38704048387118294310247314662018,1904.0,1.38704048387118294310247314662018
70,1960.98994175872687951427760824466423,1959.6,1.38994175872687951427760824466423
71,2017.39280177978150732108583513844654,2016.0,1.39280177978150732108583513844654
72,2074.59562170472826154708903592648676,2073.2,1.39562170472826154708903592648676
73,2132.59840264317719440944620423427635,2131.2,1.39840264317719440944620423427635
74,2191.40114565928283839516169085202381,2190.0,1.40114565928283839516169085202381
75,2251.00385177419468855205352189083481,2249.6,1.40385177419468855205352189083481
76,2311.40652196834468949124086493217140,2310.0,1.40652196834468949124086493217140
77,2372.60915718358457035953238956141408,2371.2,1.40915718358457035953238956141408
78,2434.61175832518470524191623141362115,2433.2,1.41175832518470524191623141362115
79,2497.41432626370512963436056234962831,2496.0,1.41432626370512963436056234962831
80,2561.01686183674840550148849515199552,2559.6,1.41686183674840550148849515199552
81,2625.41936585060317809221606480130635,2624.0,1.41936585060317809221606480130635
82,2690.62183908178650623588723051528179,2689.2,1.42183908178650623588723051528179
83,2756.62428227849235910765165664350191,2755.2,1.42428227849235910765165664350191
84,2823.42669616195304816011466693993689,2822.0,1.42669616195304816011466693993689
85,2891.02908142771980364211599811522308,2889.6,1.42908142771980364211599811522308
86,2959.43143874686818926010448023603853,2958.0,1.43143874686818926010448023603853
87,3028.63376876713359106677754705737051,3027.2,1.43376876713359106677754705737051
88,3098.63607211398159328391836161755672,3097.2,1.43607211398159328391836161755672
89,3169.43834939161767026420310902957865,3168.0,1.43834939161767026420310902957865
90,3241.04060118394028058002208706195179,3239.6,1.44060118394028058002208706195179
91,3313.44282805544112777530904400646339,3312.0,1.44282805544112777530904400646339
92,3386.64503055205606401883368757815579,3385.2,1.44503055205606401883368757815579
93,3460.64720920196985064235857092834750,3459.2,1.44720920196985064235857092834750
94,3535.44936451637774661832389646507531,3534.0,1.44936451637774661832389646507531
95,3611.05149699020667487769557893869882,3609.6,1.45149699020667487769557893869882
96,3687.45360710279851454649630953359310,3686.0,1.45360710279851454649630953359310
97,3764.65569531855788283743182464645819,3763.2,1.45569531855788283743182464645819
98,3842.65776208756659745872875548629100,3841.2,1.45776208756659745872875548629100
99,3921.45980784616685693011491050715912,3920.0,1.45980784616685693011491050715912
100,4001.06183301751502985545551149611217,3999.6,1.46183301751502985545551149611217
101,4081.46383801210781489740724353699094,4080.0,1.46383801210781489740724353699094
102,4162.66582322828240762473093735332130,4161.2,1.46582322828240762473093735332130
103,4244.66778905269220248929235814159665,4243.2,1.46778905269220248929235814159665
104,4327.46973586075945092507191000599193,4326.0,1.46973586075945092507191000599193
105,4411.07166401710620348774699934556306,4409.6,1.47166401710620348774699934556306
106,4495.47357387596477318916966512191365,4494.0,1.47357387596477318916966512191365
107,4580.67546578156887909910740301730795,4579.2,1.47546578156887909910740301730795
108,4666.67734006852655004706158569478757,4665.2,1.47734006852655004706158569478757
109,4753.47919706217579966344611408113498,4752.0,1.47919706217579966344611408113498
110,4841.08103707892402157928402088707887,4839.6,1.48103707892402157928402088707887
111,4929.48286042657198774238324120105887,4928.0,1.48286042657198774238324120105887
112,5018.68466740462328337432091907741662,5017.2,1.48466740462328337432091907741662
113,5108.68645830457995655677226263703185,5107.2,1.48645830457995655677226263703185
114,5199.48823341022511167796553635946479,5198.0,1.48823341022511167796553635946479
115,5291.08999299789313552154376705396686,5289.6,1.48999299789313552154376705396686
116,5383.49173733672819644846664350475216,5382.0,1.49173733672819644846664350475216
117,5476.69346668893162540958126281649697,5475.2,1.49346668893162540958126281649697
118,5570.69518130999874649538601774306054,5569.2,1.49518130999874649538601774306054
119,5665.49688144894569101579743937626289,5664.0,1.49688144894569101579743937626289
120,5761.09856734852670326049657577257920,5759.6,1.49856734852670326049657577257920
121,5857.50023924544240782318856243143485,5856.0,1.50023924544240782318856243143485
122,5954.70189737053948945997809318996215,5953.2,1.50189737053948945997809318996215
123,6052.70354194900220425913352176319519,6051.2,1.50354194900220425913352176319519
124,6151.50517320053612321970465919309569,6150.0,1.50517320053612321970465919309569
125,6251.10679133954447977019899163872184,6249.6,1.50679133954447977019899163872184
126,6351.50839657529747756122470280852571,6350.0,1.50839657529747756122470280852571
127,6452.70998911209489428812393881717135,6451.2,1.50998911209489428812393881717135
128,6554.71156914942229471243306733780602,6553.2,1.51156914942229471243306733780602
129,6657.51313688210115397776904218988080,6656.0,1.51313688210115397776904218988080
130,6761.11469250043317393387625885018148,6759.6,1.51469250043317393387625885018148
131,6865.51623619033905977845274164280286,6864.0,1.51623619033905977845274164280286
132,6970.71776813349200934917516046361602,6969.2,1.51776813349200934917516046361602
133,7076.71928850744615561675933927271332,7075.2,1.51928850744615561675933927271332
134,7183.52079748576019165393870472193641,7182.0,1.52079748576019165393870472193641
135,7291.12229523811638924690039779213566,7289.6,1.52229523811638924690039779213566
136,7399.52378193043521862819097038404410,7398.0,1.52378193043521862819097038404410
137,7508.72525772498576350216379389809886,7507.2,1.52525772498576350216379389809886
138,7618.72672278049211192205004348881022,7617.2,1.52672278049211192205004348881022
139,7729.52817725223590147183285931108801,7728.0,1.52817725223590147183285931108801
140,7841.12962129215518176013819906112305,7839.6,1.52962129215518176013819906112305
141,7953.53105504893975267586795342976687,7952.0,1.53105504893975267586795342976687
142,8066.73247866812312878203688791280070,8065.2,1.53247866812312878203688791280070
143,8180.73389229217127157410768031582351,8179.2,1.53389229217127157410768031582351
144,8295.53529606056822414948393558931630,8294.0,1.53529606056822414948393558931630
145,8411.13669010989877864706456372502245,8409.6,1.53669010989877864706456372502245
146,8527.53807457392829894701486041683123,8526.0,1.53807457392829894701486041683123
147,8644.73944958367981291794601583181312,8643.2,1.53944958367981291794601583181312
148,8762.74081526750848954066379299983339,8761.2,1.54081526750848954066379299983339
149,8881.54217175117360270957697729851193,8880.0,1.54217175117360270957697729851193
150,9001.14351915790808535277965576248882,8999.6,1.54351915790808535277965576248882
151,9121.54485760848576978520268876206970,9120.0,1.54485760848576978520268876206970
152,9242.74618722128640459414683232952255,9241.2,1.54618722128640459414683232952255
153,9364.74750811235853700703637675879356,9363.2,1.54750811235853700703637675879356
154,9487.54882039548034464078298478458159,9486.0,1.54882039548034464078298478458159
155,9611.15012418221849486890393766139511,9609.6,1.55012418221849486890393766139511
156,9735.55141958198510967291099940465860,9734.0,1.55141958198510967291099940465860
157,9860.75270670209290702472880108643968,9859.2,1.55270670209290702472880108643968
158,9986.75398564780859061840484573728062,9985.2,1.55398564780859061840484573728062
159,10113.5552565224045516241047775237551,10112.0,1.5552565224045516241047775237551
160,10241.1565194272089488020987455733489,10239.6,1.5565194272089488020987455733489
161,10369.5577744616542254730254798911829,10368.0,1.5577744616542254730254798911829
162,10498.7590217233241228057074474766421,10497.2,1.5590217233241228057074474766421
163,10628.7602613079992442759896900224949,10627.2,1.5602613079992442759896900224949
164,10759.5614933097012259333765701668504,10758.0,1.5614933097012259333765701668504
165,10891.1627178207355610758659749229851,10889.6,1.5627178207355610758659749229851
166,11023.5639349317331298487546527222408,11022.0,1.5639349317331298487546527222408
167,11156.7651447316904809999243479232465,11155.2,1.5651447316904809999243479232465
168,11290.7663473080089084807162214893292,11289.2,1.5663473080089084807162214893292
169,11425.5675427465323679546811369203793,11424.0,1.5675427465323679546811369203793
170,11561.1687311315842729575242833379743,11559.6,1.5687311315842729575242833379743
171,11697.5699125460032109029103931946108,11696.0,1.5699125460032109029103931946108
172,11834.7710870711776168009983125783814,11833.2,1.5710870711776168009983125783814
173,11972.7722547870794400922497633533397,11971.2,1.5722547870794400922497633533397
174,12111.5734157722968404402470032892951,12110.0,1.5734157722968404402470032892951
175,12251.1745701040659464686749832011470,12249.6,1.5745701040659464686749832011470
176,12391.5757178583017071490502405745717,12390.0,1.5757178583017071490502405745717
177,12532.7768591096278690999668840293583,12531.2,1.5768591096278690999668840293583
178,12674.7779939314061089524938377305553,12673.2,1.5779939314061089524938377305553
179,12817.5791223957643472269130363713790,12816.0,1.5791223957643472269130363713790
180,12961.1802445736242746674455405124067,12959.6,1.5802445736242746674455405124067
181,13105.5813605347281136838044798274784,13104.0,1.5813605347281136838044798274784
182,13250.7824703476646425952192567175634,13249.2,1.5824703476646425952192567175634
183,13396.7835740798945057264689453888459,13395.2,1.5835740798945057264689453888459
184,13543.5846717977748335977304082764980,13542.0,1.5846717977748335977304082764980
185,13691.1857635665831950166397809335129,13689.6,1.5857635665831950166397809335129
186,13839.5868494505409020414658384344012,13838.0,1.5868494505409020414658384344012
187,13988.7879295128356916161813036393501,13987.2,1.5879295128356916161813036393501
188,14138.7890038156437993140369382839774,14137.2,1.5890038156437993140369382839774
189,14289.5900724201514489210256413875046,14288.0,1.5900724201514489210256413875046
190,14441.1911353865757735106145825748150,14439.6,1.5911353865757735106145825748150
191,14593.5921927741851872326056250433686,14592.0,1.5921927741851872326056250433686
192,14746.7932446413192241986397874579787,14745.2,1.5932446413192241986397874579787
193,14900.7942910454078627685130893738515,14899.2,1.5942910454078627685130893738515
194,15055.5953320429903485784111797766543,15054.0,1.5953320429903485784111797766543
195,15211.1963676897335342437548247672300,15209.6,1.5963676897335342437548247672300
196,15367.5973980404497494288928068127834,15366.0,1.5973980404497494288928068127834
197,15524.7984231491142156593099330069464,15523.2,1.5984231491142156593099330069464
198,15682.7994430688820200386795756692269,15681.2,1.5994430688820200386795756692269
199,15841.6004578521046607049768576313247,15840.0,1.6004578521046607049768576313247
200,16001.2014675503461779662157707950306,15999.6,1.6014675503461779662157707950306
201,16161.6024722143988820926038475476235,16160.0,1.6024722143988820926038475476235
202,16322.8034718942986911416487119933472,16321.2,1.6034718942986911416487119933472
203,16484.8044666393400894713246809006795,16483.2,1.6044666393400894713246809006795
204,16647.6054564980907185566023007442569,16646.0,1.6054564980907185566023007442569
205,16811.2064415184056100750971067012963,16809.6,1.6064415184056100750971067012963
206,16975.6074217474410742809915806328776,16974.0,1.6074217474410742809915806328776
207,17140.8083972316682495383192542651738,17139.2,1.6083972316682495383192542651738
208,17306.8093680168863272354892731215794,17305.2,1.6093680168863272354892731215794
209,17473.6103341482354578243628825431061,17472.0,1.6103341482354578243628825431061
210,17641.2112956702093494799717320852507,17639.6,1.6112956702093494799717320852507
211,17809.6122526266675667403380477657925,17808.0,1.6122526266675667403380477657925
212,17978.8132050608475393540303781008479,17977.2,1.6132050608475393540303781008479
213,18148.8141530153762857138666078026449,18147.2,1.6141530153762857138666078026449
214,18319.6150965322818658529789349657612,18318.0,1.6150965322818658529789349657612
215,18491.2160356530045632100105606620072,18489.6,1.6160356530045632100105606620072
216,18663.6169704184078091184497657075700,18662.0,1.6169704184078091184497657075700
217,18836.8179008687888539797007230453858,18835.2,1.6179008687888539797007230453858
218,19010.8188270438891940929127782499227,19009.2,1.6188270438891940929127782499227
219,19185.6197489829047574150865429011994,19184.0,1.6197489829047574150865429011994
220,19361.2206667244958607601766930106234,19359.6,1.6206667244958607601766930106234
221,19537.6215803067969363400884931740732,19536.0,1.6215803067969363400884931740732
222,19714.8224897674260448455518656977333,19713.2,1.6224897674260448455518656977333
223,19892.8233951434941686283345327070674,19891.2,1.6233951434941686283345327070674
224,20071.6242964716143000447371772281192,20070.0,1.6242964716143000447371772281192
225,20251.2251937879103275175706166675149,20249.6,1.6251937879103275175706166675149
226,20431.6260871280257228552267112830748,20430.0,1.6260871280257228552267112830748
227,20612.8269765271320384713733410369264,20611.2,1.6269765271320384713733410369264
228,20794.8278620199372163161744044255951,20793.2,1.6278620199372163161744044255951
229,20977.6287436406937156718903774474321,20976.0,1.6287436406937156718903774474321
230,21161.2296214232064644998248489757253,21159.6,1.6296214232064644998248489757253
231,21345.6304954008406361286248705379989,21344.0,1.6304954008406361286248705379989
232,21530.8313656065292616936069362018757,21529.2,1.6313656065292616936069362018757
233,21716.8322320727806733133815436358310,21715.2,1.6322320727806733133815436358310
234,21903.6330948316857941506268235902636,21902.0,1.6330948316857941506268235902636
235,22091.2339539149252685289111899155625,22089.6,1.6339539149252685289111899155625
236,22279.6348093537764418051530310765752,22278.0,1.6348093537764418051530310765752
237,22468.8356611791201936186792568022415,22467.2,1.6356611791201936186792568022415
238,22658.8365094214476262487477541930246,22657.2,1.6365094214476262487477541930246
