Eigenstate,Energy,Kinetic Energy,Potential Energy
1,0.500000000033120670713458707863144565,0.0,0.500000000033120670713458707863144565
2,1.84623093786730903631279125935229827,1.2,0.64623093786730903631279125935229827
3,3.93633761034002885053516638244983845,3.2,0.73633761034002885053516638244983845
4,6.79966527913698103560496786080375677,6.0,0.79966527913698103560496786080375677
5,10.4480465775769436969646403466106365,9.6,0.8480465775769436969646403466106365
6,14.8870660004157705148288332462722096,14.0,0.8870660004157705148288332462722096
7,20.1197208290921887418958425611377472,19.2,0.9197208290921887418958425611377472
8,26.1477838499834421511770822083575935,25.2,0.9477838499834421511770822083575935
9,32.9723835620959874062545506942963475,32.0,0.9723835620959874062545506942963475
10,40.5942802195785119093299684343669406,39.6,0.9942802195785119093299684343669406
11,49.0140093925721358888779904347039118,48.0,1.0140093925721358888779904347039118
12,58.2319621763815506418117970785830200,57.2,1.0319621763815506418117970785830200
13,68.2484327010726139305454876002284908,67.2,1.0484327010726139305454876002284908
14,79.0636476643285135821056505416604280,78.0,1.0636476643285135821056505416604280
15,90.6777854472639536219633839571084975,89.6,1.0777854472639536219633839571084975
16,103.090988919295600190535440632765503,102.0,1.090988919295600190535440632765503
17,116.303374271603586531641739660713959,115.2,1.103374271603586531641739660713959
18,130.315037268137712980753847241047414,129.2,1.115037268137712980753847241047414
19,145.126057768721425011801437461657543,144.0,1.126057768721425011801437461657543
20,160.736503066685750027937271040625111,159.6,1.136503066685750027937271040625111
21,177.146430394950994820060654097426306,176.0,1.146430394950994820060654097426306
22,194.355888837185485924734524417789464,193.2,1.155888837185485924734524417789464
23,212.364920805742094459813383057968029,211.2,1.164920805742094459813383057968029
24,231.173563199058658429195628734997755,230.0,1.173563199058658429195628734997755
25,250.781848318453909232839929455530688,249.6,1.181848318453909232839929455530688
26,271.189804601935059514561754415424209,270.0,1.189804601935059514561754415424209
27,292.397457217160379078065882101487700,291.2,1.197457217160379078065882101487700
28,314.404828544798234791932095373322995,313.2,1.204828544798234791932095373322995
29,337.211938575729042582328201762744690,336.0,1.211938575729042582328201762744690
30,360.818805239887092042611209673110058,359.6,1.218805239887092042611209673110058
31,385.225444680393265688670853114827882,384.0,1.225444680393265688670853114827882
32,410.431871483551775303981910066020231,409.2,1.231871483551775303981910066020231
33,436.438098872974390014089116616907247,435.2,1.238098872974390014089116616907247
34,463.244138874345084464019071984549058,462.0,1.244138874345084464019071984549058
35,490.850002455998840406371235553229938,489.6,1.250002455998840406371235553229938
36,519.255699649454856129269841657134816,518.0,1.255699649454856129269841657134816
37,548.461239653240333604835115805245505,547.2,1.261239653240333604835115805245505
38,578.466630922710594495691939548612444,577.2,1.266630922710594495691939548612444
39,609.271881248073427507520950773922539,608.0,1.271881248073427507520950773922539
40,640.876997822429748792118380615088925,639.6,1.276997822429748792118380615088925
41,673.281987301325906831717038377674125,672.0,1.281987301325906831717038377674125
42,706.486855855057970633822688005856417,705.2,1.286855855057970633822688005856417
43,740.491609214761853720910708370722352,739.2,1.291609214761853720910708370722352
44,775.296252713155032383830491035670593,774.0,1.296252713155032383830491035670593
45,810.900791320658047098774325879095127,809.6,1.300791320658047098774325879095127
46,847.305229677510839725079965793793438,846.0,1.305229677510839725079965793793438
47,884.509572122405502488809967770194585,883.2,1.309572122405502488809967770194585
48,922.513822718079428392807708612123714,921.2,1.313822718079428392807708612123714
49,961.317985274248190150037745401867611,960.0,1.317985274248190150037745401867611
50,1000.92206336820335202336873119361194,999.6,1.32206336820335202336873119361194
51,1041.32606036335495199248787920682522,1040.0,1.32606036335495199248787920682522
52,1082.52997942596004645433936493978448,1081.2,1.32997942596004645433936493978448
53,1124.53382354024625954493544775433989,1123.2,1.33382354024625954493544775433989
54,1167.33759552211171803893505796938445,1166.0,1.33759552211171803893505796938445
55,1210.94129803155927729087449954630140,1209.6,1.34129803155927729087449954630140
56,1255.34493358400286911181131385164421,1254.0,1.34493358400286911181131385164421
57,1300.54850456056660351002462073097295,1299.2,1.34850456056660351002462073097295
58,1346.55201321748245903812555194731625,1345.2,1.35201321748245903812555194731625
59,1393.35546169467964254165710101364916,1392.0,1.35546169467964254165710101364916
60,1440.95885202364767459656143646857348,1439.6,1.35885202364767459656143646857348
61,1489.36218613464569269538881569807215,1488.0,1.36218613464569269538881569807215
62,1538.56546586332216323700947817398602,1537.2,1.36546586332216323700947817398602
63,1588.56869295680195148556983847361966,1587.2,1.36869295680195148556983847361966
64,1639.37186907929138618451271964784005,1638.0,1.37186907929138618451271964784005
65,1690.97499581724642067150899054358827,1689.6,1.37499581724642067150899054358827
66,1743.37807468414414500109421633698332,1742.0,1.37807468414414500109421633698332
67,1796.58110712489364129047843238349904,1795.2,1.38110712489364129047843238349904
68,1850.58409451991841834318887547481661,1849.2,1.38409451991841834318887547481661
69,1905.38703818893934893447895526849810,1904.0,1.38703818893934893447895526849810
70,1960.98993939448410487417284822494512,1959.6,1.38993939448410487417284822494512
71,2017.39279934514648625888426413119160,2016.0,1.39279934514648625888426413119160
72,2074.59561919861674308316804087976430,2073.2,1.39561919861674308316804087976430
73,2132.59840006450193437276005194617692,2131.2,1.39840006450193437276005194617692
74,2191.40114300695355115450806354755938,2190.0,1.40114300695355115450806354755938
75,2251.00384904711799847649335362224998,2249.6,1.40384904711799847649335362224998
76,2311.40651916542408213508760695773720,2310.0,1.40651916542408213508760695773720
77,2372.60915430372034336727163894763257,2371.2,1.40915430372034336727163894763257
78,2434.61175536727391896836225167972959,2433.2,1.41175536727391896836225167972959
79,2497.41432322664155747530137004330516,2496.0,1.41432322664155747530137004330516
80,2561.01685871942248393001706837290646,2559.6,1.41685871942248393001706837290646
81,2625.41936265190195639588963857051407,2624.0,1.41936265190195639588963857051407
82,2690.62183580059359594980220530559622,2689.2,1.42183580059359594980220530559622
83,2756.62427891368788313846579160873354,2755.2,1.42427891368788313846579160873354
84,2823.42669271241358959599258606459412,2822.0,1.42669271241358959599258606459412
85,2891.02907789231835424351748529426609,2889.6,1.42907789231835424351748529426609
86,2959.43143512447409762627859969068120,2958.0,1.43143512447409762627859969068120
87,3028.63376505661251047276760960964463,3027.2,1.43376505661251047276760960964463
88,3098.63606831419542918282509047402883,3097.2,1.43606831419542918282509047402883
89,3169.43834550142452744939441101880553,3168.0,1.43834550142452744939441101880553
90,3241.04059720219441000191855089089056,3239.6,1.44059720219441000191855089089056
91,3313.44282398099287300731347876178440,3312.0,1.44282398099287300731347876178440
92,3386.64502638375180736691254585924943,3385.2,1.44502638375180736691254585924943
93,3460.64720493865195889272076974405298,3459.2,1.44720493865195889272076974405298
94,3535.44936015688451641757972213443737,3534.0,1.44936015688451641757972213443737
95,3611.05149253337227773981475469671809,3609.6,1.45149253337227773981475469671809
96,3687.45360254745294148081978987599134,3686.0,1.45360254745294148081978987599134
97,3764.65569066352688859192542349516989,3763.2,1.45569066352688859192542349516989
98,3842.65775733167164437260119804736718,3841.2,1.45775733167164437260119804736718
99,3921.45980298822505838985394430564523,3920.0,1.45980298822505838985394430564523
100,4001.06182805633909334826787511394776,3999.6,1.46182805633909334826787511394776
101,4081.46383294650598465597773094334274,4080.0,1.46383294650598465597773094334274
102,4162.66581805705840685714514788981233,4161.2,1.46581805705840685714514788981233
103,4244.66778377464517518789549001592569,4243.2,1.46778377464517518789549001592569
104,4327.46973047468390324796214958051403,4326.0,1.46973047468390324796214958051403
105,4411.07165852179194470652815845161703,4409.6,1.47165852179194470652815845161703
106,4495.47356827019685619651147157132959,4494.0,1.47356827019685619651147157132959
107,4580.67546006412754046958473559291637,4579.2,1.47546006412754046958473559291637
108,4666.67733423818714964466600835531103,4665.2,1.47733423818714964466600835531103
109,4753.47919111770875978908277167388009,4752.0,1.47919111770875978908277167388009
110,4841.08103101909476565148644729756182,4839.6,1.48103101909476565148644729756182
111,4929.48285425014087850439616508069218,4928.0,1.48285425014087850439616508069218
112,5018.68466111034556062061704422351905,5017.2,1.48466111034556062061704422351905
113,5108.68645189120567437198415592310510,5107.2,1.48645189120567437198415592310510
114,5199.48822687649907518112702802106638,5198.0,1.48822687649907518112702802106638
115,5291.08998634255483710844697083718299,5289.6,1.48998634255483710844697083718299
116,5383.49173055851175152485128676672282,5382.0,1.49173055851175152485128676672282
117,5476.69345978656570760778165057754345,5475.2,1.49345978656570760778165057754345
118,5570.69517428220652236696843828667044,5569.2,1.49517428220652236696843828667044
119,5665.49687429444475419262639255787438,5664.0,1.49687429444475419262639255787438
120,5761.09856006602900807657214080392113,5759.6,1.49856006602900807657214080392113
121,5857.50023183365420238949980327998388,5856.0,1.50023183365420238949980327998388
122,5954.70188982816124818451813669604904,5953.2,1.50188982816124818451813669604904
123,6052.70353427472855980412071018482246,6051.2,1.50353427472855980412071018482246
124,6151.50516539305579788795192443574817,6150.0,1.50516539305579788795192443574817
125,6251.10678339754021631246857779595474,6249.6,1.50678339754021631246857779595474
126,6351.50838849744596939629917879191443,6350.0,1.50838849744596939629917879191443
127,6452.70998089706671512721674298768519,6451.2,1.50998089706671512721674298768519
128,6554.71156079588182757945103690397749,6553.2,1.51156079588182757945103690397749
129,6657.51312838870651961682798444864117,6656.0,1.51312838870651961682798444864117
130,6761.11468386583615859535677808669991,6759.6,1.51468386583615859535677808669991
131,6865.51622741318504237476722597455978,6864.0,1.51622741318504237476722597455978
132,6970.71775921241988797129902689658034,6969.2,1.51775921241988797129902689658034
133,7076.71927944108827340246053272003626,7075.2,1.51927944108827340246053272003626
134,7183.52078827274226199851610817125736,7182.0,1.52078827274226199851610817125736
135,7291.12228587705742034711838205654170,7289.6,1.52228587705742034711838205654170
136,7399.52377241994743734997136739663640,7398.0,1.52377241994743734997136739663640
137,7508.72524806367453856246706680111054,7507.2,1.52524806367453856246706680111054
138,7618.72671296695587637524733741206288,7617.2,1.52671296695587637524733741206288
139,7729.52816728506607449073735124093467,7728.0,1.52816728506607449073735124093467
140,7841.12961116993608970172863115246458,7839.6,1.52961116993608970172863115246458
141,7953.53104477024854942159967596355005,7952.0,1.53104477024854942159967596355005
142,8066.73246823152971534249533572228884,8065.2,1.53246823152971534249533572228884
143,8180.73388169623821494761642027926462,8179.2,1.53388169623821494761642027926462
144,8295.53528530385067542413453533021091,8294.0,1.53528530385067542413453533021091
145,8411.13667919094439033548756886181350,8409.6,1.53667919094439033548756886181350
146,8527.53806349127714154306072431536409,8526.0,1.53806349127714154306072431536409
147,8644.73943833586429066429181065280378,8643.2,1.53943833586429066429181065280378
148,8762.74080385305325539620610266911515,8761.2,1.54080385305325539620610266911515
149,8881.54216016859547250531210506605691,8880.0,1.54216016859547250531210506605691
150,9001.14350740571595112471201555323162,8999.6,1.54350740571595112471201555323162
151,9121.54484568518051227265719337301135,9120.0,1.54484568518051227265719337301135
152,9242.74617512536080489169416032505189,9241.2,1.54617512536080489169416032505189
153,9364.74749584229718735807003281653845,9363.2,1.54749584229718735807003281653845
154,9487.54880794975955836061428441819304,9486.0,1.54880794975955836061428441819304
155,9611.15011155930621538506400903135491,9609.6,1.55011155930621538506400903135491
156,9735.55140678034081867016987778420345,9734.0,1.55140678034081867016987778420345
157,9860.75269372016753168215968630895814,9859.2,1.55269372016753168215968630895814
158,9986.75397248404440992563423348713587,9985.2,1.55397248404440992563423348713587
159,10113.5552431752351017637021094235997,10112.0,1.5552431752351017637021094235997
160,10241.1565058950589275848643165401318,10239.6,1.5565058950589275848643165401318
161,10369.5577607429393958127408959157195,10368.0,1.5577607429393958127408959157195
162,10498.7590078164512152197121778318144,10497.2,1.5590078164512152197121778318144
163,10628.7602472113658583977451343770848,10627.2,1.5602472113658583977451343770848
164,10759.5614790216957310229711524430048,10758.0,1.5614790216957310229711524430048
165,10891.1627033397369955142040652631875,10889.6,1.5627033397369955142040652631875
166,11023.5639202561110996009583491028783,11022.0,1.5639202561110996009583491028783
167,11156.7651298598050570332583115473511,11155.2,1.5651298598050570332583115473511
168,11290.7663322382105231221229824064037,11289.2,1.5663322382105231221229824064037
169,11425.5675274771617101727884684857623,11424.0,1.5675274771617101727884684857623
170,11561.1687156609721825537549682251591,11559.6,1.5687156609721825537549682251591
171,11697.5698968724705715960902378806674,11696.0,1.5698968724705715960902378806674
172,11834.7710711930352481896188856184182,11833.2,1.5710711930352481896188856184182
173,11972.7722387026279884782994010214771,11971.2,1.5722387026279884782994010214771
174,12111.5733994798266684982742028546939,12110.0,1.5733994798266684982742028546939
175,12251.1745536018570217434970302010786,12249.6,1.5745536018570217434970302010786
176,12391.5757011446234893652616609049208,12390.0,1.5757011446234893652616609049208
177,12532.7768421827391962661406909228437,12531.2,1.5768421827391962661406909228437
178,12674.7779767895550822427018313043423,12673.2,1.5779767895550822427018313043423
179,12817.5791050371882146219187628391997,12816.0,1.5791050371882146219187628391997
180,12961.1802269965493133376466082965072,12959.6,1.5802269965493133376466082965072
181,13105.5813427373695110957194736388210,13104.0,1.5813427373695110957194736388210
182,13250.7824523282263763230264999726811,13249.2,1.5824523282263763230264999726811
183,13396.7835558365692219498116019000042,13395.2,1.5835558365692219498116019000042
184,13543.5846533287437242667039151027959,13542.0,1.5846533287437242667039151027959
185,13691.1857448700158736645735355659183,13689.6,1.5857448700158736645735355659183
186,13839.5868305245952782258024908283275,13838.0,1.5868305245952782258024908283275
187,13988.7879103556578439674396580439528,13987.2,1.5879103556578439674396580439528
188,14138.7889844253678471725244779119950,14137.2,1.5889844253678471725244779119950
189,14289.5900527948994225406379940953009,14288.0,1.5900527948994225406379940953009
190,14441.1911155244574828087264326666933,14439.6,1.5911155244574828087264326666933
191,14593.5921726732980890647162504457852,14592.0,1.5921726732980890647162504457852
192,14746.7932242997482881360902814645310,14745.2,1.5932242997482881360902814645310
193,14900.7942704612254353572387995251428,14899.2,1.5942704612254353572387995251428
194,15055.5953112142560160563334669035122,15054.0,1.5953112142560160563334669035122
195,15211.1963466144939836940476634380293,15209.6,1.5963466144939836940476634380293
196,15367.5973767167386283459874056936530,15366.0,1.5973767167386283459874056936530
197,15524.7984015749519899041175563119848,15523.2,1.5984015749519899041175563119848
198,15682.7994212422758301591258732878815,15681.2,1.5994212422758301591258732878815
199,15841.6004357710481765975421472539426,15840.0,1.6004357710481765975421472539426
200,16001.2014452128194518537746774348733,15999.6,1.6014452128194518537746774348733
201,16161.6024496183681997934444994465137,16160.0,1.6024496183681997934444994465137
202,16322.8034490377164216041304416307820,16321.2,1.6034490377164216041304416307820
203,16484.8044435201445325482082511311190,16483.2,1.6044435201445325482082511311190
204,16647.6054331142059509926472582908460,16646.0,1.6054331142059509926472582908460
205,16811.2064178677413296810778935119646,16809.6,1.6064178677413296810778935119646
206,16975.6073978278924422668288538181120,16974.0,1.6073978278924422668288538181120
207,17140.8083730411157309775608457196332,17139.2,1.6083730411157309775608457196332
208,17306.8093435531955296329033480748545,17305.2,1.6093435531955296329033480748545
209,17473.6103094092569677579235318034415,17472.0,1.6103094092569677579235318034415
210,17641.2112706537785672880281933604587,17639.6,1.6112706537785672880281933604587
211,17809.6122273306045392242566780948669,17808.0,1.6122273306045392242566780948669
212,17978.8131794829567904660886762256914,17977.2,1.6131794829567904660886762256914
213,18148.8141271534466451996566718239507,18147.2,1.6141271534466451996566718239507
214,18319.6150703840862958170481613578211,18318.0,1.6150703840862958170481613578211
215,18491.2160092162999825729242166125903,18489.6,1.6160092162999825729242166125903
216,18663.6169436909349159329067374982377,18662.0,1.6169436909349159329067374982377
217,18836.8178738482719455727714913310370,18835.2,1.6178738482719455727714913310370
218,19010.8187997280359850008917353946656,19009.2,1.6187997280359850008917353946656
219,19185.6197213694061950768632330772078,19184.0,1.6197213694061950768632330772078
220,19361.2206388110259389344329611962483,19359.6,1.6206388110259389344329611962483
221,19537.6215520910125062110160948731180,19536.0,1.6215520910125062110160948731180
222,19714.8224612469666237811611765490107,19713.2,1.6224612469666237811611765490107
223,19892.8233663159817465547890848788585,19891.2,1.6233663159817465547890848788585
224,20071.6242673346531433994983644041597,20070.0,1.6242673346531433994983644041597
225,20251.2251643390867807434738087793796,20249.6,1.6251643390867807434738087793796
226,20431.6260573649080073969331095987138,20430.0,1.6260573649080073969331095987138
227,20612.8269464472700492349523805984149,20611.2,1.6269464472700492349523805984149
228,20794.8278316208623155518639486632288,20793.2,1.6278316208623155518639486632288
229,20977.6287129199185242393636920271857,20976.0,1.6287129199185242393636920271857
230,21161.2295903782246504745586272408607,21159.6,1.6295903782246504745586272408607
231,21345.6304640291267007072109795611421,21344.0,1.6304640291267007072109795611421
232,21530.8313339055383223550857964886060,21529.2,1.6313339055383223550857964886060
233,21716.8322000399482441928921304521373,21715.2,1.6322000399482441928921304521373
234,21903.6330624644275635808697330994679,21902.0,1.6330624644275635808697330994679
235,22091.2339212106368737041065176404495,22089.6,1.6339212106368737041065176404495
236,22279.6347763098332405213408416414764,22278.0,1.6347763098332405213408416414764
237,22468.8356277928770330433607723137221,22467.2,1.6356277928770330433607723137221
238,22658.8364756902386086719961102261114,22657.2,1.6364756902386086719961102261114
