Eigenstate,Energy,Kinetic Energy,Potential Energy
1,0.500000000061085302153716798928369135,0.0,0.500000000061085302153716798928369135
2,1.84623093804984801316708452051507348,1.2,0.64623093804984801316708452051507348
3,3.93633761087622435552581705623131629,3.2,0.73633761087622435552581705623131629
4,6.79966528025382072501105218490197493,6.0,0.79966528025382072501105218490197493
5,10.4480465795115511171272560019317011,9.6,0.8480465795115511171272560019317011
6,14.8870660034094270987842052640666208,14.0,0.8870660034094270987842052640666208
7,20.1197208333881321167863444611472585,19.2,0.9197208333881321167863444611472585
8,26.1477838558259487938243693590566616,25.2,0.9477838558259487938243693590566616
9,32.9723835697299468602751790430730439,32.0,0.9723835697299468602751790430730439
10,40.5942802292492114031927963534404198,39.6,0.9942802292492114031927963534404198
11,49.0140094045251440020258929661039292,48.0,1.0140094045251440020258929661039292
12,58.2319621908626514450705683066001863,57.2,1.0319621908626514450705683066001863
13,68.2484327183277686058216967332880426,67.2,1.0484327183277686058216967332880426
14,79.0636476846038378573652987224811060,78.0,1.0636476846038378573652987224811060
15,90.6777854708057047481915889468563660,89.6,1.0777854708057047481915889468563660
16,103.090988946350169913439232642044602,102.0,1.090988946350169913439232642044602
17,116.303374302417497963818257977958076,115.2,1.103374302417497963818257977958076
18,130.315037302957620090589243017655780,129.2,1.115037302957620090589243017655780
19,145.126057807794113915919273222074859,144.0,1.126057807794113915919273222074859
20,160.736503110258141556946500302929342,159.6,1.136503110258141556946500302929342
21,177.146430443270148002845212874578131,176.0,1.146430443270148002845212874578131
22,194.355888890498602148437684937958912,193.2,1.155888890498602148437684937958912
23,212.364920864296522135831638541286700,211.2,1.164920864296522135831638541286700
24,231.173563263101898044409308411590509,230.0,1.173563263101898044409308411590509
25,250.781848388233618698678111777774252,249.6,1.181848388233618698678111777774252
26,271.189804677699059749689376526119472,270.0,1.189804677699059749689376526119472
27,292.397457299156659776870266815095948,291.2,1.197457299156659776870266815095948
28,314.404828633274960342748858619115859,313.2,1.204828633274960342748858619115859
29,337.211938670934558107909167998059115,336.0,1.211938670934558107909167998059115
30,360.818805342069929541652108906697483,359.6,1.218805342069929541652108906697483
31,385.225444789802150261930768733022876,384.0,1.225444789802150261930768733022876
32,410.431871600435631452085162304039439,409.2,1.231871600435631452085162304039439
33,436.438098997582347996814931152384301,435.2,1.238098997582347996814931152384301
34,463.244139006926486712975320285457096,462.0,1.244139006926486712975320285457096
35,490.850002596803247984573829433406599,489.6,1.250002596803247984573829433406599
36,519.255699798732055232423409707600525,518.0,1.255699798732055232423409707600525
37,548.461239811240342100117420727104945,547.2,1.261239811240342100117420727104945
38,578.466631089683668494646043125331233,577.2,1.266631089683668494646043125331233
39,609.271881424270067970301855277359027,608.0,1.271881424270067970301855277359027
40,640.876998008100708160859730835996869,639.6,1.276998008100708160859730835996869
41,673.281987496722195691204901142282547,672.0,1.281987496722195691204901142282547
42,706.486856060430864398007908268465646,705.2,1.286856060430864398007908268465646
43,740.491609430362899344074502128245462,739.2,1.291609430362899344074502128245462
44,775.296252939236055095451911591868081,774.0,1.296252939236055095451911591868081
45,810.900791557471157161342689091888537,809.6,1.300791557471157161342689091888537
46,847.305229925308439214257705817699628,846.0,1.305229925308439214257705817699628
47,884.509572381440292095487582022026799,883.2,1.309572381440292095487582022026799
48,922.513822988604414246707350552745904,921.2,1.313822988604414246707350552745904
49,961.317985556516690664619267881206317,960.0,1.317985556516690664619267881206317
50,1000.92206366246900476187469772364501,999.6,1.32206366246900476187469772364501
51,1041.32606066987172055503479439560214,1040.0,1.32606066987172055503479439560214
52,1082.52997974498222738602297358526703,1081.2,1.32997974498222738602297358526703
53,1124.53382387202848926497018796788752,1123.2,1.33382387202848926497018796788752
54,1167.33759586690897979089296942399508,1166.0,1.33759586690897979089296942399508
55,1210.94129838962690811412811826906763,1209.6,1.34129838962690811412811826906763
56,1255.34493395559656683431932566441060,1254.0,1.34493395559656683431932566441060
57,1300.54850494594243376262896225274955,1299.2,1.34850494594243376262896225274955
58,1346.55201361689686229055512789986669,1345.2,1.35201361689686229055512789986669
59,1393.35546210838944116045637816437554,1392.0,1.35546210838944116045637816437554
60,1440.95885245191007992518294453552876,1439.6,1.35885245191007992518294453552876
61,1489.36218657771831215670681604537377,1488.0,1.36218657771831215670681604537377
62,1538.56546632146300745852861244025769,1537.2,1.36546632146300745852861244025769
63,1588.56869343026944144761718009285536,1587.2,1.36869343026944144761718009285536
64,1639.37186956834436039171496963935988,1638.0,1.37186956834436039171496963935988
65,1690.97499632214414234786864019871694,1689.6,1.37499632214414234786864019871694
66,1743.37807520514630930898940882309349,1742.0,1.37807520514630930898940882309349
67,1796.58110766226038257392123911766979,1795.2,1.38110766226038257392123911766979
68,1850.58409507391031739568591933061791,1849.2,1.38409507391031739568591933061791
69,1905.38703875981744029184686687493695,1904.0,1.38703875981744029184686687493695
70,1960.98993998250988413266869262985408,1959.6,1.38993998250988413266869262985408
71,2017.39279995058191741901864244565406,2016.0,1.39279995058191741901864244565406
72,2074.59561982172426591957517690397710,2073.2,1.39561982172426591957517690397710
73,2132.59840070554447183050580259854812,2131.2,1.39840070554447183050580259854812
74,2191.40114366619451677222270885940894,2190.0,1.40114366619451677222270885940894
75,2251.00384972482130383672191929685625,2249.6,1.40384972482130383672191929685625
76,2311.40651986185414434225580497926752,2310.0,1.40651986185414434225580497926752
77,2372.60915501914209255367085116823822,2371.2,1.40915501914209255367085116823822
78,2434.61175610195280582856203599996812,2433.2,1.41175610195280582856203599996812
79,2497.41432398084356082940275725464233,2496.0,1.41432398084356082940275725464233
80,2561.01685949341411831616462902836500,2559.6,1.41685949341411831616462902836500
81,2625.41936344595027969246491238005507,2624.0,1.41936344595027969246491238005507
82,2690.62183661496621702772548200507524,2689.2,1.42183661496621702772548200507524
83,2756.62427974865296954403760743023259,2755.2,1.42427974865296954403760743023259
84,2823.42669356823987526471055798100780,2822.0,1.42669356823987526471055798100780
85,2891.02907876927514724530830860597836,2889.6,1.42907876927514724530830860597836
86,2959.43143602283128794258912095004640,2958.0,1.43143602283128794258912095004640
87,3028.63376597664057780596306838967853,3027.2,1.43376597664057780596306838967853
88,3098.63606925616545079834659061056286,3097.2,1.43606925616545079834659061056286
89,3169.43834646560818605113172151509834,3168.0,1.43834646560818605113172151509834
90,3241.04059818886400164125832727138644,3239.6,1.44059818886400164125832727138644
91,3313.44282499042131502632703162595807,3312.0,1.44282499042131502632703162595807
92,3386.64502741621264637615116225471315,3385.2,1.44502741621264637615116225471315
93,3460.64720599441937878409063884647214,3459.2,1.44720599441937878409063884647214
94,3535.44936123623334641277244826309404,3534.0,1.44936123623334641277244826309404
95,3611.05149363657800047477347520906508,3609.6,1.45149363657800047477347520906508
96,3687.45360367479170112672478583352203,3686.0,1.45360367479170112672478583352203
97,3764.65569181527549901318730262969348,3763.2,1.45569181527549901318730262969348
98,3842.65775850810759732235354304537044,3841.2,1.45775850810759732235354304537044
99,3921.45980418962653174344157684096945,3920.0,1.45980418962653174344157684096945
100,4001.06182928298495937523078210053781,3999.6,1.46182928298495937523078210053781
101,4081.46383419867581833103497788877415,4080.0,1.46383419867581833103497788877415
102,4162.66581933503249421068705509687841,4161.2,1.46581933503249421068705509687841
103,4244.66778507870452169649658270609999,4243.2,1.46778507870452169649658270609999
104,4327.46973180511024226543179165276087,4326.0,1.46973180511024226543179165276087
105,4411.07165987886774593601970620126364,4409.6,1.47165987886774593601970620126364
106,4495.47356965420533420421531606988435,4494.0,1.47356965420533420421531606988435
107,4580.67546147535266324053474498205449,4579.2,1.47546147535266324053474498205449
108,4666.67733567691364718119344641546365,4665.2,1.47733567691364718119344641546365
109,4753.47919258422213275245605927836340,4752.0,1.47919258422213275245605927836340
110,4841.08103251368129404727964683573323,4839.6,1.48103251368129404727964683573323
111,4929.48285577308763041213357411282607,4928.0,1.48285577308763041213357411282607
112,5018.68466266194040096824583872874542,5017.2,1.48466266194040096824583872874542
113,5108.68645347173727375573171576455842,5107.2,1.48645347173727375573171576455842
114,5199.48822848625691873130417986046556,5198.0,1.48822848625691873130417986046556
115,5291.08998798182923340176314410077233,5289.6,1.48998798182923340176314410077233
116,5383.49173222759384154381235185117670,5382.0,1.49173222759384154381235185117670
117,5476.69346148574747374774617342683078,5475.2,1.49346148574747374774617342683078
118,5570.69517601178079749144276308591081,5569.2,1.49517601178079749144276308591081
119,5665.49687605470523073738409826383892,5664.0,1.49687605470523073738409826383892
120,5761.09856185727024720318853307605299,5759.6,1.49856185727024720318853307605299
121,5857.50023365617164318889695132751241,5856.0,1.50023365617164318889695132751241
122,5954.70189168225121693112130810269659,5953.2,1.50189168225121693112130810269659
123,6052.70353616068827926123225840530620,6051.2,1.50353616068827926123225840530620
124,6151.50516731118339666495384859667657,6150.0,1.50516731118339666495384859667657
125,6251.10678534813473827447055321689833,6249.6,1.50678534813473827447055321689833
126,6351.50839048080738312685408532655758,6350.0,1.50839048080738312685408532655758
127,6452.70998291349592344473134217832697,6451.2,1.50998291349592344473134217832697
128,6554.71156284568067710792492258406995,6553.2,1.51156284568067710792492258406995
129,6657.51313047217781041155968594486395,6656.0,1.51313047217781041155968594486395
130,6761.11468598328365382426154845244718,6759.6,1.51468598328365382426154845244718
131,6865.51622956491347805595671094242213,6864.0,1.51622956491347805595671094242213
132,6970.71776139873498276757928146375526,6969.2,1.51776139873498276757928146375526
133,7076.71928166229673847341021195605474,7075.2,1.51928166229673847341021195605474
134,7183.52079052915181091081321096283524,7182.0,1.52079052915181091081321096283524
135,7291.12228816897677904378973940940839,7289.6,1.52228816897677904378973940940839
136,7399.52377474768635417924530889924257,7398.0,1.52377474768635417924530889924257
137,7508.72525042754379436691595878269318,7507.2,1.52525042754379436691595878269318
138,7618.72671536726729464191308116138943,7617.2,1.52671536726729464191308116138943
139,7729.52816972213253156293933708529305,7728.0,1.52816972213253156293933708529305
140,7841.12961364407152505326010781420461,7839.6,1.52961364407152505326010781420461
141,7953.53104728176797599402511614529501,7952.0,1.53104728176797599402511614529501
142,8066.73247078074922994626812621864618,8065.2,1.53247078074922994626812621864618
143,8180.73388428347500872774292165946780,8179.2,1.53388428347500872774292165946780
144,8295.53528792942304439111746312654397,8294.0,1.53528792942304439111746312654397
145,8411.13668185517174596228853637784116,8409.6,1.53668185517174596228853637784116
146,8527.53806619448002142882890187126052,8526.0,1.53806619448002142882890187126052
147,8644.73944107836436926561277709760096,8643.2,1.53944107836436926561277709760096
148,8762.74080663517335482663221771945113,8761.2,1.54080663517335482663221771945113
149,8881.54216299065957340394312394059978,8880.0,1.54216299065957340394312394059978
150,9001.14351026804920359460179439888292,8999.6,1.54351026804920359460179439888292
151,9121.54484858810924688983040831103968,9120.0,1.54484858810924688983040831103968
152,9242.74617806921254378556404675490336,9241.2,1.54617806921254378556404675490336
153,9364.74749882740065536405625427004831,9363.2,1.54749882740065536405625427004831
154,9487.54881097644469424576760777053606,9486.0,1.54881097644469424576760777053606
155,9611.15011462790418314751262648234227,9609.6,1.55011462790418314751262648234227
156,9735.55140989118401891321022137653090,9734.0,1.55140989118401891321022137653090
157,9860.75269687358961306382255852723578,9859.2,1.55269687358961306382255852723578
158,9986.75397568038028068456548403940590,9985.2,1.55397568038028068456548403940590
159,10113.5552464148209413222054498750853,10112.0,1.5552464148209413222054498750853
160,10241.1565091782321982299623275695067,10239.6,1.5565091782321982299623275695067
161,10369.5577640700388544561188465964059,10368.0,1.5577640700388544561188465964059
162,10498.7590111878169252374180966373426,10497.2,1.5590111878169252374180966373426
163,10628.7602506273392015505281156634140,10627.2,1.5602506273392015505281156634140
164,10759.5614824826194194581491983686225,10758.0,1.5614824826194194581491983686225
165,10891.1627068459550838499616363234885,10889.6,1.5627068459550838499616363234885
166,11023.5639238079689970939829180961201,11022.0,1.5639238079689970939829180961201
167,11156.7651334576495398306345059912753,11155.2,1.5651334576495398306345059912753
168,11290.7663358823897465984126459472972,11289.2,1.5663358823897465984126459472972
169,11425.5675311680252213532340561414778,11424.0,1.5675311680252213532340561414778
170,11561.1687193988709326245537679371512,11559.6,1.5687193988709326245537679371512
171,11697.5699006577569285026965272271271,11696.0,1.5699006577569285026965272271271
172,11834.7710750260630093240410818047858,11833.2,1.5710750260630093240410818047858
173,11972.7722425837523934563693543751921,11971.2,1.5722425837523934563693543751921
174,12111.5734034094044120278760935894323,12110.0,1.5734034094044120278760935894323
175,12251.1745575802462665847534648876042,12249.6,1.5745575802462665847534648876042
176,12391.5757051721838793836853367530469,12390.0,1.5757051721838793836853367530469
177,12532.7768462598318695797703405230385,12531.2,1.5768462598318695797703405230385
178,12674.7779809165426844642521695966267,12673.2,1.5779809165426844642521695966267
179,12817.5791092144349121969847836973847,12816.0,1.5791092144349121969847836973847
180,12961.1802312244208069800140663082762,12959.6,1.5802312244208069800140663082762
181,13105.5813470162330493208441150145391,13104.0,1.5813470162330493208441150145391
182,13250.7824566584507690807563191521129,13249.2,1.5824566584507690807563191521129
183,13396.7835602185248543574377801626121,13395.2,1.5835602185248543574377801626121
184,13543.5846577628025704434377483340977,13542.0,1.5846577628025704434377483340977
185,13691.1857493565515106685585839181081,13689.6,1.5857493565515106685585839181081
186,13839.5868350639829000947830262351467,13838.0,1.5868350639829000947830262351467
187,13988.7879149482742758642187110784921,13987.2,1.5879149482742758642187110784921
188,14138.7889890715915596363571409016383,14137.2,1.5889890715915596363571409016383
189,14289.5900574951105458457180677031456,14288.0,1.5900574951105458457180677031456
190,14441.1911202790378214309370828844445,14439.6,1.5911202790378214309370828844445
191,14593.5921774826311362578282612345674,14592.0,1.5921774826311362578282612345674
192,14746.7932291642192406186045251524778,14745.2,1.5932291642192406186045251524778
193,14900.7942753812212081110825010513713,14899.2,1.5942753812212081110825010513713
194,15055.5953161901652572386334155239799,15054.0,1.5953161901652572386334155239799
195,15211.1963516467070896632169263246027,15209.6,1.5963516467070896632169263246027
196,15367.5973818056477588033758085315169,15366.0,1.5973818056477588033758085315169
197,15524.7984067209510831524902008430634,15523.2,1.5984067209510831524902008430634
198,15682.7994264457606184792478896234799,15681.2,1.5994264457606184792478896234799
199,15841.6004410324162017441624145156751,15840.0,1.6004410324162017441624145156751
200,16001.2014505324700806723152168773692,15999.6,1.6014505324700806723152168773692
201,16161.6024549967026399587176051643822,16160.0,1.6024549967026399587176051643822
202,16322.8034544751377374824198852480151,16321.2,1.6034544751377374824198852480151
203,16484.8044490170576611840664611399335,16483.2,1.6044490170576611840664611399335
204,16647.6054386710177182217751666168299,16646.0,1.6054386710177182217751666168299
205,16811.2064234848604663706700420594178,16809.6,1.6064234848604663706700420594178
206,16975.6074035057296006847817646977949,16974.0,1.6074035057296006847817646977949
207,17140.8083787800835012919590006978359,17139.2,1.6083787800835012919590006978359
208,17306.8093493537084565432125226061914,17305.2,1.6093493537084565432125226061914
209,17473.6103152717315672593386273036426,17472.0,1.6103152717315672593386273036426
210,17641.2112765786333435704382256060397,17639.6,1.6112765786333435704382256060397
211,17809.6122333182600017073070696626978,17808.0,1.6122333182600017073070696626978
212,17978.8131855338354709718380402594367,17977.2,1.6131855338354709718380402594367
213,18148.8141332679731152643420624204854,18147.2,1.6141332679731152643420624204854
214,18319.6150765626871841434909106397867,18318.0,1.6150765626871841434909106397867
215,18491.2160154594039926251258005271345,18489.6,1.6160154594039926251258005271345
216,18663.6169499989728436744024141791579,18662.0,1.6169499989728436744024141791579
217,18836.8178802216766973503275289615830,18835.2,1.6178802216766973503275289615830
218,19010.8188061672425955751503492120172,19009.2,1.6188061672425955751503492120172
219,19185.6197278748518458015590652178684,19184.0,1.6197278748518458015590652178684
220,19361.2206453831499760858227291542720,19359.6,1.6206453831499760858227291542720
221,19537.6215587302564594691831864185760,19536.0,1.6215587302564594691831864185760
222,19714.8224679537742248648762876531209,19713.2,1.6224679537742248648762876531209
223,19892.8233730907989480116277069033690,19891.2,1.6233730907989480116277069033690
224,20071.6242741779281375529363483813894,20070.0,1.6242741779281375529363483813894
225,20251.2251712512700187987023718746546,20249.6,1.6251712512700187987023718746546
226,20431.6260643464522187071556728045428,20430.0,1.6260643464522187071556728045428
227,20612.8269534986302607299460183815856,20611.2,1.6269534986302607299460183815856
228,20794.8278387424958713306102643114638,20793.2,1.6278387424958713306102643114638
229,20977.6287201122851053285751581882618,20976.0,1.6287201122851053285751581882618
230,21161.2295976417862947549479536869314,21159.6,1.6295976417862947549479536869314
231,21345.6304713643478230093740323077946,21344.0,1.6304713643478230093740323077946
232,21530.8313413128857347268905053514691,21529.2,1.6313413128857347268905053514691
233,21716.8322075198911763402889178528362,21715.2,1.6322075198911763402889178528362
234,21903.6330700174376834840619272565770,21902.0,1.6330700174376834840619272565770
235,22091.2339288371883084110432612880608,22089.6,1.6339288371883084110432612880608
236,22279.6347840104025971205178548881052,22278.0,1.6347840104025971205178548881052
237,22468.8356355679434198179397071739329,22467.2,1.6356355679434198179397071739329
238,22658.8364835402836564372764402098460,22657.2,1.6364835402836564372764402098460
