Eigenstate,Energy,Kinetic Energy,Potential Energy
1,0.500000000012704145492117690084322660,0.0,0.500000000012704145492117690084322660
2,1.84623093773404066142720058664701313,1.2,0.64623093773404066142720058664701313
3,3.93633760994856403523251311508686881,3.2,0.73633760994856403523251311508686881
4,6.79966527832160533034647956438321845,6.0,0.79966527832160533034647956438321845
5,10.4480465761645478983951413964264184,9.6,0.8480465761645478983951413964264184
6,14.8870659982302169327105937063382402,14.0,0.8870659982302169327105937063382402
7,20.1197208259559204443207787968152722,19.2,0.9197208259559204443207787968152722
8,26.1477838457181545297143726001375510,25.2,0.9477838457181545297143726001375510
9,32.9723835565229408616751784463503759,32.0,0.9723835565229408616751784463503759
10,40.5942802125186909286692227009085994,39.6,0.9942802125186909286692227009085994
11,49.0140093838463358107716870866845783,48.0,1.0140093838463358107716870866845783
12,58.2319621658104275730804060074988761,57.2,1.0319621658104275730804060074988761
13,68.2484326884767146023801780125977916,67.2,1.0484326884767146023801780125977916
14,79.0636476495282936616602313445626003,78.0,1.0636476495282936616602313445626003
15,90.6777854300797890595025785663531669,89.6,1.0777854300797890595025785663531669
16,103.090988899547794192046964741030737,102.0,1.090988899547794192046964741030737
17,116.303374249112373686044441343512826,115.2,1.103374249112373686044441343512826
18,130.315037242723261479075244938225962,129.2,1.115037242723261479075244938225962
19,145.126057740203837552158497854189684,144.0,1.126057740203837552158497854189684
20,160.736503034885063793593728473934184,159.6,1.136503034885063793593728473934184
21,177.146430359687180789712667695221602,176.0,1.146430359687180789712667695221602
22,194.355888798278447692473833656357317,193.2,1.155888798278447692473833656357317
23,212.364920763011666688804511142506164,211.2,1.164920763011666688804511142506164
24,231.173563152324605027394782181574220,230.0,1.173563152324605027394782181574220
25,250.781848267535921314721154384371899,249.6,1.181848267535921314721154384371899
26,271.189804546652753195885983490427090,270.0,1.189804546652753195885983490427090
27,292.397457157333293138763782392944191,291.2,1.197457157333293138763782392944191
28,314.404828480245828233584634365093134,313.2,1.204828480245828233584634365093134
29,337.211938506270692100478120858319175,336.0,1.211938506270692100478120858319175
30,360.818805165342089429528715201228517,359.6,1.218805165342089429528715201228517
31,385.225444600580815178755757080958842,384.0,1.225444600580815178755757080958842
32,410.431871398290990871386947163988771,409.2,1.231871398290990871386947163988771
33,436.438098782084292630167905422362469,435.2,1.238098782084292630167905422362469
34,463.244138777644599320676257929545827,462.0,1.244138777644599320676257929545827
35,490.850002353306794110206417147588033,489.6,1.250002353306794110206417147588033
36,519.255699540589973870477367721060687,518.0,1.255699540589973870477367721060687
37,548.461239538021236304087436565499694,547.2,1.261239538021236304087436565499694
38,578.466630800955795931649659272498528,577.2,1.266630800955795931649659272498528
39,609.271881119601331427144177173060611,608.0,1.271881119601331427144177173060611
40,640.876997687058646005575839322533268,639.6,1.276997687058646005575839322533268
41,673.281987158873972293382452303447834,672.0,1.281987158873972293382452303447834
42,706.486855705343260510597127604318471,705.2,1.286855705343260510597127604318471
43,740.491609057602302448903634269024290,739.2,1.291609057602302448903634269024290
44,775.296252548368449714262119981336965,774.0,1.296252548368449714262119981336965
45,810.900791148062115133820758991666078,809.6,1.300791148062115133820758991666078
46,847.305229496923109944264746358296640,846.0,1.305229496923109944264746358296640
47,884.509571933643392766447099048678596,883.2,1.309571933643392766447099048678596
48,922.513822520960220006918090322835251,921.2,1.313822520960220006918090322835251
49,961.317985068589024783090837058130527,960.0,1.317985068589024783090837058130527
50,1000.92206315382122875514169655120577,999.6,1.32206315382122875514169655120577
51,1041.32606014006672428528371252564769,1040.0,1.32606014006672428528371252564769
52,1082.52997919358241913076213221610513,1081.2,1.32997919358241913076213221610513
53,1124.53382329859578575838355916982852,1123.2,1.33382329859578575838355916982852
54,1167.33759527100479623694140207594738,1166.0,1.33759527100479623694140207594738
55,1210.94129777081214817139457953606987,1209.6,1.34129777081214817139457953606987
56,1255.34493331343161257253649350579508,1254.0,1.34493331343161257253649350579508
57,1300.54850427998713559077673661079317,1299.2,1.34850427998713559077673661079317
58,1346.55201292671052885637083315189427,1345.2,1.35201292671052885637083315189427
59,1393.35546139353082922116148749486478,1392.0,1.35546139353082922116148749486478
60,1440.95885171193738418919531613476972,1439.6,1.35885171193738418919531613476972
61,1489.36218581218915509607691095923688,1488.0,1.36218581218915509607691095923688
62,1538.56546552993442909181067975079194,1537.2,1.36546552993442909181067975079194
63,1588.56869261229788909286218560801148,1587.2,1.36869261229788909286218560801148
64,1639.37186872348567838925017481689877,1638.0,1.37186872348567838925017481689877
65,1690.97499544995356175250897895446913,1689.6,1.37499544995356175250897895446913
66,1743.37807430517843755130813349063662,1742.0,1.37807430517843755130813349063662
67,1796.58110673406919309019121355856777,1795.2,1.38110673406919309019121355856777
68,1850.58409411704913922608824908322861,1849.2,1.38409411704913922608824908322861
69,1905.38703777383894764653000875000765,1904.0,1.38703777383894764653000875000765
70,1960.98993896696608592522920488678702,1959.6,1.38993896696608592522920488678702
71,2017.39279890502414676696294272081541,2016.0,1.39279890502414676696294272081541
72,2074.59561874570316961131159654584840,2073.2,1.39561874570316961131159654584840
73,2132.59839959860999975840608117743409,2131.2,1.39839959860999975840608117743409
74,2191.40114252789591133128320341076957,2190.0,1.40114252789591133128320341076957
75,2251.00384855470708928834602143666930,2249.6,1.40384855470708928834602143666930
76,2311.40651865947211614267122035078930,2310.0,1.40651865947211614267122035078930
77,2372.60915378403930664648761036849395,2371.2,1.40915378403930664648761036849395
78,2434.61175483367556790096987971414552,2433.2,1.41175483367556790096987971414552
79,2497.41432267893741553149965083788550,2496.0,1.41432267893741553149965083788550
80,2561.01685815742383844290163610317988,2559.6,1.41685815742383844290163610317988
81,2625.41936207541985532768614979803256,2624.0,1.41936207541985532768614979803256
82,2690.62183520943884464977586844856987,2689.2,1.42183520943884464977586844856987
83,2756.62427830767104109240516267899457,2755.2,1.42427830767104109240516267899457
84,2823.42669209134496716716425784390139,2822.0,1.42669209134496716716425784390139
85,2891.02907725600800940498686541015936,2889.6,1.42907725600800940498686541015936
86,2959.43143447273183268449069514929379,2958.0,1.43143447273183268449069514929379
87,3028.63376438924786878228038722787767,3027.2,1.43376438924786878228038722787767
88,3098.63606763101769185208679473520365,3097.2,1.43606763101769185208679473520365
89,3169.43834480224271003745507386984164,3168.0,1.43834480224271003745507386984164
90,3241.04059648681725920596477675552418,3239.6,1.44059648681725920596477675552418
91,3313.44282324922886334091449109446817,3312.0,1.44282324922886334091449109446817
92,3386.64502563540913782886446584917990,3385.2,1.44502563540913782886446584917990
93,3460.64720417353854962637505053550428,3459.2,1.44720417353854962637505053550428
94,3535.44935937480800536054068811288349,3534.0,1.44935937480800536054068811288349
95,3611.05149173414001726389020075731394,3609.6,1.45149173414001726389020075731394
96,3687.45360173087199502210772609480732,3686.0,1.45360173087199502210772609480732
97,3764.65568982940402727091899981111283,3763.2,1.45568982940402727091899981111283
98,3842.65775647981334360419307924267871,3841.2,1.45775647981334360419307924267871
99,3921.45980211843749448312038238618713,3920.0,1.45980211843749448312038238618713
100,4001.06182716842814009591194582222093,3999.6,1.46182716842814009591194582222093
101,4081.46383204027720991331026453806408,4080.0,1.46383204027720991331026453806408
102,4162.66581713231706911048104331037051,4161.2,1.46581713231706911048104331037051
103,4244.66778283119622011224231430236736,4243.2,1.46778283119622011224231430236736
104,4327.46972951233196025387692084238107,4326.0,1.46972951233196025387692084238107
105,4411.07165754034132347601754198251110,4409.6,1.47165754034132347601754198251110
106,4495.47356726945154320784967300442418,4494.0,1.47356726945154320784967300442418
107,4580.67545904389119551092258192169931,4579.2,1.47545904389119551092258192169931
108,4666.67733319826310231630388404372182,4665.2,1.47733319826310231630388404372182
109,4753.47919005790000599427920235668725,4752.0,1.47919005790000599427920235668725
110,4841.08102993920396407567334644650704,4839.6,1.48102993920396407567334644650704
111,4929.48285314997034708267089455459868,4928.0,1.48285314997034708267089455459868
112,5018.68465998969727299338061018421474,5017.2,1.48465998969727299338061018421474
113,5108.68645074988125632859405626950340,5107.2,1.48645074988125632859405626950340
114,5199.48822571429980109143239602054426,5198.0,1.48822571429980109143239602054426
115,5291.08998515928162634207284248578468,5289.6,1.48998515928162634207284248578468
116,5383.49172935396516485809796721549856,5382.0,1.49172935396516485809796721549856
117,5476.69345856054594361800433326562974,5475.2,1.49345856054594361800433326562974
118,5570.69517303451341381430132600064332,5569.2,1.49517303451341381430132600064332
119,5665.49687302487776438891479515141648,5664.0,1.49687302487776438891479515141648
120,5761.09855877438722724137509307073102,5759.6,1.49855877438722724137509307073102
121,5857.50023051973634399302490617252974,5856.0,1.50023051973634399302490617252974
122,5954.70188849176564527734946835535717,5953.2,1.50188849176564527734946835535717
123,6052.70353291565316133359975634702395,6051.2,1.50353291565316133359975634702395
124,6151.50516401109816500107059989902694,6150.0,1.50516401109816500107059989902694
125,6251.10678199249751864513253998495572,6249.6,1.50678199249751864513253998495572
126,6351.50838706911498134881869353607833,6350.0,1.50838706911498134881869353607833
127,6452.70997944524381212588151156937554,6451.2,1.50997944524381212588151156937554
128,6554.71155932036298232404439735867068,6553.2,1.51155932036298232404439735867068
129,6657.51312688928729831393507027797934,6656.0,1.51312688928729831393507027797934
130,6761.11468234231171717732028252141444,6759.6,1.51468234231171717732028252141444
131,6865.51622586535012270414341490287106,6864.0,1.51622586535012270414341490287106
132,6970.71775764006881403066566617284643,6969.2,1.51775764006881403066566617284643
133,7076.71927784401494746942767845442340,7075.2,1.51927784401494746942767845442340
134,7183.52078665074016080578943343747664,7182.0,1.52078665074016080578943343747664
135,7291.12228422991959122746388590419163,7289.6,1.52228422991959122746388590419163
136,7399.52377074746649436592944290650062,7398.0,1.52377074746649436592944290650062
137,7508.72524636564265862066268443796711,7507.2,1.52524636564265862066268443796711
138,7618.72671124316479532514227179502179,7617.2,1.52671124316479532514227179502179
139,7729.52816553530708320766927113165988,7728.0,1.52816553530708320766927113165988
140,7841.12960939400003015408088489800386,7839.6,1.52960939400003015408088489800386
141,7953.53104296792581072194466363748817,7952.0,1.53104296792581072194466363748817
142,8066.73246640261022978255308865672277,8065.2,1.53246640261022978255308865672277
143,8180.73387984051145401686925597994118,8179.2,1.53387984051145401686925597994118
144,8295.53528342110564581193726290242721,8294.0,1.53528342110564581193726290242721
145,8411.13667728096962991651196402514155,8409.6,1.53667728096962991651196402514155
146,8527.53806155386071534591167902450633,8526.0,1.53806155386071534591167902450633
147,8644.73943637079378682313152295508568,8643.2,1.53943637079378682313152295508568
148,8762.74080186011578108522170679378269,8761.2,1.54080186011578108522170679378269
149,8881.54215814757764985586076028118681,8880.0,1.54215814757764985586076028118681
150,9001.14350535640391312497660686327455,8999.6,1.54350535640391312497660686327455
151,9121.54484360735989864964444666379100,9120.0,1.54484360735989864964444666379100
152,9242.74617301881675797540592267570872,9241.2,1.54617301881675797540592267570872
153,9364.74749370681434792767727001697593,9363.2,1.54749370681434792767727001697593
154,9487.54880578512206147246224491716388,9486.0,1.54880578512206147246224491716388
155,9611.15010936529768618233571473374542,9609.6,1.55010936529768618233571473374542
156,9735.55140455674436817403385207575252,9734.0,1.55140455674436817403385207575252
157,9860.75269146676575256422679666208543,9859.2,1.55269146676575256422679666208543
158,9986.75397020061937226154713304459561,9985.2,1.55397020061937226154713304459561
159,10113.5552408615683487676795834254223,10112.0,1.5552408615683487676795834254223
160,10241.1565035509314713250215849755171,10239.6,1.5565035509314713250215849755171
161,10369.5577583681317129070056393709843,10368.0,1.5577583681317129070056393709843
162,10498.7590054107432425121547155438094,10497.2,1.5590054107432425121547155438094
163,10628.7602447745369886151400594754185,10627.2,1.5602447745369886151400594754185
164,10759.5614765535248084114062291769670,10758.0,1.5614765535248084114062291769670
165,10891.1627008400023114555508774631509,10889.6,1.5627008400023114555508774631509
166,11023.5639177245903882090180547881206,11022.0,1.5639177245903882090180547881206
167,11156.7651272962754907293942914727848,11155.2,1.5651272962754907293942914727848
168,11290.7663296424487081901908146575058,11289.2,1.5663296424487081901908146575058
169,11425.5675248489436822931725036757353,11424.0,1.5675248489436822931725036757353
170,11561.1687130000734023163190222298301,11559.6,1.5687130000734023163190222298301
171,11697.5698941786659199918488531342216,11696.0,1.5698941786659199918488531342216
172,11834.7710684660990220809339448863535,11833.2,1.5710684660990220809339448863535
173,11972.7722359423338960474055788070487,11971.2,1.5722359423338960474055788070487
174,12111.5733966859478246739352312294685,12110.0,1.5733966859478246739352312294685
175,12251.1745507741659436055932249162021,12249.6,1.5745507741659436055932249162021
176,12391.5756982828920915271077522560799,12390.0,1.5756982828920915271077522560799
177,12532.7768392867387862343314748640787,12531.2,1.5768392867387862343314748640787
178,12674.7779738590563557542816240902354,12673.2,1.5779738590563557542816240902354
179,12817.5791020719612509586690771001215,12816.0,1.5791020719612509586690771001215
180,12961.1802239963635706172849940868599,12959.6,1.5802239963635706172849940868599
181,13105.5813397019938215398007942192081,13104.0,1.5813397019938215398007942192081
182,13250.7824492574289415013364304579834,13249.2,1.5824492574289415013364304579834
183,13396.7835527301176080010404313144310,13395.2,1.5835527301176080010404313144310
184,13543.5846501864048570951872427669674,13542.0,1.5846501864048570951872427669674
185,13691.1857416915560341128845605295852,13689.6,1.5857416915560341128845605295852
186,13839.5868273097800972229793783128109,13838.0,1.5868273097800972229793783128109
187,13988.7879071042522976526292687775796,13987.2,1.5879071042522976526292687775796
188,14138.7889811371362519938224752345955,14137.2,1.5889811371362519938224752345955
189,14289.5900494696054303289034051280343,14288.0,1.5900494696054303289034051280343
190,14441.1911121618640758261470550818369,14439.6,1.5911121618640758261470550818369
191,14593.5921692731675750278996387955391,14592.0,1.5921692731675750278996387955391
192,14746.7932208618422952134531565214092,14745.2,1.5932208618422952134531565214092
193,14900.7942669853049071404660184685272,14899.2,1.5942669853049071404660184685272
194,15055.5953077000812065056758532085552,15054.0,1.5953077000812065056758532085552
195,15211.1963430618244520572262334407245,15209.6,1.5963430618244520572262334407245
196,15367.5973731253332340504695652298197,15366.0,1.5973731253332340504695652298197
197,15524.7983979445688874225290933465600,15523.2,1.5983979445688874225290933465600
198,15682.7994175726724638475607285489556,15681.2,1.5994175726724638475607285489556
199,15841.6004320619812755065297927747315,15840.0,1.6004320619812755065297927747315
200,16001.2014414640450245116633159689633,15999.6,1.6014414640450245116633159689633
201,16161.6024458296415289619562610266127,16160.0,1.6024458296415289619562610266127
202,16322.8034452087920590058425468988544,16321.2,1.6034452087920590058425468988544
203,16484.8044396507762935657125880703193,16483.2,1.6044396507762935657125880703193
204,16647.6054292041469093391383241390042,16646.0,1.6054292041469093391383241390042
205,16811.2064139167438120421174602699151,16809.6,1.6064139167438120421174602699151
206,16975.6073938357080229130333118729612,16974.0,1.6073938357080229130333118729612
207,17140.8083690074952263479553565571595,17139.2,1.6083690074952263479553565571595
208,17306.8093394778889928886846970932317,17305.2,1.6093394778889928886846970932317
209,17473.6103052920136833063715377818951,17472.0,1.6103052920136833063715377818951
210,17641.2112664943470452763033074136538,17639.6,1.6112664943470452763033074136538
211,17809.6122231287325100028193670776910,17808.0,1.6122231287325100028193670776910
212,17978.8131752383911990214739560815732,17977.2,1.6131752383911990214739560815732
213,18148.8141228659336455563347860966423,18147.2,1.6141228659336455563347860966423
214,18319.6150660533712454081004568123975,18318.0,1.6150660533712454081004568123975
215,18491.2160048421274365792608019880150,18489.6,1.6160048421274365792608019880150
216,18663.6169392730486215907502391071087,18662.0,1.6169392730486215907502391071087
217,18836.8178693864148364491290375891615,18835.2,1.6178693864148364491290375891615
218,19010.8187952219501752367349279536788,19009.2,1.6187952219501752367349279536788
219,19185.6197168188329735977333745596371,19184.0,1.6197168188329735977333745596371
220,19361.2206342157057636281866369718807,19359.6,1.6206342157057636281866369718807
221,19537.6215474506849980724236276665290,19536.0,1.6215474506849980724236276665290
222,19714.8224565613705610230681428935481,19713.2,1.6224565613705610230681428935481
223,19892.8233615848550586855486137784248,19891.2,1.6233615848550586855486137784248
224,20071.6242625577329052663794421317848,20070.0,1.6242625577329052663794421317848
225,20251.2251595161092065417481873431647,20249.6,1.6251595161092065417481873431647
226,20431.6260524956084446443411224693539,20430.0,1.6260524956084446443411224693539
227,20612.8269415313829727112452166666025,20611.2,1.6269415313829727112452166666025
228,20794.8278266581213212031173341050060,20793.2,1.6278266581213212031173341050060
229,20977.6287079100563230467554897362367,20976.0,1.6287079100563230467554897362367
230,21161.2295853209730622872999301460602,21159.6,1.6295853209730622872999301460602
231,21345.6304589242166480393179300765450,21344.0,1.6304589242166480393179300765450
232,21530.8313287526998241456763157037087,21529.2,1.6313287526998241456763157037087
233,21716.8321948389104095296893158248007,21715.2,1.6321948389104095296893158248007
234,21903.6330572149185853865905706232322,21902.0,1.6330572149185853865905706232322
235,22091.2339159123840223854121810262680,22089.6,1.6339159123840223854121810262680
236,22279.6347709625628575800217105327215,22278.0,1.6347709625628575800217105327215
237,22468.8356223963145246494264103579017,22467.2,1.6356223963145246494264103579017
238,22658.8364702441084391983378586074271,22657.2,1.6364702441084391983378586074271
