Eigenstate,Energy,Kinetic Energy,Potential Energy
1,0.500000000045197066837352594385226380,0.0,0.500000000045197066837352594385226380
2,1.84623093794613757852638005429922967,1.2,0.64623093794613757852638005429922967
3,3.93633761057158188802126967827234750,3.2,0.73633761057158188802126967827234750
4,6.79966527961928115798912129049921874,6.0,0.79966527961928115798912129049921874
5,10.4480465784123897037045112229177388,9.6,0.8480465784123897037045112229177388
6,14.8870660017085555229724860594618255,14.0,0.8870660017085555229724860594618255
7,20.1197208309473490757750245859177890,19.2,0.9197208309473490757750245859177890
8,26.1477838525064608715469289666146938,25.2,0.9477838525064608715469289666146938
9,32.9723835653926101176651914865975785,32.0,0.9723835653926101176651914865975785
10,40.5942802237546534278335441964712287,39.6,0.9942802237546534278335441964712287
11,49.0140093977338296828423610901723629,48.0,1.0140093977338296828423610901723629
12,58.2319621826349200694671524316940164,57.2,1.0319621826349200694671524316940164
13,68.2484327085238553439611317667290618,67.2,1.0484327085238553439611317667290618
14,79.0636476730838862605256674014950108,78.0,1.0636476730838862605256674014950108
15,90.6777854574297738253795278779606253,89.6,1.0777854574297738253795278779606253
16,103.090988930978237801610847947115219,102.0,1.090988930978237801610847947115219
17,116.303374284909463381551831769014303,115.2,1.103374284909463381551831769014303
18,130.315037283173302304539060894374063,129.2,1.115037283173302304539060894374063
19,145.126057785593251682032033783753045,144.0,1.126057785593251682032033783753045
20,160.736503085500391337672487314644162,159.6,1.136503085500391337672487314644162
21,177.146430415815081661869414266767548,176.0,1.146430415815081661869414266767548
22,194.355888860205704260872869523695318,193.2,1.155888860205704260872869523695318
23,212.364920831025187010247997200399402,211.2,1.164920831025187010247997200399402
24,231.173563226711426525285195333246372,230.0,1.173563226711426525285195333246372
25,250.781848348583214798896668225880455,249.6,1.181848348583214798896668225880455
26,271.189804634647827149529930719629841,270.0,1.189804634647827149529930719629841
27,292.397457252563598216631551546593397,291.2,1.197457252563598216631551546593397
28,314.404828582998961929457858409398158,313.2,1.204828582998961929457858409398158
29,337.211938616834403551704327879393892,336.0,1.211938616834403551704327879393892
30,360.818805284004284333841495247043872,359.6,1.218805284004284333841495247043872
31,385.225444727629560804047229085281021,384.0,1.225444727629560804047229085281021
32,410.431871534014521143238465280027428,409.2,1.231871534014521143238465280027428
33,436.438098926771013285098377079612332,435.2,1.238098926771013285098377079612332
34,463.244138931583093115496165780533299,462.0,1.244138931583093115496165780533299
35,490.850002516785826079753307336866552,489.6,1.250002516785826079753307336866552
36,519.255699713898496627488099032366459,518.0,1.255699713898496627488099032366459
37,548.461239721448395376131532291320794,547.2,1.261239721448395376131532291320794
38,578.466630994790935130978611840343326,577.2,1.266630994790935130978611840343326
39,609.271881324133998250057501441638059,608.0,1.271881324133998250057501441638059
40,640.876997902578597058506686799037794,639.6,1.276997902578597058506686799037794
41,673.281987385671178743394385391016416,672.0,1.281987385671178743394385391016416
42,706.486855943707913558383032589811328,705.2,1.286855943707913558383032589811328
43,740.491609307824818822705830215912755,739.2,1.291609307824818822705830215912755
44,775.296252810739477183403667925462498,774.0,1.296252810739477183403667925462498
45,810.900791422872538040762946562021871,809.6,1.300791422872538040762946562021871
46,847.305229784464054754293416214722053,846.0,1.305229784464054754293416214722053
47,884.509572234206233634247750588272401,883.2,1.309572234206233634247750588272401
48,922.513822834836584359432151050985967,921.2,1.313822834836584359432151050985967
49,961.317985396070798918157445107124830,960.0,1.317985396070798918157445107124830
50,1000.92206349520056345552439052259786,999.6,1.32206349520056345552439052259786
51,1041.32606049563604044776250010499501,1040.0,1.32606049563604044776250010499501
52,1082.52997956363441341004071919062895,1081.2,1.32997956363441341004071919062895
53,1124.53382368342343622562107033647423,1123.2,1.33382368342343622562107033647423
54,1167.33759567090136805276928973039251,1166.0,1.33759567090136805276928973039251
55,1210.94129818607119927332381556884601,1209.6,1.34129818607119927332381556884601
56,1255.34493374434699937669869893088398,1254.0,1.34493374434699937669869893088398
57,1300.54850472685301870797644692311920,1299.2,1.34850472685301870797644692311920
58,1346.55201338982137882245554217257254,1345.2,1.35201338982137882245554217257254
59,1393.35546187318143224174173871395144,1392.0,1.35546187318143224174173871395144
60,1440.95885220842284789876979828882476,1439.6,1.35885220842284789876979828882476
61,1489.36218632580491433163749231027020,1488.0,1.36218632580491433163749231027020
62,1538.56546606097625168102003209568714,1537.2,1.36546606097625168102003209568714
63,1588.56869316106188165691233297943587,1587.2,1.36869316106188165691233297943587
64,1639.37186929026829216052427206856222,1638.0,1.37186929026829216052427206856222
65,1690.97499603505159840718124995749337,1689.6,1.37499603505159840718124995749337
66,1743.37807490888905505702805102899571,1742.0,1.37807490888905505702805102899571
67,1796.58110735668991156900812815494790,1795.2,1.38110735668991156900812815494790
68,1850.58409475887784683278180306184174,1849.2,1.38409475887784683278180306184174
69,1905.38703843517390646252004090244065,1904.0,1.38703843517390646252004090244065
70,1960.98993964810593786824615382897934,1959.6,1.38993964810593786824615382897934
71,2017.39279960626791951666691554775657,2016.0,1.39279960626791951666691554775657
72,2074.59561946735028255105426514281254,2073.2,1.39561946735028255105426514281254
73,2132.59840034096026993333557843423176,2131.2,1.39840034096026993333557843423176
74,2191.40114329124955942299737616453317,2190.0,1.40114329124955942299737616453317
75,2251.00384933936474560630442934274098,2249.6,1.40384933936474560630442934274098
76,2311.40651946573482663258075106311197,2310.0,1.40651946573482663258075106311197
77,2372.60915461220853891588092999961839,2371.2,1.40915461220853891588092999961839
78,2434.61175568405321726219992234155258,2433.2,1.41175568405321726219992234155258
79,2497.41432355182581106237714471917131,2496.0,1.41432355182581106237714471917131
80,2561.01685905312574906520608862725229,2559.6,1.41685905312574906520608862725229
81,2625.41936299423849590378422967630476,2624.0,1.41936299423849590378422967630476
82,2690.62183615167788209758420619836030,2689.2,1.42183615167788209758420619836030
83,2756.62427927363460051893765746989743,2755.2,1.42427927363460051893765746989743
84,2823.42669308133763802090688282122568,2822.0,1.42669308133763802090688282122568
85,2891.02907827033485164734578326240156,2889.6,1.42907827033485164734578326240156
86,2959.43143551169838298056210511302728,2958.0,1.43143551169838298056210511302728
87,3028.63376545316014671119322747054711,3027.2,1.43376545316014671119322747054711
88,3098.63606872018220613717187242090354,3097.2,1.43606872018220613717187242090354
89,3169.43834591696646479649664574026294,3168.0,1.43834591696646479649664574026294
90,3241.04059762740776022179298511088147,3239.6,1.44059762740776022179298511088147
91,3313.44282441599412435259943425185787,3312.0,1.44282441599412435259943425185787
92,3386.64502682865768684377490427697102,3385.2,1.44502682865768684377490427697102
93,3460.64720539357943525336702877570422,3459.2,1.44720539357943525336702877570422
94,3535.44936062195080316454354961713867,3534.0,1.44936062195080316454354961713867
95,3611.05149300869483614215968044175664,3609.6,1.45149300869483614215968044175664
96,3687.45360303314948360241784651172944,3686.0,1.45360303314948360241784651172944
97,3764.65569115971538033196684191181678,3763.2,1.45569115971538033196684191181678
98,3842.65775783847030851849233693981717,3841.2,1.45775783847030851849233693981717
99,3921.45980350575237768266198480502866,3920.0,1.45980350575237768266198480502866
100,4001.06182858471381356087191729858355,3999.6,1.46182858471381356087191729858355
101,4081.46383348584711768408718991976124,4080.0,1.46383348584711768408718991976124
102,4162.66581860748523382334755764566163,4161.2,1.46581860748523382334755764566163
103,4244.66778433627724955889702296853535,4243.2,1.46778433627724955889702296853535
104,4327.46973104764105396518546291378090,4326.0,1.46973104764105396518546291378090
105,4411.07165910619427933023332534479303,4409.6,1.47165910619427933023332534479303
106,4495.47356886616476406360706308763181,4494.0,1.47356886616476406360706308763181
107,4580.67546067178169586529736909991571,4579.2,1.47546067178169586529736909991571
108,4666.67733485764851498823790110313601,4665.2,1.47733485764851498823790110313601
109,4753.47919174909858883366818418622893,4752.0,1.47919174909858883366818418622893
110,4841.08103166253460669841913140290813,4839.6,1.48103166253460669841913140290813
111,4929.48285490575257763200124149106033,4928.0,1.48285490575257763200124149106033
112,5018.68466177825126492774208367719566,5017.2,1.48466177825126492774208367719566
113,5108.68645257152783523642548913314398,5107.2,1.48645257152783523642548913314398
114,5199.48822756936045153312874696799357,5198.0,1.48822756936045153312874696799357
115,5291.08998704807849871945131407800970,5289.6,1.48998704807849871945131407800970
116,5383.49173127682108231168055581862919,5382.0,1.49173127682108231168055581862919
117,5476.69346051778440895243317801744181,5475.2,1.49346051778440895243317801744181
118,5570.69517502645861645220542587553942,5569.2,1.49517502645861645220542587553942
119,5665.49687505185458735354896071365233,5664.0,1.49687505185458735354896071365233
120,5761.09856083672125416835435762854113,5759.6,1.49856083672125416835435762854113
121,5857.50023261775386617147977395854271,5856.0,1.50023261775386617147977395854271
122,5954.70189062579366872082979709026643,5953.2,1.50189062579366872082979709026643
123,6052.70353508601941388105744177965115,6051.2,1.50353508601941388105744177965115
124,6151.50516621813110344825351239974933,6150.0,1.50516621813110344825351239974933
125,6251.10678423652633590672464542545728,6249.6,1.50678423652633590672464542545728
126,6351.50838935046961365166368845501284,6350.0,1.50838935046961365166368845501284
127,6452.70998176425494623362971143672992,6451.2,1.50998176425494623362971143672992
128,6554.71156167736206279356517682341078,6553.2,1.51156167736206279356517682341078
129,6657.51312928460653478383957702320598,6656.0,1.51312928460653478383957702320598
130,6761.11468477628409168894165674972791,6759.6,1.51468477628409168894165674972791
131,6865.51622833830939705532432885732469,6864.0,1.51622833830939705532432885732469
132,6970.71776015234953716270577337434088,6969.2,1.51776015234953716270577337434088
133,7076.71928039595246288754568254688714,7075.2,1.51928039595246288754568254688714
134,7183.52078924267061403345766951583972,7182.0,1.52078924267061403345766951583972
135,7291.12228686217993729497569759337785,7289.6,1.52228686217993729497569759337785
136,7399.52377342039450533356227564791755,7398.0,1.52377342039450533356227564791755
137,7508.72524907957693113680276313476237,7507.2,1.52524907957693113680276313476237
138,7618.72671399844475821973930459422017,7617.2,1.52671399844475821973930459422017
139,7729.52816833227300512139251699872706,7728.0,1.52816833227300512139251699872706
140,7841.12961223299302720355073480198434,7839.6,1.52961223299302720355073480198434
141,7953.53104584928785420141663340921264,7952.0,1.53104584928785420141663340921264
142,8066.73246932668415390243420038162015,8065.2,1.53246932668415390243420038162015
143,8180.73388280764096367944947005771692,8179.2,1.53388280764096367944947005771692
144,8295.53528643163532442472190450410981,8294.0,1.53528643163532442472190450410981
145,8411.13668033524494724354368276200034,8409.6,1.53668033524494724354368276200034
146,8527.53806465222803539747379154129424,8526.0,1.53806465222803539747379154129424
147,8644.73943951360037578422761623306915,8643.2,1.53943951360037578422761623306915
148,8762.74080504770981528322930133947142,8761.2,1.54080504770981528322930133947142
149,8881.54216138030822376776019234044930,8880.0,1.54216138030822376776019234044930
150,9001.14350863462104742455918626882586,8999.6,1.54350863462104742455918626882586
151,9121.54484693141454829510751457763768,9120.0,1.54484693141454829510751457763768
152,9242.74617638906082033774532997363735,9241.2,1.54617638906082033774532997363735
153,9364.74749712360067096029128085654267,9363.2,1.54749712360067096029128085654267
154,9487.54880924880445192238402208793956,9486.0,1.54880924880445192238402208793956
155,9611.15011287623091784351508619948133,9609.6,1.55011287623091784351508619948133
156,9735.55140811528419018309240286267426,9734.0,1.55140811528419018309240286267426
157,9860.75269507326889773911363974435105,9859.2,1.55269507326889773911363974435105
158,9986.75397385544356548352631412751116,9985.2,1.55397385544356548352631412751116
159,10113.5552445650723154070835828678070,10112.0,1.5552445650723154070835828678070
160,10241.1565073034749457112088410562505,10239.6,1.5565073034749457112088410562505
161,10369.5577621700754468429637557730948,10368.0,1.5577621700754468429637557730948
162,10498.7590092624490138341946388505496,10497.2,1.5590092624490138341946388505496
163,10628.7602486763676097981299292533182,10627.2,1.5602486763676097981299292533182
164,10759.5614805058441352199977355025210,10758.0,1.5614805058441352199977355025210
165,10891.1627048431752516418545974459444,10889.6,1.5627048431752516418545974459444
166,11023.5639217789829102571878229977686,11022.0,1.5639217789829102571878229977686
167,11156.7651314022546326475847080495091,11155.2,1.5651314022546326475847080495091
168,11290.7663338003825863503561412341046,11289.2,1.5663338003825863503561412341046
169,11425.5675290592015003191785332426705,11424.0,1.5675290592015003191785332426705
170,11561.1687172630254600208442117513361,11559.6,1.5687172630254600208442117513361
171,11697.5698984946836223625545011859401,11696.0,1.5698984946836223625545011859401
172,11834.7710728355548883163876075274058,11833.2,1.5710728355548883163876075274058
173,11972.7722403656015686432458821900471,11971.2,1.5722403656015686432458821900471
174,12111.5734011634020785597705479046501,12110.0,1.5734011634020785597705479046501
175,12251.1745553061826953331308754075545,12249.6,1.5745553061826953331308754075545
176,12391.5757028698484085100147013032141,12390.0,1.5757028698484085100147013032141
177,12532.7768439290128960403317465086643,12531.2,1.5768439290128960403317465086643
178,12674.7779785570276554500001964979488,12673.2,1.5779785570276554500001964979488
179,12817.5791068260103165077362832047573,12816.0,1.5791068260103165077362832047573
180,12961.1802288068721663322201510437581,12959.6,1.5802288068721663322201510437581
181,13105.5813445693449095881981882246771,13104.0,1.5813445693449095881981882246771
182,13250.7824541820066914668813928664849,13249.2,1.5824541820066914668813928664849
183,13396.7835577123074064998879692322939,13395.2,1.5835577123074064998879692322939
184,13543.5846552265933174482403047413179,13542.0,1.5846552265933174482403047413179
185,13691.1857467901310060745140614295169,13689.6,1.5857467901310060745140614295169
186,13839.5868324671306767667323281673275,13838.0,1.5868324671306767667323281673275
187,13988.7879123207688368144769306319013,13987.2,1.5879123207688368144769306319013
188,14138.7889864132103687735049378993598,14137.2,1.5889864132103687735049378993598
189,14289.5900548056300186499322021373959,14288.0,1.5900548056300186499322021373959
190,14441.1911175582333155550323552588188,14439.6,1.5911175582333155550323552588188
191,14593.5921747302769420531737520280661,14592.0,1.5921747302769420531737520280661
192,14746.7932263800885715850672137834508,14745.2,1.5932263800885715850672137834508
193,14900.7942725650861912701420139336293,14899.2,1.5942725650861912701420139336293
194,15055.5953133417969234288014196243367,15054.0,1.5953133417969234288014196243367
195,15211.1963487658753637568849231163075,15209.6,1.5963487658753637568849231163075
196,15367.5973788921214498442048731281166,15366.0,1.5973788921214498442048731281166
197,15524.7984037744978744124459509246308,15523.2,1.5984037744978744124459509246308
198,15682.7994234661470574343736129334047,15681.2,1.5994234661470574343736129334047
199,15841.6004380194076899681724726512975,15840.0,1.6004380194076899681724726512975
200,16001.2014474858308636470807288971322,15999.6,1.6014474858308636470807288971322
201,16161.6024519161957968007047195232977,16160.0,1.6024519161957968007047195232977
202,16322.8034513605251705841307387391024,16321.2,1.6034513605251705841307387391024
203,16484.8044458681000857695210459113961,16483.2,1.6044458681000857695210459113961
204,16647.6054354874746518150616551746766,16646.0,1.6054354874746518150616551746766
205,16811.2064202664902181765791293741349,16809.6,1.6064202664902181765791293741349
206,16975.6074002522892608805292419379865,16974.0,1.6074002522892608805292419379865
207,17140.8083754913289302289887351794103,17139.2,1.6083754913289302289887351794103
208,17306.8093460293942738580603649620096,17305.2,1.6093460293942738580603649620096
209,17473.6103119116111408925251120165383,17472.0,1.6103119116111408925251120165383
210,17641.2112731824587786923461637282395,17639.6,1.6112731824587786923461637282395
211,17809.6122298857821295499873475092356,17808.0,1.6122298857821295499873475092356
212,17978.8131820648038375656740261249516,17977.2,1.6131820648038375656740261249516
213,18148.8141297621359700784908246882470,18147.2,1.6141297621359700784908246882470
214,18319.6150730197914686290057205767275,18318.0,1.6150730197914686290057205767275
215,18491.2160118791953286596516097534746,18489.6,1.6160118791953286596516097534746
216,18663.6169463811955219073222915152839,18662.0,1.6169463811955219073222915152839
217,18836.8178765660736654472246686067366,18835.2,1.6178765660736654472246686067366
218,19010.8188024735554463604365325258341,19009.2,1.6188024735554463604365325258341
219,19185.6197241428208052981058418350480,19184.0,1.6197241428208052981058418350480
220,19361.2206416125138914504181531903011,19359.6,1.6206416125138914504181531903011
221,19537.6215549207527868226221951723615,19536.0,1.6215549207527868226221951723615
222,19714.8224641051390170154780617431171,19713.2,1.6224641051390170154780617431171
223,19892.8233692027668420709588314360639,19891.2,1.6233692027668420709588314360639
224,20071.6242702502323424425032580210078,20070.0,1.6242702502323424425032580210078
225,20251.2251672836423026463614341056418,20249.6,1.6251672836423026463614341056418
226,20431.6260603386228961319738378467202,20430.0,1.6260603386228961319738378467202
227,20612.8269494503281800142293541587898,20611.2,1.6269494503281800142293541587898
228,20794.8278346534484014778013272453977,20793.2,1.6278346534484014778013272453977
229,20977.6287159822181230057043407758833,20976.0,1.6287159822181230057043407758833
230,21161.2295934704241711183076809921141,21159.6,1.6295934704241711183076809921141
231,21345.6304671514134104120676472419855,21344.0,1.6304671514134104120676472419855
232,21530.8313370581003533068910291124428,21529.2,1.6313370581003533068910291124428
233,21716.8322032229746004876257296451145,21715.2,1.6322032229746004876257296451145
234,21903.6330656781081281857361143820359,21902.0,1.6330656781081281857361143820359
235,22091.2339244551624154722543021441486,22089.6,1.6339244551624154722543021441486
236,22279.6347795853954212607673301743960,22278.0,1.6347795853954212607673301743960
237,22468.8356310996684146405582646638376,22467.2,1.6356310996684146405582646638376
238,22658.8364790284526602709032115429765,22657.2,1.6364790284526602709032115429765
