Eigenstate,Energy,Kinetic Energy,Potential Energy
1,0.500000000022207443590160136101692028,0.0,0.500000000022207443590160136101692028
2,1.84623093779607316412032184546478397,1.2,0.64623093779607316412032184546478397
3,3.93633761013077916550665771931060593,3.2,0.73633761013077916550665771931060593
4,6.79966527870113766770466425312929280,6.0,0.79966527870113766770466425312929280
5,10.4480465768219734255843477638943659,9.6,0.8480465768219734255843477638943659
6,14.8870659992475204454606533626420451,14.0,0.8870659992475204454606533626420451
7,20.1197208274157462742405389429146512,19.2,0.9197208274157462742405389429146512
8,26.1477838477034937297698192557189652,25.2,0.9477838477034937297698192557189652
9,32.9723835591169854394123704797812797,32.0,0.9723835591169854394123704797812797
10,40.5942802158047595796292171743973790,39.6,0.9942802158047595796292171743973790
11,49.0140093879078333107452610228797344,48.0,1.0140093879078333107452610228797344
12,58.2319621707308213222197525748465394,57.2,1.0319621707308213222197525748465394
13,68.2484326943395205066728282168529216,67.2,1.0484326943395205066728282168529216
14,79.0636476564170673878989318767668207,78.0,1.0636476564170673878989318767668207
15,90.6777854380781205318151385348625915,89.6,1.0777854380781205318151385348625915
16,103.090988908739304124448962777469192,102.0,1.090988908739304124448962777469192
17,116.303374259580711439236762947168756,115.2,1.103374259580711439236762947168756
18,130.315037254552103805154329035557504,129.2,1.115037254552103805154329035557504
19,145.126057753476887950814334842904881,144.0,1.126057753476887950814334842904881
20,160.736503049686052299518222426080570,159.6,1.136503049686052299518222426080570
21,177.146430376099864070577538521971729,176.0,1.146430376099864070577538521971729
22,194.355888816386609374867226941712877,193.2,1.155888816386609374867226941712877
23,212.364920782899117854377334935661979,211.2,1.164920782899117854377334935661979
24,231.173563174075184838089108871641426,230.0,1.173563174075184838089108871641426
25,250.781848291233497737292758692000839,249.6,1.181848291233497737292758692000839
26,271.189804572381223803813380011081637,270.0,1.189804572381223803813380011081637
27,292.397457185176585975205275258950320,291.2,1.197457185176585975205275258950320
28,314.404828510287902723041814758258796,313.2,1.204828510287902723041814758258796
29,337.211938538595539999733713909160872,336.0,1.211938538595539999733713909160872
30,360.818805200033735810572382437010411,359.6,1.218805200033735810572382437010411
31,385.225444637723319438013125938982845,384.0,1.225444637723319438013125938982845
32,410.431871437968447760776148906699526,409.2,1.231871437968447760776148906699526
33,436.438098824380833306430069962988381,435.2,1.238098824380833306430069962988381
34,463.244138822644392410136640720451726,462.0,1.244138822644392410136640720451726
35,490.850002401094046786674802281145205,489.6,1.250002401094046786674802281145205
36,519.255699591248932944429007335036562,518.0,1.255699591248932944429007335036562
37,548.461239591636189321607577867923558,547.2,1.261239591636189321607577867923558
38,578.466630857611072281896754501503986,577.2,1.266630857611072281896754501503986
39,609.271881179381303457304912566373550,608.0,1.271881179381303457304912566373550
40,640.876997750047730142461085604535441,639.6,1.276997750047730142461085604535441
41,673.281987225156630170956069970802117,672.0,1.281987225156630170956069970802117
42,706.486855775004000102846250569646051,705.2,1.286855775004000102846250569646051
43,740.491609130725679207554885794032709,739.2,1.291609130725679207554885794032709
44,775.296252625039067710927332365157071,774.0,1.296252625039067710927332365157071
45,810.900791228364628206221442694384265,809.6,1.300791228364628206221442694384265
46,847.305229580942222846239316146952252,846.0,1.305229580942222846239316146952252
47,884.509572021463862321490726380725236,883.2,1.309572021463862321490726380725236
48,922.513822612666856265043663307845189,921.2,1.313822612666856265043663307845189
49,961.317985164266692180832106342521571,960.0,1.317985164266692180832106342521571
50,1000.92206325355484727854734865836122,999.6,1.32206325355484727854734865836122
51,1041.32606024394127063577468138225939,1040.0,1.32606024394127063577468138225939
52,1082.52997930168292789374458261999670,1081.2,1.32997930168292789374458261999670
53,1124.53382341100735057452724129299985,1123.2,1.33382341100735057452724129299985
54,1167.33759538781257097604795116501182,1166.0,1.33759538781257097604795116501182
55,1210.94129789210134810879315810403079,1209.6,1.34129789210134810879315810403079
56,1255.34493343928751556795529812147658,1254.0,1.34493343928751556795529812147658
57,1300.54850441049508326964853063832393,1299.2,1.34850441049508326964853063832393
58,1346.55201306195592779353912649601880,1345.2,1.35201306195592779353912649601880
59,1393.35546153359915212696129303307941,1392.0,1.35546153359915212696129303307941
60,1440.95885185691417109788889576384696,1439.6,1.35885185691417109788889576384696
61,1489.36218596216001455663057105214588,1488.0,1.36218596216001455663057105214588
62,1538.56546568498503936100369651324387,1537.2,1.36546568498503936100369651324387
63,1588.56869277251399933072333071545720,1587.2,1.36869277251399933072333071545720
64,1639.37186888895310985682121958126563,1638.0,1.37186888895310985682121958126563
65,1690.97499562075820901193806639911712,1689.6,1.37499562075820901193806639911712
66,1743.37807448140626966827895380564831,1742.0,1.37807448140626966827895380564831
67,1796.58110691580625483869670593257777,1795.2,1.38110691580625483869670593257777
68,1850.58409430438155229556000837064033,1849.2,1.38409430438155229556000837064033
69,1905.38703796685291185133682847466273,1904.0,1.38703796685291185133682847466273
70,1960.98993916574788041656011501628851,1959.6,1.38993916574788041656011501628851
71,2017.39279910966013124711197443942240,2016.0,1.39279910966013124711197443942240
72,2074.59561895627978555038305943402838,2073.2,1.39561895627978555038305943402838
73,2132.59839981521377161346066855450546,2131.2,1.39839981521377161346066855450546
74,2191.40114275061344776794653438633187,2190.0,1.40114275061344776794653438633187
75,2251.00384878362508440490247820116110,2249.6,1.40384878362508440490247820116110
76,2311.40651889467735069666702476744586,2310.0,1.40651889467735069666702476744586
77,2372.60915402561864928386811352199236,2371.2,1.40915402561864928386811352199236
78,2434.61175508171597638777696392511086,2433.2,1.41175508171597638777696392511086
79,2497.41432293352593798815602200666563,2496.0,1.41432293352593798815602200666563
80,2561.01685841864761458110953734725733,2559.6,1.41685841864761458110953734725733
81,2625.41936234336611768996879551415940,2624.0,1.41936234336611768996879551415940
82,2690.62183548419491985169056801163822,2689.2,1.42183548419491985169056801163822
83,2756.62427858932435106745771433319789,2755.2,1.42427858932435106745771433319789
84,2823.42669237998303041445480937871848,2822.0,1.42669237998303041445480937871848
85,2891.02907755171844223961797127564595,2889.6,1.42907755171844223961797127564595
86,2959.43143477560235049076881226957366,2958.0,1.43143477560235049076881226957366
87,3028.63376469936628726974255890038694,3027.2,1.43376469936628726974255890038694
88,3098.63606794847192831438471378509867,3097.2,1.43606794847192831438471378509867
89,3169.43834512712078461412914094376711,3168.0,1.43834512712078461412914094376711
90,3241.04059681920729614714119376679861,3239.6,1.44059681920729614714119376679861
91,3313.44282358921909227495882013778615,3312.0,1.44282358921909227495882013778615
92,3386.64502598308789503302544420400792,3385.2,1.44502598308789503302544420400792
93,3460.64720452899427930045282061344398,3459.2,1.44720452899427930045282061344398
94,3535.44935973812926090361392748721316,3534.0,1.44935973812926090361392748721316
95,3611.05149210541546255413698379267360,3609.6,1.45149210541546255413698379267360
96,3687.45360211019040569975523744107247,3686.0,1.45360211019040569975523744107247
97,3764.65569021685429202435756651560973,3763.2,1.45569021685429202435756651560973
98,3842.65775687548446545929022741696589,3841.2,1.45775687548446545929022741696589
99,3921.45980252241859209577096810202478,3920.0,1.45980252241859209577096810202478
100,4001.06182758080844904786064607833069,3999.6,1.46182758080844904786064607833069
101,4081.46383246114608401128300604256528,4080.0,1.46383246114608401128300604256528
102,4162.66581756176398168866222043959499,4161.2,1.46581756176398168866222043959499
103,4244.66778326931076533813486555521592,4243.2,1.46778326931076533813486555521592
104,4327.46972995920385443758265749561167,4326.0,1.46972995920385443758265749561167
105,4411.07165799606040638297531204458227,4409.6,1.47165799606040638297531204458227
106,4495.47356773410777937506921573388110,4494.0,1.47356773410777937506921573388110
107,4580.67545951757467556675218000978720,4579.2,1.47545951757467556675218000978720
108,4666.67733368106404430377013385517464,4665.2,1.47733368106404430377013385517464
109,4753.47919054990875669803750244458812,4752.0,1.47919054990875669803750244458812
110,4841.08103044051100035260789579547209,4839.6,1.48103044051100035260789579547209
111,4929.48285366066627719618326157482800,4928.0,1.48285366066627719618326157482800
112,5018.68466050987283795140615041012666,5017.2,1.48466050987283795140615041012666
113,5108.68645127962733122538567653937787,5107.2,1.48645127962733122538567653937787
114,5199.48822625370739645315142445508608,5198.0,1.48822625370739645315142445508608
115,5291.08998570844188947622696868544408,5289.6,1.48998570844188947622696868544408
116,5383.49172991296938120686645665583013,5382.0,1.49172991296938120686645665583013
117,5476.69345912948553811549093461150582,5475.2,1.49345912948553811549093461150582
118,5570.69517361347995224775555237119427,5569.2,1.49517361347995224775555237119427
119,5665.49687361396295476396244110588407,5664.0,1.49687361396295476396244110588407
120,5761.09855937368292115129912115200641,5759.6,1.49855937368292115129912115200641
121,5857.50023112933453799213804275298672,5856.0,1.50023112933453799213804275298672
122,5954.70188911175848225850008884508748,5953.2,1.50188911175848225850008884508748
123,6052.70353354613293190985286781704180,6051.2,1.50353354613293190985286781704180
124,6151.50516465215730889160594479352166,6150.0,1.50516465215730889160594479352166
125,6251.10678264422862606540210938709326,6249.6,1.50678264422862606540210938709326
126,6351.50838773161079440500614508598772,6350.0,1.50838773161079440500614508598772
127,6452.70998011859722621370622855718907,6451.2,1.50998011859722621370622855718907
128,6554.71156000466704753195316493626976,6553.2,1.51156000466704753195316493626976
129,6657.51312758463522083072457946806151,6656.0,1.51312758463522083072457946806151
130,6761.11468304879686070423390365653246,6759.6,1.51468304879686070423390365653246
131,6865.51622658306600987148592754866798,6864.0,1.51622658306600987148592754866798
132,6970.71775836910912781897990805595077,6969.2,1.51775836910912781897990805595077
133,7076.71927858447353263527722333508966,7075.2,1.51927858447353263527722333508966
134,7183.52078740271102531219176017261115,7182.0,1.52078740271102531219176017261115
135,7291.12228499349690767901870627021355,7289.6,1.52228499349690767901870627021355
136,7399.52377152274460144868705088536424,7398.0,1.52377152274460144868705088536424
137,7508.72524715271606254677753953989178,7507.2,1.52524715271606254677753953989178
138,7618.72671204212817128235719310900166,7617.2,1.52671204212817128235719310900166
139,7729.52816634625527681367592032869296,7728.0,1.52816634625527681367592032869296
140,7841.12961021702805891580248483920835,7839.6,1.52961021702805891580248483920835
141,7953.53104380312886549978706545091673,7952.0,1.53104380312886549978706545091673
142,8066.73246725008367625967070225184915,8065.2,1.53246725008367625967070225184915
143,8180.73388070035083417349246861807713,8179.2,1.53388070035083417349246861807713
144,8295.53528429340667940480840835926320,8294.0,1.53528429340667940480840835926320
145,8411.13667816582821596347698098957175,8409.6,1.53667816582821596347698098957175
146,8527.53806245137293361571500155535066,8526.0,1.53806245137293361571500155535066
147,8644.73943728105589933046200300546332,8643.2,1.53943728105589933046200300546332
148,8762.74080278322423359105754976465748,8761.2,1.54080278322423359105754976465748
149,8881.54215908362907337316185725845587,8880.0,1.54215908362907337316185725845587
150,9001.14350630549512542977282317197656,8999.6,1.54350630549512542977282317197656
151,9121.54484456958790579756876235034041,9120.0,1.54484456958790579756876235034041
152,9242.74617399427875582372160042880293,9241.2,1.54617399427875582372160042880293
153,9364.74749469560772366284851726349094,9363.2,1.54749469560772366284851726349094
154,9487.54880678734439514331805912093691,9486.0,1.54880678734439514331805912093691
155,9611.15011038104675223887697496127842,9609.6,1.55011038104675223887697496127842
156,9735.55140558611813701193401579011855,9734.0,1.55140558611813701193401579011855
157,9860.75269250986239207507677316271134,9859.2,1.55269250986239207507677316271134
158,9986.75397125753724938889529534068353,9985.2,1.55397125753724938889529534068353
159,10113.5552419324060310689181281156134,10112.0,1.5552419324060310689181281156134
160,10241.1565046357877285391707584250538,10239.6,1.5565046357877285391707584250538
161,10369.5577594671055185284476948361511,10368.0,1.5577594671055185284476948361511
162,10498.7590065239337753703697768913538,10497.2,1.5590065239337753703697768913538
163,10628.7602459020436344604962813699729,10627.2,1.5602459020436344604962813699729
164,10759.5614776954471615070570944101572,10758.0,1.5614776954471615070570944101572
165,10891.1627019964401761754927536994326,10889.6,1.5627019964401761754927536994326
166,11023.5639188956437806423613656743839,11022.0,1.5639188956437806423613656743839
167,11156.7651284820446402909020994301307,11155.2,1.5651284820446402909020994301307
168,11290.7663308430340592371389263967135,11289.2,1.5663308430340592371389263967135
169,11425.5675260644458957485854416151274,11424.0,1.5675260644458957485854416151274
170,11561.1687142305933572986366728050875,11559.6,1.5687142305933572986366728050875
171,11697.5698954243047154510788422978710,11696.0,1.5698954243047154510788422978710
172,11834.7710697269579784413452208268812,11833.2,1.5710697269579784413452208268812
173,11972.7722372185145568568189153047038,11971.2,1.5722372185145568568189153047038
174,12111.5733979775519582596668086261475,12110.0,1.5733979775519582596668086261475
175,12251.1745520812955447371077735280500,12249.6,1.5745520812955447371077735280500
176,12391.5756996056493830854380829952174,12390.0,1.5756996056493830854380829952174
177,12532.7768406252262208883215881043393,12531.2,1.5768406252262208883215881043393
178,12674.7779752133766176437109460836910,12673.2,1.5779752133766176437109460836910
179,12817.5791034422172573843157471443970,12816.0,1.5791034422172573843157471443970
180,12961.1802253826584737379864916194703,12959.6,1.5802253826584737379864916194703
181,13105.5813411044310100765705719914254,13104.0,1.5813411044310100765705719914254
182,13250.7824506761120424485955750021914,13249.2,1.5824506761120424485955750021914
183,13396.7835541651504883450237781541679,13395.2,1.5835541651504883450237781541679
184,13543.5846516378916255395837515681619,13542.0,1.5846516378916255395837515681619
185,13691.1857431596010428117721474684770,13689.6,1.5857431596010428117721474684770
186,13839.5868287944879435211147417640579,13838.0,1.5868287944879435211147417640579
187,13988.7879086057278258331537284516685,13987.2,1.5879086057278258331537284516685
188,14138.7889826554845550334451761638562,14137.2,1.5889826554845550334451761638562
189,14289.5900510049318516606236476151930,14288.0,1.5900510049318516606236476151930
190,14441.1911137142742111095779648804569,14439.6,1.5911137142742111095779648804569
191,14593.5921708427672739272557296320933,14592.0,1.5921708427672739272557296320933
192,14746.7932224487376631832648283930758,14745.2,1.5932224487376631832648283930758
193,14900.7942685896023072190843581497784,14899.2,1.5942685896023072190843581497784
194,15055.5953093218872611166316609336902,15054.0,1.5953093218872611166316609336902
195,15211.1963447012460448185074546041625,15209.6,1.5963447012460448185074546041625
196,15367.5973747824775115917818814948533,15366.0,1.5973747824775115917818814948533
197,15524.7983996195432612106048064977645,15523.2,1.5983996195432612106048064977645
198,15682.7994192655846120195814704989895,15681.2,1.5994192655846120195814704989895
199,15841.6004337729391447117291285704285,15840.0,1.6004337729391447117291285704285
200,16001.2014431931568317611756541340026,15999.6,1.6014431931568317611756541340026
201,16161.6024475770157634869789804835973,16160.0,1.6024475770157634869789804835973
202,16322.8034469745374841241787896275230,16321.2,1.6034469745374841241787896275230
203,16484.8044414350019485567624022615526,16483.2,1.6044414350019485567624022615526
204,16647.6054310069621113274066033622156,16646.0,1.6054310069621113274066033622156
205,16811.2064157382581578893072856470569,16809.6,1.6064157382581578893072856470569
206,16975.6073956760313911187940351513679,16974.0,1.6073956760313911187940351513679
207,17140.8083708667377789593550964299901,17139.2,1.6083708667377789593550964299901
208,17306.8093413561611774184774290195907,17305.2,1.6093413561611774184774290195907
209,17473.6103071894262346601294686506402,17472.0,1.6103071894262346601294686506402
210,17641.2112684110109876884857200491986,17639.6,1.6112684110109876884857200491986
211,17809.6122250647591589818495443874450,17808.0,1.6122250647591589818495443874450
212,17978.8131771938921633038963776575790,17977.2,1.6131771938921633038963776575790
213,18148.8141248410208290701252997740534,18147.2,1.6141248410208290701252997740534
214,18319.6150680481568492452025502727236,18318.0,1.6150680481568492452025502727236
215,18491.2160068567239609774216975541633,18489.6,1.6160068567239609774216975541633
216,18663.6169413075688679247310272467131,18662.0,1.6169413075688679247310272467131
217,18836.8178714409719092313635806850305,18835.2,1.6178714409719092313635806850305
218,19010.8187972966574841275127838068311,19009.2,1.6187972966574841275127838068311
219,19185.6197189138042354249825840785549,19184.0,1.6197189138042354249825840785549
220,19361.2206363310550044169326962020810,19359.6,1.6206363310550044169326962020810
221,19537.6215495865265550840015277712147,19536.0,1.6215495865265550840015277712147
222,19714.8224587178190848041649572872234,19713.2,1.6224587178190848041649572872234
223,19892.8233637620255151271545550370745,19891.2,1.6233637620255151271545550370745
224,20071.6242647557405776727259948763801,20070.0,1.6242647557405776727259948763801
225,20251.2251617350696977093124720048816,20249.6,1.6251617350696977093124720048816
226,20431.6260547356376789509961075633174,20430.0,1.6260547356376789509961075633174
227,20612.8269437925971982156360910110075,20611.2,1.6269437925971982156360910110075
228,20794.8278289406371117543449160776718,20793.2,1.6278289406371117543449160776718
229,20977.6287102139905804044480569261189,20976.0,1.6287102139905804044480569261189
230,21161.2295876464430182521555575428462,21159.6,1.6295876464430182521555575428462
231,21345.6304612713398665941999586568932,21344.0,1.6304612713398665941999586568932
232,21530.8313311215942036073451802435678,21529.2,1.6313311215942036073451802435678
233,21716.8321972296941847112545793069706,21715.2,1.6321972296941847112545793069706
234,21903.6330596277103297707677035620157,21902.0,1.6330596277103297707677035620157
235,22091.2339183473026503086690785533384,22089.6,1.6339183473026503086690785533384
236,22279.6347734197276264277006931637376,22278.0,1.6347734197276264277006931637376
237,22468.8356248758450370619281548033008,22467.2,1.6356248758450370619281548033008
238,22658.8364727461246452884541371241041,22657.2,1.6364727461246452884541371241041
