Eigenstate,Energy,Kinetic Energy,Potential Energy
1,0.500000000028341207962159252650583860,0.0,0.500000000028341207962159252650583860
2,1.84623093783611117657219329635973434,1.2,0.64623093783611117657219329635973434
3,3.93633761024838757437127929869776343,3.2,0.73633761024838757437127929869776343
4,6.79966527894610249149782288413362473,6.0,0.79966527894610249149782288413362473
5,10.4480465772463024904882820701627588,9.6,0.8480465772463024904882820701627588
6,14.8870659999041316878352811203923881,14.0,0.8870659999041316878352811203923881
7,20.1197208283579843389651127316660154,19.2,0.9197208283579843389651127316660154
8,26.1477838489849282771323354626811857,25.2,0.9477838489849282771323354626811857
9,32.9723835607913172706809362518871253,32.0,0.9723835607913172706809362518871253
10,40.5942802179257729115284573119620858,39.6,0.9942802179257729115284573119620858
11,49.0140093905293697746870972319231097,48.0,1.0140093905293697746870972319231097
12,58.2319621739067650340987548914367275,57.2,1.0319621739067650340987548914367275
13,68.2484326981237891634789952271798937,67.2,1.0484326981237891634789952271798937
14,79.0636476608636068327350013849182483,78.0,1.0636476608636068327350013849182483
15,90.6777854432409014112998192607235076,89.6,1.0777854432409014112998192607235076
16,103.090988914672319860419256872827882,102.0,1.090988914672319860419256872827882
17,116.303374266337977055352952251212150,115.2,1.103374266337977055352952251212150
18,130.315037262187655326794326017854730,129.2,1.115037262187655326794326017854730
19,145.126057762044782199854274496391718,144.0,1.126057762044782199854274496391718
20,160.736503059240366967653536907367566,159.6,1.136503059240366967653536907367566
21,177.146430386694697993330552380364091,176.0,1.146430386694697993330552380364091
22,194.355888828076082952973406684090174,193.2,1.155888828076082952973406684090174
23,212.364920795737373585289193555584331,211.2,1.164920795737373585289193555584331
24,231.173563188116387931064881378293752,230.0,1.173563188116387931064881378293752
25,250.781848306531836792856128837443081,249.6,1.181848306531836792856128837443081
26,271.189804588990911543456845858053275,270.0,1.189804588990911543456845858053275
27,292.397457203151860010804341749038260,291.2,1.197457203151860010804341749038260
28,314.404828529683026358027022751548568,313.2,1.204828529683026358027022751548568
29,337.211938559464803055945447172554615,336.0,1.211938559464803055945447172554615
30,360.818805222431455476108360612205115,359.6,1.218805222431455476108360612205115
31,385.225444661703841132412315503642265,384.0,1.225444661703841132412315503642265
32,410.431871463586146014663206576534154,409.2,1.231871463586146014663206576534154
33,436.438098851690112653339680606365175,435.2,1.238098851690112653339680606365175
34,463.244138851699688288695559021367409,462.0,1.244138851699688288695559021367409
35,490.850002431949826451675711567540997,489.6,1.250002431949826451675711567540997
36,519.255699623959696385609575821778290,518.0,1.255699623959696385609575821778290
37,548.461239626256470189168742892568855,547.2,1.261239626256470189168742892568855
38,578.466630894195438817969884165129860,577.2,1.266630894195438817969884165129860
39,609.271881217984359432718280285055397,608.0,1.271881217984359432718280285055397
40,640.876997790724115798269697501236485,639.6,1.276997790724115798269697501236485
41,673.281987267961023164291124802351197,672.0,1.281987267961023164291124802351197
42,706.486855819991116456715865456732870,705.2,1.286855819991116456715865456732870
43,740.491609177950274264289617604553300,739.2,1.291609177950274264289617604553300
44,775.296252674555937089015135980350674,774.0,1.296252674555937089015135980350674
45,810.900791280228608760319139183156392,809.6,1.300791280228608760319139183156392
46,847.305229635208193630183032300126335,846.0,1.305229635208193630183032300126335
47,884.509572078186745554157419596648633,883.2,1.309572078186745554157419596648633
48,922.513822671901618298940807186333684,921.2,1.313822671901618298940807186333684
49,961.317985226068344473313707196168127,960.0,1.317985226068344473313707196168127
50,1000.92206331797844736557236291404606,999.6,1.32206331797844736557236291404606
51,1041.32606031104192310813916381174605,1040.0,1.32606031104192310813916381174605
52,1082.52997937151578537573193948274555,1081.2,1.32997937151578537573193948274555
53,1124.53382348362761470493215524503004,1123.2,1.33382348362761470493215524503004
54,1167.33759546327549339153919789890603,1166.0,1.33759546327549339153919789890603
55,1210.94129797046223142958886591081844,1209.6,1.34129797046223142958886591081844
56,1255.34493352060171438579143561755443,1254.0,1.34493352060171438579143561755443
57,1300.54850449481800513802768956921649,1299.2,1.34850449481800513802768956921649
58,1346.55201314934303422025217770850636,1345.2,1.35201314934303422025217770850636
59,1393.35546162410595956887927430538421,1392.0,1.35546162410595956887927430538421
60,1440.95885195059625195802672648975005,1439.6,1.35885195059625195802672648975005
61,1489.36218605907299818348790767761472,1488.0,1.36218605907299818348790767761472
62,1538.56546578518461305019152619327783,1537.2,1.36546578518461305019152619327783
63,1588.56869287605590932888781305568873,1587.2,1.36869287605590932888781305568873
64,1639.37186899589316236787886710814749,1638.0,1.37186899589316236787886710814749
65,1690.97499573115227120563867126183669,1689.6,1.37499573115227120563867126183669
66,1743.37807459531027069111472805990719,1742.0,1.37807459531027069111472805990719
67,1796.58110703327618682717794486716885,1795.2,1.38110703327618682717794486716885
68,1850.58409442547347139187925533319618,1849.2,1.38409442547347139187925533319618
69,1905.38703809162293922144503421641911,1904.0,1.38703809162293922144503421641911
70,1960.98993929425220327067959211342805,1959.6,1.38993929425220327067959211342805
71,2017.39279924195500386271225804545151,2016.0,1.39279924195500386271225804545151
72,2074.59561909242153029764682609215410,2073.2,1.39561909242153029764682609215410
73,2132.59839995525877998326794463839450,2131.2,1.39839995525877998326794463839450
74,2191.40114289461818140240634492668429,2190.0,1.40114289461818140240634492668429
75,2251.00384893164607613046194986543050,2249.6,1.40384893164607613046194986543050
76,2311.40651904677120555982874514027585,2310.0,1.40651904677120555982874514027585
77,2372.60915418184204558954729636399004,2371.2,1.40915418184204558954729636399004
78,2434.61175524212566674033064913416940,2433.2,1.41175524212566674033064913416940
79,2497.41432309817875033511717703411173,2496.0,1.41432309817875033511717703411173
80,2561.01685858760045325965950889784074,2559.6,1.41685858760045325965950889784074
81,2625.41936251667596447618213478081632,2624.0,1.41936251667596447618213478081632
82,2690.62183566191883501258676666726881,2689.2,1.42183566191883501258676666726881
83,2756.62427877151947441589488829972160,2755.2,1.42427877151947441589488829972160
84,2823.42669256670658236690082246525485,2822.0,1.42669256670658236690082246525485
85,2891.02907774302772487683496825551196,2889.6,1.42907774302772487683496825551196
86,2959.43143497155474862144750755713949,2958.0,1.43143497155474862144750755713949
87,3028.63376490001926949712307852572125,3027.2,1.43376490001926949712307852572125
88,3098.63606815388304810590115354706825,3097.2,1.43606815388304810590115354706825
89,3169.43834533734768137411538402636189,3168.0,1.43834533734768137411538402636189
90,3241.04059703430769629263588695357924,3239.6,1.44059703430769629263588695357924
91,3313.44282380925081031464777401371887,3312.0,1.44282380925081031464777401371887
92,3386.64502620810883464936004349394449,3385.2,1.44502620810883464936004349394449
93,3460.64720475906243443498336655210715,3459.2,1.44720475906243443498336655210715
94,3535.44935997330271684557717377618184,3534.0,1.44935997330271684557717377618184
95,3611.05149234575239703233742281642190,3609.6,1.45149234575239703233742281642190
96,3687.45360235574908997777999722515257,3686.0,1.45360235574908997777999722515257
97,3764.65569046769309199916512058055706,3763.2,1.45569046769309199916512058055706
98,3842.65775713166184276321336624762594,3841.2,1.45775713166184276321336624762594
99,3921.45980278399310520197482794249821,3920.0,1.45980278399310520197482794249821
100,4001.06182784783875437929684040437716,3999.6,1.46182784783875437929684040437716
101,4081.46383273369093705318122492476487,4080.0,1.46383273369093705318122492476487
102,4162.66581783988223810460092726819955,4161.2,1.46581783988223810460092726819955
103,4244.66778355306138208973300620375452,4243.2,1.46778355306138208973300620375452
104,4327.46973024864589090785461074951214,4326.0,1.46973024864589090785461074951214
105,4411.07165829125302550339154957314585,4409.6,1.47165829125302550339154957314585
106,4495.47356803511024875636544534633743,4494.0,1.47356803511024875636544534633743
107,4580.67545982444636863353001876121388,4579.2,1.47545982444636863353001876121388
108,4666.67733399386444143293264041703180,4665.2,1.47733399386444143293264041703180
109,4753.47919086869744636110317127400552,4752.0,1.47919086869744636110317127400552
110,4841.08103076534768026194701249149572,4839.6,1.48103076534768026194701249149572
111,4929.48285399161075545522077257995446,4928.0,1.48285399161075545522077257995446
112,5018.68466084698503420883551296531083,5017.2,1.48466084698503420883551296531083
113,5108.68645162296727783343840655732295,5107.2,1.48645162296727783343840655732295
114,5199.48822660333523962996736807660615,5198.0,1.48822660333523962996736807660615
115,5291.08998606441789047237059756586217,5289.6,1.48998606441789047237059756586217
116,5383.49173027535391747603476670160172,5382.0,1.49173027535391747603476670160172
117,5476.69345949833910448945882486196112,5475.2,1.49345949833910448945882486196112
118,5570.69517398886316211560485189446781,5569.2,1.49517398886316211560485189446781
119,5665.49687399593654125564102968675091,5664.0,1.49687399593654125564102968675091
120,5761.09855976230773832555690071422209,5759.6,1.49855976230773832555690071422209
121,5857.50023152467156202888679279286054,5856.0,1.50023152467156202888679279286054
122,5954.70188951386881265564455284500523,5953.2,1.50188951386881265564455284500523
123,6052.70353395507779268464071045625843,6051.2,1.50353395507779268464071045625843
124,6151.50516506799804978654451102077035,6150.0,1.50516506799804978654451102077035
125,6251.10678306702672375879024439262978,6249.6,1.50678306702672375879024439262978
126,6351.50838816142785372612962145304502,6350.0,1.50838816142785372612962145304502
127,6452.70998055549498136274564319400583,6451.2,1.50998055549498136274564319400583
128,6554.71156044870736330465348964784604,6553.2,1.51156044870736330465348964784604
129,6657.51312803588009384787584595929555,6656.0,1.51312803588009384787584595929555
130,6761.11468350730842064601283041053079,6759.6,1.51468350730842064601283041053079
131,6865.51622704890652071670861038960723,6864.0,1.51622704890652071670861038960723
132,6970.71775884234098908931607830269407,6969.2,1.51775884234098908931607830269407
133,7076.71927906515928064447677233668781,7075.2,1.51927906515928064447677233668781
134,7183.52078789091333442037470636150177,7182.0,1.52078789091333442037470636150177
135,7291.12228548927859155208004969822084,7289.6,1.52228548927859155208004969822084
136,7399.52377202616861432286824178599018,7398.0,1.52377202616861432286824178599018
137,7508.72524766384550049845673650942578,7507.2,1.52524766384550049845673650942578
138,7618.72671256102627350311075606956689,7617.2,1.52671256102627350311075606956689
139,7729.52816687298542689066396388730711,7728.0,1.52816687298542689066396388730711
140,7841.12961075165378611753163291130301,7839.6,1.52961075165378611753163291130301
141,7953.53104434571384606730394666286921,7952.0,1.53104434571384606730394666286921
142,8066.73246780069173470324004790406940,8065.2,1.53246780069173470324004790406940
143,8180.73388125904594457481405358704322,8179.2,1.53388125904594457481405358704322
144,8295.53528486025296672482745312599135,8294.0,1.53528486025296672482745312599135
145,8411.13667874088995735584295117988318,8409.6,1.53667874088995735584295117988318
146,8527.53806303471455974594420003355608,8526.0,1.53806303471455974594420003355608
147,8644.73943787274199570085963645903601,8643.2,1.53943787274199570085963645903601
148,8762.74080338331954187145537346370926,8761.2,1.54080338331954187145537346370926
149,8881.54215969219849273752790710176329,8880.0,1.54215969219849273752790710176329
150,9001.14350692260371389875008186105224,8999.6,1.54350692260371389875008186105224
151,9121.54484519530088158700007317963592,9120.0,1.54484519530088158700007317963592
152,9242.74617462866149869921843543539260,9241.2,1.54617462866149869921843543539260
153,9364.74749533872577630046172368233085,9363.2,1.54749533872577630046172368233085
154,9487.54880743926346449636899848458919,9486.0,1.54880743926346449636899848458919
155,9611.15011104183271091100798070861154,9609.6,1.55011104183271091100798070861154
156,9735.55140625583702463643746864897236,9734.0,1.55140625583702463643746864897236
157,9860.75269318858041670056247434131744,9859.2,1.55269318858041670056247434131744
158,9986.75397194532078887135628516334112,9985.2,1.55397194532078887135628516334112
159,10113.5552426293216344702555422948762,10112.0,1.5552426293216344702555422948762
160,10241.1565053419021175322386918772999,10239.6,1.5565053419021175322386918772999
161,10369.5577601824855888086794988156272,10368.0,1.5577601824855888086794988156272
162,10498.7590072486465980740477109879899,10497.2,1.5590072486465980740477109879899
163,10628.7602466361564575897267814090172,10627.2,1.5602466361564575897267814090172
164,10759.5614784390274113615144411343982,10758.0,1.5614784390274113615144411343982
165,10891.1627027495554587909944327288398,10889.6,1.5627027495554587909944327288398
166,11023.5639196583618832363387347353029,11022.0,1.5639196583618832363387347353029
167,11156.7651292544335327148305060779005,11155.2,1.5651292544335327148305060779005
168,11290.7663316251618954359919703416194,11289.2,1.5663316251618954359919703416194
169,11425.5675268563810152273783919538019,11424.0,1.5675268563810152273783919538019
170,11561.1687150324042865961247251436080,11559.6,1.5687150324042865961247251436080
171,11697.5698962360601696206761719696278,11696.0,1.5698962360601696206761719696278
172,11834.7710705487268625393314415842215,11833.2,1.5710705487268625393314415842215
173,11972.7722380503659674378999966436434,11971.2,1.5722380503659674378999966436434
174,12111.5733988195551848799579768208362,12110.0,1.5733988195551848799579768208362
175,12251.1745529335200714646064725737380,12249.6,1.5745529335200714646064725737380
176,12391.5757004681648900180555697656896,12390.0,1.5757004681648900180555697656896
177,12532.7768414981025856795422185798912,12531.2,1.5768414981025856795422185798912
178,12674.7779760966839170359487967417890,12673.2,1.5779760966839170359487967417890
179,12817.5791043360257687500386890174383,12816.0,1.5791043360257687500386890174383
180,12961.1802262870386766286783931070714,12959.6,1.5802262870386766286783931070714
181,13105.5813420194535877796028493219141,13104.0,1.5813420194535877796028493219141
182,13250.7824516018478835520798243660245,13249.2,1.5824516018478835520798243660245
183,13396.7835551016706883107178303864524,13395.2,1.5835551016706883107178303864524
184,13543.5846525852674882839239706737407,13542.0,1.5846525852674882839239706737407
185,13691.1857441179040822951054899463580,13689.6,1.5857441179040822951054899463580
186,13839.5868297637898853452044370207681,13838.0,1.5868297637898853452044370207681
187,13988.7879095861006088470332951546251,13987.2,1.5879095861006088470332951546251
188,14138.7889836470003329476958212148541,14137.2,1.5889836470003329476958212148541
189,14289.5900520076629946701508543025724,14288.0,1.5900520076629946701508543025724
190,14441.1911147282933075249635658020885,14439.6,1.5911147282933075249635658020885
191,14593.5921718681471318147624314759702,14592.0,1.5921718681471318147624314759702
192,14746.7932234855513120135707071549935,14745.2,1.5932234855513120135707071549935
193,14900.7942696379229995248254917392305,14899.2,1.5942696379229995248254917392305
194,15055.5953103817884741588316751469103,15054.0,1.5953103817884741588316751469103
195,15211.1963457728014822619733579257353,15209.6,1.5963457728014822619733579257353
196,15367.5973758657611051895462672033919,15366.0,1.5973758657611051895462672033919
197,15524.7984007146291724974950615983570,15523.2,1.5984007146291724974950615983570
198,15682.7994203725472340149972909668573,15681.2,1.5994203725472340149972909668573
199,15841.6004348918531036317103821613296,15840.0,1.6004348918531036317103821613296
200,16001.2014443240969887398431666198194,15999.6,1.6014443240969887398431666198194
201,16161.6024487200572163074315239019556,16160.0,1.6024487200572163074315239019556
202,16322.8034481297555689589303269216835,16321.2,1.6034481297555689589303269216835
203,16484.8044426024722417178041611543349,16483.2,1.6044426024722417178041611543349
204,16647.6054321867604310259793958834502,16646.0,1.6054321867604310259793958834502
205,16811.2064169304605660054700473678307,16809.6,1.6064169304605660054700473678307
206,16975.6073968807141949808753740483722,16974.0,1.6073968807141949808753740483722
207,17140.8083720839775331333752781295824,17139.2,1.6083720839775331333752781295824
208,17306.8093425860346855076289761490932,17305.2,1.6093425860346855076289761490932
209,17473.6103084320105511144052945909100,17472.0,1.6103084320105511144052945909100
210,17641.2112696663834196245444076992755,17639.6,1.6112696663834196245444076992755
211,17809.6122263329972680132081645397728,17808.0,1.6122263329972680132081645397728
212,17978.8131784750737673815419429535879,17977.2,1.6131784750737673815419429535879
213,18148.8141261352240043336367779743744,18147.2,1.6141261352240043336367779743744
214,18319.6150693554599318844760214622734,18318.0,1.6150693554599318844760214622734
215,18491.2160081772055491050921575221242,18489.6,1.6160081772055491050921575221242
216,18663.6169426413078234593849961852896,18662.0,1.6169426413078234593849961852896
217,18836.8178727880473597916375101577281,18835.2,1.6178727880473597916375101577281
218,19010.8187986571488249371730722440614,19009.2,1.6187986571488249371730722440614
219,19185.6197202877911312290838187964692,19184.0,1.6197202877911312290838187964692
220,19361.2206377186173914091514974046245,19359.6,1.6206377186173914091514974046245
221,19537.6215509877446428452442762442282,19536.0,1.6215509877446428452442762442282
222,19714.8224601327733582525484558133826,19713.2,1.6224601327733582525484558133826
223,19892.8233651907967364794595994659998,19891.2,1.6233651907967364794595994659998
224,20071.6242661984097884174245414644449,20070.0,1.6242661984097884174245414644449
225,20251.2251631917182205912701278988401,20249.6,1.6251631917182205912701278988401
226,20431.6260562063471199679523821369429,20430.0,1.6260562063471199679523821369429
227,20612.8269452774494486265658270139255,20611.2,1.6269452774494486265658270139255
228,20794.8278304397143500998051590813772,20793.2,1.6278304397143500998051590813772
229,20977.6287117273752745390155498221869,20976.0,1.6287117273752745390155498221869
230,21161.2295891742179273890609190256459,21159.6,1.6295891742179273890609190256459
231,21345.6304628135880433622655804709883,21344.0,1.6304628135880433622655804709883
232,21530.8313326783989961203347258545344,21529.2,1.6313326783989961203347258545344
233,21716.8321988011392386497429841637539,21715.2,1.6321988011392386497429841637539
234,21903.6330612138795904766414732405803,21902.0,1.6330612138795904766414732405803
235,22091.2339199482803648923676955300847,22089.6,1.6339199482803648923676955300847
236,22279.6347750355983458883107872091108,22278.0,1.6347750355983458883107872091108
237,22468.8356265066936184202432560165123,22467.2,1.6356265066936184202432560165123
238,22658.8364743920362537331136241529899,22657.2,1.6364743920362537331136241529899
