Eigenstate,Energy,Kinetic Energy,Potential Energy
1,0.500000000045819573335340257313368504,0.0,0.500000000045819573335340257313368504
2,1.84623093795020098565706816998876410,1.2,0.64623093795020098565706816998876410
3,3.93633761058351786020067331766728357,3.2,0.73633761058351786020067331766728357
4,6.79966527964414254387972109263103070,6.0,0.79966527964414254387972109263103070
5,10.4480465784554549737064863062685733,9.6,0.8480465784554549737064863062685733
6,14.8870660017751956931018431822115970,14.0,0.8870660017751956931018431822115970
7,20.1197208310429786940801982064033733,19.2,0.9197208310429786940801982064033733
8,26.1477838526365175947458741032968995,25.2,0.9477838526365175947458741032968995
9,32.9723835655625452301814546005575176,32.0,0.9723835655625452301814546005575176
10,40.5942802239699270444574908222887881,39.6,0.9942802239699270444574908222887881
11,49.0140093979999081562473940813999896,48.0,1.0140093979999081562473940813999896
12,58.2319621829572745213044442873844287,57.2,1.0319621829572745213044442873844287
13,68.2484327089079608076525869504295536,67.2,1.0484327089079608076525869504295536
14,79.0636476735352211761082264353187183,78.0,1.0636476735352211761082264353187183
15,90.6777854579538197467537306952231086,89.6,1.0777854579538197467537306952231086
16,103.090988931580479237230037974792077,102.0,1.090988931580479237230037974792077
17,116.303374285595387721931982926743919,115.2,1.103374285595387721931982926743919
18,130.315037283948399808012287149469116,129.2,1.115037283948399808012287149469116
19,145.126057786463015500641587741508541,144.0,1.126057786463015500641587741508541
20,160.736503086470317571405238957786162,159.6,1.136503086470317571405238957786162
21,177.146430416890669433328334059802007,176.0,1.146430416890669433328334059802007
22,194.355888861392455804983233110825318,193.2,1.155888861392455804983233110825318
23,212.364920832328607775219640340812627,211.2,1.164920832328607775219640340812627
24,231.173563228137025282141958237713807,230.0,1.173563228137025282141958237713807
25,250.781848350136503757627008863273514,249.6,1.181848350136503757627008863273514
26,271.189804636334322080428910917208399,270.0,1.189804636334322080428910917208399
27,292.397457254388818575769233036226589,291.2,1.197457254388818575769233036226589
28,314.404828584968430987470986510794365,313.2,1.204828584968430987470986510794365
29,337.211938618953648525298791392238501,336.0,1.211938618953648525298791392238501
30,360.818805286278836519533621198474144,359.6,1.218805286278836519533621198474144
31,385.225444730064955713776913904235098,384.0,1.225444730064955713776913904235098
32,410.431871536616298641566360524083862,409.2,1.231871536616298641566360524083862
33,436.438098929544717727759772840081753,435.2,1.238098929544717727759772840081753
34,463.244138934534273489130759327618846,462.0,1.244138934534273489130759327618846
35,490.850002519920036142666223924398245,489.6,1.250002519920036142666223924398245
36,519.255699717221295051325885538773519,518.0,1.255699717221295051325885538773519
37,548.461239724965345888379260395305088,547.2,1.261239724965345888379260395305088
38,578.466630998507606658202065106380575,577.2,1.266630998507606658202065106380575
39,609.271881328055965061828723449277542,608.0,1.271881328055965061828723449277542
40,640.876997906711438911962719537808796,639.6,1.276997906711438911962719537808796
41,673.281987390020481028388401698645621,672.0,1.281987390020481028388401698645621
42,706.486855948279267443194734647848295,705.2,1.286855948279267443194734647848295
43,740.491609312623821400284286336505258,739.2,1.291609312623821400284286336505258
44,775.296252815771731618120964238570555,774.0,1.296252815771731618120964238570555
45,810.900791428143653715661354691924480,809.6,1.300791428143653715661354691924480
46,847.305229789979647418812397773001974,846.0,1.305229789979647418812397773001974
47,884.509572239971925552420133991030829,883.2,1.309572239971925552420133991030829
48,922.513822840858004458541385540577839,921.2,1.313822840858004458541385540577839
49,961.317985402353582937849989319445753,960.0,1.317985402353582937849989319445753
50,1000.92206350175035409737313009275822,999.6,1.32206350175035409737313009275822
51,1041.32606050245848752527866889743675,1040.0,1.32606050245848752527866889743675
52,1082.52997957073517399913313564238293,1081.2,1.32997957073517399913313564238293
53,1124.53382369080817481550266212418408,1123.2,1.33382369080817481550266212418408
54,1167.33759567857575669731188297165588,1166.0,1.33759567857575669731188297165588
55,1210.94129819404091774286304054227055,1209.6,1.34129819404091774286304054227055
56,1255.34493375261773531029160803007350,1254.0,1.34493375261773531029160803007350
57,1300.54850473543046776611511842058274,1299.2,1.34850473543046776611511842058274
58,1346.55201339871124484024052317721673,1345.2,1.35201339871124484024052317721673
59,1393.35546188238942738251968361989039,1392.0,1.35546188238942738251968361989039
60,1440.95885221795469280824013361129487,1439.6,1.35885221795469280824013361129487
61,1489.36218633566633829243331623328500,1488.0,1.36218633566633829243331623328500
62,1538.56546607117299276776885065711939,1537.2,1.36546607117299276776885065711939
63,1588.56869317159968689178252939226721,1587.2,1.36869317159968689178252939226721
64,1639.37186930115291766926351618444139,1638.0,1.37186930115291766926351618444139
65,1690.97499604628880957565330913831659,1689.6,1.37499604628880957565330913831659
66,1743.37807492048462668825469927508576,1742.0,1.37807492048462668825469927508576
67,1796.58110736864962804072308591195660,1795.2,1.38110736864962804072308591195660
68,1850.58409477120750225550381795972986,1849.2,1.38409477120750225550381795972986
69,1905.38703844787930483815241314191696,1904.0,1.38703844787930483815241314191696
70,1960.98993966119289324921019190250746,1959.6,1.38993966119289324921019190250746
71,2017.39279961974225616557693690990097,2016.0,1.39279961974225616557693690990097
72,2074.59561948121783510094193659580484,2073.2,1.39561948121783510094193659580484
73,2132.59840035522688354843150276893798,2131.2,1.39840035522688354843150276893798
74,2191.40114330592108996007796958515435,2190.0,1.40114330592108996007796958515435
75,2251.00384935444705977661227373702036,2249.6,1.40384935444705977661227373702036
76,2311.40651948123380216432668265299650,2310.0,1.40651948123380216432668265299650
77,2372.60915462813006471733628729549947,2371.2,1.40915462813006471733628729549947
78,2434.61175570040319358538743592492811,2433.2,1.41175570040319358538743592492811
79,2497.41432356861014966736908094285604,2496.0,1.41432356861014966736908094285604
80,2561.01685907035037338503835206768227,2559.6,1.41685907035037338503835206768227
81,2625.41936301190934120999521601354362,2624.0,1.41936301190934120999521601354362
82,2690.62183616980089566638731374886707,2689.2,1.42183616980089566638731374886707
83,2756.62427929221574179803641839751077,2755.2,1.42427929221574179803641839751077
84,2823.42669310038287879696179405869118,2822.0,1.42669310038287879696179405869118
85,2891.02907828985017621410200644765531,2889.6,1.42907828985017621410200644765531
86,2959.43143553168978830764725065860139,2958.0,1.43143553168978830764725065860139
87,3028.63376547363364261359457192339535,3027.2,1.43376547363364261359457192339535
88,3098.63606874114381544540241786583042,3097.2,1.43606874114381544540241786583042
89,3169.43834593842222352745949435304724,3168.0,1.43834593842222352745949435304724
90,3241.04059764936371775035362503890980,3239.6,1.44059764936371775035362503890980
91,3313.44282443845634358387558272285935,3312.0,1.44282443845634358387558272285935
92,3386.64502685163224438615363581921999,3385.2,1.44502685163224438615363581921999
93,3460.64720541707242159225902316874987,3459.2,1.44720541707242159225902316874987
94,3535.44936064596832283688433692333713,3534.0,1.44936064596832283688433692333713
95,3611.05149303324300791166787733296536,3609.6,1.45149303324300791166787733296536
96,3687.45360305823444063562043948196521,3686.0,1.45360305823444063562043948196521
97,3764.65569118534327037500164813053734,3763.2,1.45569118534327037500164813053734
98,3842.65775786464729407469787751540982,3841.2,1.45775786464729407469787751540982
99,3921.45980353248463619096506391407955,3920.0,1.45980353248463619096506391407955
100,4001.06182861200753757498329148654170,3999.6,1.46182861200753757498329148654170
101,4081.46383351370851505251580100423098,4080.0,1.46383351370851505251580100423098
102,4162.66581863592052787024388269237015,4161.2,1.46581863592052787024388269237015
103,4244.66778436529267926573616695983425,4243.2,1.46778436529267926573616695983425
104,4327.46973107724287415330072269701410,4326.0,1.46973107724287415330072269701410
105,4411.07165913638876084421102011613349,4409.6,1.47165913638876084421102011613349
106,4495.47356889695819395555353030932237,4494.0,1.47356889695819395555353030932237
107,4580.67546070318037757998909343286947,4579.2,1.47546070318037757998909343286947
108,4666.67733488965876854916584653372840,4665.2,1.47733488965876854916584653372840
109,4753.47919178172675102998749352671573,4752.0,1.47919178172675102998749352671573
110,4841.08103169578703127281541141541889,4839.6,1.48103169578703127281541141541889
111,4929.48285493963563546948479157120304,4928.0,1.48285493963563546948479157120304
112,5018.68466181277134424538146210086338,5017.2,1.48466181277134424538146210086338
113,5108.68645260669134177403196371322911,5107.2,1.48645260669134177403196371322911
114,5199.48822760517380874490323424279395,5198.0,1.48822760517380874490323424279395
115,5291.08998708454814796660547881370210,5289.6,1.48998708454814796660547881370210
116,5383.49173131395348305604391875700370,5382.0,1.49173131395348305604391875700370
117,5476.69346055558603895105809514552901,5475.2,1.49346055558603895105809514552901
118,5570.69517506493597195298193332370053,5569.2,1.49517506493597195298193332370053
119,5665.49687509101418329184159851400737,5664.0,1.49687509101418329184159851400737
120,5761.09856087656962436467313913498786,5759.6,1.49856087656962436467313913498786
121,5857.50023265829756353019760904092452,5856.0,1.50023265829756353019760904092452
122,5954.70189066703926542995877148371373,5953.2,1.50189066703926542995877148371373
123,6052.70353512797350161309643211613154,6051.2,1.50353512797350161309643211613154
124,6151.50516626080029356211975988283675,6150.0,1.50516626080029356211975988283675
125,6251.10678427991725965078200160665240,6249.6,1.50678427991725965078200160665240
126,6351.50838939458892236786032906934628,6350.0,1.50838939458892236786032906934628
127,6452.70998180910931156275826404423432,6451.2,1.50998180910931156275826404423432
128,6554.71156172295817688165831007879607,6553.2,1.51156172295817688165831007879607
129,6657.51312933095111048971416362325933,6656.0,1.51312933095111048971416362325933
130,6761.11468482338386279290483879055190,6759.6,1.51468482338386279290483879055190
131,6865.51622838617111846905477892684571,6864.0,1.51622838617111846905477892684571
132,6970.71776020097998514032371747983312,6969.2,1.51776020097998514032371747983312
133,7076.71928044535843523788525588285711,7075.2,1.51928044535843523788525588285711
134,7183.52078929285893033355535401686821,7182.0,1.52078929285893033355535401686821
135,7291.12228691315743910478869547522185,7289.6,1.52228691315743910478869547522185
136,7399.52377347216805641193075919257565,7398.0,1.52377347216805641193075919257565
137,7508.72524913215341765867015485652365,7507.2,1.52524913215341765867015485652365
138,7618.72671405183108899464474665628782,7617.2,1.52671405183108899464474665628782
139,7729.52816838647611181324991843587972,7728.0,1.52816838647611181324991843587972
140,7841.12961228801986455172888013140387,7839.6,1.52961228801986455172888013140387
141,7953.53104590514540024313493343238077,7952.0,1.53104590514540024313493343238077
142,8066.73246938337941019648880850708999,8065.2,1.53246938337941019648880850708999
143,8180.73388286518095553128472994968199,8179.2,1.53388286518095553128472994968199
144,8295.53528649002710111286200931430170,8294.0,1.53528649002710111286200931430170
145,8411.13668039449558224739976623761445,8409.6,1.53668039449558224739976623761445
146,8527.53806471234462662654176100094650,8526.0,1.53806471234462662654176100094650
147,8644.73943957459004580869206248346264,8643.2,1.53943957459004580869206248346264
148,8762.74080510957971156598914245989894,8761.2,1.54080510957971156598914245989894
149,8881.54216144306551889789170644529816,8880.0,1.54216144306551889789170644529816
150,9001.14350869827293935223228171956625,8999.6,1.54350869827293935223228171956625
151,9121.54484699596826056797133101811103,9120.0,1.54484699596826056797133101811103
152,9242.74617645452360233879917369384568,9241.2,1.54617645452360233879917369384568
153,9364.74749718997979814725735202608039,9363.2,1.54749718997979814725735202608039
154,9487.54880931610722606859830259390999,9486.0,1.54880931610722606859830259390999
155,9611.15011294446466728035302359795412,9609.6,1.55011294446466728035302359795412
156,9735.55140818445627004394620554627744,9734.0,1.55140818445627004394620554627744
157,9860.75269514338669020493803217930186,9859.2,1.55269514338669020493803217930186
158,9986.75397392651448002996994818518275,9985.2,1.55397392651448002996994818518275
159,10113.5552446371037890532232355288336,10112.0,1.5552446371037890532232355288336
160,10241.1565073764744432699039781165658,10239.6,1.5565073764744432699039781165658
161,10369.5577622440504611728489209574794,10368.0,1.5577622440504611728489209574794
162,10498.7590093374070660933275095743023,10497.2,1.5590093374070660933275095743023
163,10628.7602487523162496993129182998271,10627.2,1.5602487523162496993129182998271
164,10759.5614805827909412877913134048014,10758.0,1.5614805827909412877913134048014
165,10891.1627049211278314713005689752014,10889.6,1.5627049211278314713005689752014
166,11023.5639218579489007742610362980518,11022.0,1.5639218579489007742610362980518
167,11156.7651314822417003713918990687562,11155.2,1.5651314822417003713918990687562
168,11290.7663338813984276571006068135125,11289.2,1.5663338813984276571006068135125
169,11425.5675291412538417079098186975874,11424.0,1.5675291412538417079098186975874
170,11561.1687173461220583810119062766012,11559.6,1.5687173461220583810119062766012
171,11697.5698985788322652433855563113699,11696.0,1.5698985788322652433855563113699
172,11834.7710729207633941981068448894115,11833.2,1.5710729207633941981068448894115
173,11972.7722404518777872101593611864099,11971.2,1.5722404518777872101593611864099
174,12111.5734012507538909752318749391934,12110.0,1.5734012507538909752318749391934
175,12251.1745553946180145164105840927665,12249.6,1.5745553946180145164105840927665
176,12391.5757029593751794150931045874815,12390.0,1.5757029593751794150931045874815
177,12532.7768440196390959366359069777651,12531.2,1.5768440196390959366359069777651
178,12674.7779786487612942051057390221881,12673.2,1.5779786487612942051057390221881
179,12817.5791069188594368720551578531313,12816.0,1.5791069188594368720551578531313
180,12961.1802289008448442256954888595518,12959.6,1.5802289008448442256954888595518
181,13105.5813446644492543890278023349647,13104.0,1.5813446644492543890278023349647
182,13250.7824542782508463022914797936116,13249.2,1.5824542782508463022914797936116
183,13396.7835578096995485389789808588244,13395.2,1.5835578096995485389789808588244
184,13543.5846553251416581969271065028097,13542.0,1.5846553251416581969271065028097
185,13691.1857468898437916725826943793579,13689.6,1.5857468898437916725826943793579
186,13839.5868325680161882870359755396904,13838.0,1.5868325680161882870359755396904
187,13988.7879124228353905642939374722122,13987.2,1.5879124228353905642939374722122
188,14138.7889865164663165980818271475816,14137.2,1.5889865164663165980818271475816
189,14289.5900549100837482382351128356933,14288.0,1.5900549100837482382351128356933
190,14441.1911176638932507477303632527314,14439.6,1.5911176638932507477303632527314
191,14593.5921748371515431528778749873797,14592.0,1.5921748371515431528778749873797
192,14746.7932264881863356688491759389096,14745.2,1.5932264881863356688491759389096
193,14900.7942726744156525043569661429290,14899.2,1.5942726744156525043569661429290
194,15055.5953134523666533862392996569717,15054.0,1.5953134523666533862392996569717
195,15211.1963488776939717362750959518328,15209.6,1.5963488776939717362750959518328
196,15367.5973790051975831920992858816677,15366.0,1.5973790051975831920992858816677
197,15524.7984038888402188475060401278122,15523.2,1.5984038888402188475060401278122
198,15682.7994235817643373740866067933773,15681.2,1.5994235817643373740866067933773
199,15841.6004381363086688580230010952115,15840.0,1.6004381363086688580230010952115
200,16001.2014476040243442922038650407110,15999.6,1.6014476040243442922038650407110
201,16161.6024520356906217000469147857303,16160.0,1.6024520356906217000469147857303
202,16322.8034514813302222671453004250586,16321.2,1.6034514813302222671453004250586
203,16484.8044459902242871354253880009946,16483.2,1.6044459902242871354253880009946
204,16647.6054356109269664746833687779454,16646.0,1.6054356109269664746833687779454
205,16811.2064203912796507968186973330264,16809.6,1.6064203912796507968186973330264
206,16975.6074003784248575314672457633016,16974.0,1.6074003784248575314672457633016
207,17140.8083756188197787336656709981436,17139.2,1.6083756188197787336656709981436
208,17306.8093461582495041449577675367298,17305.2,1.6093461582495041449577675367298
209,17473.6103120418399253507766044770145,17472.0,1.6103120418399253507766044770145
210,17641.2112733140703325297078397453059,17639.6,1.6112733140703325297078397453059
211,17809.6122300187857111535967562348090,17808.0,1.6122300187857111535967562348090
212,17978.8131821992087488656276580536914,17977.2,1.6131821992087488656276580536914
213,18148.8141298979515569142702620336690,18147.2,1.6141298979515569142702620336690
214,18319.6150731570271211187827725082650,18318.0,1.6150731570271211187827725082650
215,18491.2160120178604815725034188345408,18489.6,1.6160120178604815725034188345408
216,18663.6169465212996550383874750388657,18662.0,1.6169465212996550383874750388657
217,18836.8178767076263039958317816957694,18835.2,1.6178767076263039958317816957694
218,19010.8188026165661613112371967221822,19009.2,1.6188026165661613112371967221822
219,19185.6197242872992138052443129459390,19184.0,1.6197242872992138052443129459390
220,19361.2206417584696572247700536394995,19359.6,1.6206417584696572247700536394995
221,19537.6215550681956205221353363431180,19536.0,1.6215550681956205221353363431180
222,19714.8224642540786766386485916894612,19713.2,1.6224642540786766386485916894612
223,19892.8233693532131333534765461172358,19891.2,1.6233693532131333534765461172358
224,20071.6242704021951192570999718681448,20070.0,1.6242704021951192570999718681448
225,20251.2251674371314674058970071614936,20249.6,1.6251674371314674058970071614936
226,20431.6260604936484001957945620981736,20430.0,1.6260604936484001957945620981736
227,20612.8269496069000240978339674932147,20611.2,1.6269496069000240978339674932147
228,20794.8278348115766360658504213403378,20793.2,1.6278348115766360658504213403378
229,20977.6287161419128487684090962317019,20976.0,1.6287161419128487684090962317019
230,21161.2295936316955393312344338607053,21159.6,1.6295936316955393312344338607053
231,21345.6304673142716233793951992847174,21344.0,1.6304673142716233793951992847174
232,21530.8313372225556647881578995881153,21529.2,1.6313372225556647881578995881153
233,21716.8322033890373161280052656985214,21715.2,1.6322033890373161280052656985214
234,21903.6330658457886059498773875761453,21902.0,1.6330658457886059498773875761453
235,22091.2339246244710660817277046050361,22089.6,1.6339246244710660817277046050361
236,22279.6347797563427086351536998179578,22278.0,1.6347797563427086351536998179578
237,22468.8356312722648563422211926616383,22467.2,1.6356312722648563422211926616383
238,22658.8364792027088279534845589343849,22657.2,1.6364792027088279534845589343849
