Eigenstate,Energy,Kinetic Energy,Potential Energy
1,0.500000000015167602244141654348249301,0.0,0.500000000015167602244141654348249301
2,1.84623093775012079545642609549374321,1.2,0.64623093775012079545642609549374321
3,3.93633760999579800442993513369805899,3.2,0.73633760999579800442993513369805899
4,6.79966527841998793241805928200563825,6.0,0.79966527841998793241805928200563825
5,10.4480465763349658980170683496851032,9.6,0.8480465763349658980170683496851032
6,14.8870659984939221303804146168944424,14.0,0.8870659984939221303804146168944424
7,20.1197208263343354072083813040281970,19.2,0.9197208263343354072083813040281970
8,26.1477838462327914628537577891386548,25.2,0.9477838462327914628537577891386548
9,32.9723835571953637814503046687449794,32.0,0.9723835571953637814503046687449794
10,40.5942802133704963706408168170726874,39.6,0.9942802133704963706408168170726874
11,49.0140093848991422625639527667718180,48.0,1.0140093848991422625639527667718180
12,58.2319621670858693533673324182076955,57.2,1.0319621670858693533673324182076955
13,68.2484326899964381602879957113421451,67.2,1.0484326899964381602879957113421451
14,79.0636476513139552690667644337789183,78.0,1.0636476513139552690667644337789183
15,90.6777854321530533435891465710951014,89.6,1.0777854321530533435891465710951014
16,103.090988901930333195600521183734134,102.0,1.090988901930333195600521183734134
17,116.303374251825866271000314115487006,115.2,1.103374251825866271000314115487006
18,130.315037245789392960192156920314904,129.2,1.115037245789392960192156920314904
19,145.126057743644299489168794863417459,144.0,1.126057743644299489168794863417459
20,160.736503038721553895095171319441371,159.6,1.136503038721553895095171319441371
21,177.146430363941402897527160861491787,176.0,1.146430363941402897527160861491787
22,194.355888802972111825056608599356099,193.2,1.155888802972111825056608599356099
23,212.364920768166489128731973584526380,211.2,1.164920768166489128731973584526380
24,231.173563157962308442267807057502682,230.0,1.173563157962308442267807057502682
25,250.781848273678234903760094592719689,249.6,1.181848273678234903760094592719689
26,271.189804553321412856536380781533657,270.0,1.189804553321412856536380781533657
27,292.397457164550041649075397608041844,291.2,1.197457164550041649075397608041844
28,314.404828488032415447162489740776895,313.2,1.204828488032415447162489740776895
29,337.211938514648875151558432210298522,336.0,1.211938514648875151558432210298522
30,360.818805174333632946288794960822691,359.6,1.218805174333632946288794960822691
31,385.225444610207491503382146512460590,384.0,1.225444610207491503382146512460590
32,410.431871408574580285739428594874873,409.2,1.231871408574580285739428594874873
33,436.438098793046583586116084456983759,435.2,1.238098793046583586116084456983759
34,463.244138789307388674369503145740923,462.0,1.244138789307388674369503145740923
35,490.850002365691887359681021653591887,489.6,1.250002365691887359681021653591887
36,519.255699553719185396116932091217606,518.0,1.255699553719185396116932091217606
37,548.461239551916389611541066897449738,547.2,1.261239551916389611541066897449738
38,578.466630815638723896883087003524485,577.2,1.266630815638723896883087003524485
39,609.271881135093876543355421567475610,608.0,1.271881135093876543355421567475610
40,640.876997703382660631752641767630315,639.6,1.276997703382660631752641767630315
41,673.281987176051318904315729840837395,672.0,1.281987176051318904315729840837395
42,706.486855723395811948194936314549313,705.2,1.286855723395811948194936314549313
43,740.491609076551942174674966061314833,739.2,1.291609076551942174674966061314833
44,775.296252568237072062860360295433789,774.0,1.296252568237072062860360295433789
45,810.900791168871625567553651507299322,809.6,1.300791168871625567553651507299322
46,847.305229518695425308491896610407582,846.0,1.305229518695425308491896610407582
47,884.509571956400441545797933767341296,883.2,1.309571956400441545797933767341296
48,922.513822544723942582273189365912075,921.2,1.313822544723942582273189365912075
49,961.317985093381373689277997256416699,960.0,1.317985093381373689277997256416699
50,1000.92206317966416893930525420537868,999.6,1.32206317966416893930525420537868
51,1041.32606016698223336589175007712973,1040.0,1.32606016698223336589175007712973
52,1082.52997922159248765722140403432996,1081.2,1.32997922159248765722140403432996
53,1124.53382332772241747123644244275241,1123.2,1.33382332772241747123644244275241
54,1167.33759530127000832862302252993997,1166.0,1.33759530127000832862302252993997
55,1210.94129780223797154753158323051170,1209.6,1.34129780223797154753158323051170
56,1255.34493334604009211377180611054683,1254.0,1.34493334604009211377180611054683
57,1300.54850431380033041510714946608421,1299.2,1.34850431380033041510714946608421
58,1346.55201296175051258198643202002424,1345.2,1.35201296175051258198643202002424
59,1393.35546142981969022977783376315467,1392.0,1.35546142981969022977783376315467
60,1440.95885174949722588987095677129518,1439.6,1.35885174949722588987095677129518
61,1489.36218585104209618951025032664521,1488.0,1.36218585104209618951025032664521
62,1538.56546557010260383511154302280669,1537.2,1.36546557010260383511154302280669
63,1588.56869265380344756479452453018015,1587.2,1.36869265380344756479452453018015
64,1639.37186876635078675594338003446151,1638.0,1.37186876635078675594338003446151
65,1690.97499549420040253363615554114998,1689.6,1.37499549420040253363615554114998
66,1743.37807435082920988673048222365958,1742.0,1.37807435082920988673048222365958
67,1796.58110678114611300706837013093886,1795.2,1.38110678114611300706837013093886
68,1850.58409416557443990645506275947254,1849.2,1.38409416557443990645506275947254
69,1905.38703782383487969534081527247711,1904.0,1.38703782383487969534081527247711
70,1960.98993901845491763887113610754003,1959.6,1.38993901845491763887113610754003
71,2017.39279895802816440224029414973020,2016.0,1.39279895802816440224029414973020
72,2074.59561880024467765490366334198675,2073.2,1.39561880024467765490366334198675
73,2132.59839965471132119680126085548923,2131.2,1.39839965471132119680126085548923
74,2191.40114258557938792119248997759951,2190.0,1.40114258557938792119248997759951
75,2251.00384861399508182759932335968358,2249.6,1.40384861399508182759932335968358
76,2311.40651872038700474160020712933268,2310.0,1.40651872038700474160020712933268
77,2372.60915384660349099979905321074821,2371.2,1.40915384660349099979905321074821
78,2434.61175489791146756011367409388299,2433.2,1.41175489791146756011367409388299
79,2497.41432274486747017753592795193033,2496.0,1.41432274486747017753592795193033
80,2561.01685822507050815987155072401846,2559.6,1.41685822507050815987155072401846
81,2625.41936214480562087649112373234985,2624.0,1.41936214480562087649112373234985
82,2690.62183528058620774257022639032481,2689.2,1.42183528058620774257022639032481
83,2756.62427838060252466750724931548045,2755.2,1.42427838060252466750724931548045
84,2823.42669216608311566449126191063147,2822.0,1.42669216608311566449126191063147
85,2891.02907733257538904201870793290488,2889.6,1.42907733257538904201870793290488
86,2959.43143455115103173276846298981524,2958.0,1.43143455115103173276846298981524
87,3028.63376446954149784444490849919123,3027.2,1.43376446954149784444490849919123
88,3098.63606771320838413946304676466817,3097.2,1.43606771320838413946304676466817
89,3169.43834488635312164818822303620382,3168.0,1.43834488635312164818822303620382
90,3241.04059657287006940371373797146323,3239.6,1.44059657287006940371373797146323
91,3313.44282333724677483410898325678832,3312.0,1.44282333724677483410898325678832
92,3386.64502572541487705053162279004836,3385.2,1.44502572541487705053162279004836
93,3460.64720426555486701454172192281877,3459.2,1.44720426555486701454172192281877
94,3535.44935946885767563921763920756232,3534.0,1.44935946885767563921763920756232
95,3611.05149183024583972464449744057558,3609.6,1.45149183024583972464449744057558
96,3687.45360182905679380622964194352196,3686.0,1.45360182905679380622964194352196
97,3764.65568992969065165218987022192664,3763.2,1.45568992969065165218987022192664
98,3842.65775658222466827226056437119472,3841.2,1.45775658222466827226056437119472
99,3921.45980222299641982748767552400964,3920.0,1.45980222299641982748767552400964
100,4001.06182727515759249054751425289019,3999.6,1.46182727515759249054751425289019
101,4081.46383214920014200188476618012309,4080.0,1.46383214920014200188476618012309
102,4162.66581724345646009223811824624282,4161.2,1.46581724345646009223811824624282
103,4244.66778294457507602850998935290043,4243.2,1.46778294457507602850998935290043
104,4327.46972962797331427522643358231590,4326.0,1.46972962797331427522643358231590
105,4411.07165765826823619007642508624913,4409.6,1.47165765826823619007642508624913
106,4495.47356738968710290777599077653006,4494.0,1.47356738968710290777599077653006
107,4580.67545916645851848454725944299068,4579.2,1.47545916645851848454725944299068
108,4666.67733332318533313594811192311429,4665.2,1.47733332318533313594811192311429
109,4753.47919018520031780725394378919560,4752.0,1.47919018520031780725394378919560
110,4841.08103006890555889546801777508478,4839.6,1.48103006890555889546801777508478
111,4929.48285328209645608083833602243459,4928.0,1.48285328209645608083833602243459
112,5018.68466012427115679212550303874703,5017.2,1.48466012427115679212550303874703
113,5108.68645088692620529407197650005883,5107.2,1.48645088692620529407197650005883
114,5199.48822585383913562776675570800085,5198.0,1.48822585383913562776675570800085
115,5291.08998530133869718609698703262085,5289.6,1.48998530133869718609698703262085
116,5383.49172949856335337482975678587532,5382.0,1.49172949856335337482975678587532
117,5476.69345870770866209686056222217646,5475.2,1.49345870770866209686056222217646
118,5570.69517318426410576605938632388388,5569.2,1.49517318426410576605938632388388
119,5665.49687317723990484342901355914775,5664.0,1.49687317723990484342901355914775
120,5761.09855892938432304605522665925035,5759.6,1.49855892938432304605522665925035
121,5857.50023067739193411208431576091436,5856.0,1.50023067739193411208431576091436
122,5954.70188865210330109183052024222063,5953.2,1.50188865210330109183052024222063
123,6052.70353307869648694218405253263748,6051.2,1.50353307869648694218405253263748
124,6151.50516417687079752168166691612614,6150.0,1.50516417687079752168166691612614
125,6251.10678216102312851733865016893189,6249.6,1.50678216102312851733865016893189
126,6351.50838724041727263704353936652761,6350.0,1.50838724041727263704353936652761
127,6452.70997961934652282343046926156749,6451.2,1.50997961934652282343046926156749
128,6554.71155949728988465795418352080566,6553.2,1.51155949728988465795418352080566
129,6657.51312706906219905065461004917202,6656.0,1.51312706906219905065461004917202
130,6761.11468252495845792923066185709888,6759.6,1.51468252495845792923066185709888
131,6865.51622605089258023692482739860910,6864.0,1.51622605089258023692482739860910
132,6970.71775782853090057151929847093401,6969.2,1.51775782853090057151929847093401
133,7076.71927803542061101616051430125755,7075.2,1.51927803542061101616051430125755
134,7183.52078684511338543677001233173745,7182.0,1.52078684511338543677001233173745
135,7291.12228442728439741245708150274708,7289.6,1.52228442728439741245708150274708
136,7399.52377094784693927781835451963873,7398.0,1.52377094784693927781835451963873
137,7508.72524656906283644806580521738838,7507.2,1.52524656906283644806580521738838
138,7618.72671144964883758593410675729728,7617.2,1.52671144964883758593410675729728
139,7729.52816574487915906341263768784895,7728.0,1.52816574487915906341263768784895
140,7841.12960960668434672537916725278934,7839.6,1.52960960668434672537916725278934
141,7953.53104318374661340472232381358131,7952.0,1.53104318374661340472232381358131
142,8066.73246662159180256527279039587087,8065.2,1.53246662159180256527279039587087
143,8180.73388006267811979869399012748786,8179.2,1.53388006267811979869399012748786
144,8295.53528364648176672184591292746639,8294.0,1.53528364648176672184591292746639
145,8411.13667750957960763337678641795491,8409.6,1.53667750957960763337678641795491
146,8527.53806178572899141954621550488668,8526.0,1.53806178572899141954621550488668
147,8644.73943660594484299631751652132556,8643.2,1.53943660594484299631751652132556
148,8762.74080209857413961672361572599718,8761.2,1.54080209857413961672361572599718
149,8881.54215838936787384443653274638309,8880.0,1.54215838936787384443653274638309
150,9001.14350560155060683439338923189741,8999.6,1.54350560155060683439338923189741
151,9121.54484385588770783470798352895723,9120.0,1.54484385588770783470798352895723
152,9242.74617327075037020901242144915267,9241.2,1.54617327075037020901242144915267
153,9364.74749396217849292889656048770847,9363.2,1.54749396217849292889656048770847
154,9487.54880604394151143566109584820529,9486.0,1.54880604394151143566109584820529
155,9611.15010962759725610735023763402669,9609.6,1.55010962759725610735023763402669
156,9735.55140482254891619739995624174704,9734.0,1.55140482254891619739995624174704
157,9860.75269173610018029147769332574217,9859.2,1.55269173610018029147769332574217
158,9986.75397047350862510058695906639328,9985.2,1.55397047350862510058695906639328
159,10113.5552411380374162632422434928700,10112.0,1.5552411380374162632422434928700
160,10241.1565038310053874942239575761731,10239.6,1.5565038310053874942239575761731
161,10369.5577586518355565760043454793837,10368.0,1.5577586518355565760043454793837
162,10498.7590056981021376539157321496391,10497.2,1.5590056981021376539157321496391
163,10628.7602450655761046883304323579779,10627.2,1.5602450655761046883304323579779
164,10759.5614768482693607004172227613059,10758.0,1.5614768482693607004172227613059
165,10891.1627011384775614116620271820828,10889.6,1.5627011384775614116620271820828
166,11023.5639180268216437927114945892571,11022.0,1.5639180268216437927114945892571
167,11156.7651276022881067538288660680786,11155.2,1.5651276022881067538288660680786
168,11290.7663299522680866658455657179721,11289.2,1.5663299522680866658455657179721
169,11425.5675251625952727736690809207074,11424.0,1.5675251625952727736690809207074
170,11561.1687133175827022454326992646370,11559.6,1.5687133175827022454326992646370
171,11697.5698945000584750517178273378799,11696.0,1.5698945000584750517178273378799
172,11834.7710687914004265414766959076439,11833.2,1.5710687914004265414766959076439
173,11972.7722362715697931169560893432866,11971.2,1.5722362715697931169560893432866
174,12111.5733970191439068511059152298263,12110.0,1.5733970191439068511059152298263
175,12251.1745511113479530323754972420479,12249.6,1.5745511113479530323754972420479
176,12391.5756986240858203432202084575886,12390.0,1.5756986240858203432202084575886
177,12532.7768396319700769328257016664471,12531.2,1.5768396319700769328257016664471
178,12674.7779742083511015384157164179557,12673.2,1.5779742083511015384157164179557
179,12817.5791024253453961000590125992870,12816.0,1.5791024253453961000590125992870
180,12961.1802243538631108153440453910603,12959.6,1.5802243538631108153440453910603
181,13105.5813400636348042824772335476077,13104.0,1.5813400636348042824772335476077
182,13250.7824496232374664271598337136561,13249.2,1.5824496232374664271598337136561
183,13396.7835531001198272624869469907586,13395.2,1.5835531001198272624869469907586
184,13543.5846505606269757233742531668888,13542.0,1.5846505606269757233742531668888
185,13691.1857420700243103836052194253302,13689.6,1.5857420700243103836052194253302
186,13839.5868276925208430240875549569629,13838.0,1.5868276925208430240875549569629
187,13988.7879074912918788527855163556943,13987.2,1.5879074912918788527855163556943
188,14138.7889815285010888126116788321111,14137.2,1.5889815285010888126116788321111
189,14289.5900498653219977083348332184738,14288.0,1.5900498653219977083348332184738
190,14441.1911125619589038035476002211249,14439.6,1.5911125619589038035476002211249
191,14593.5921696776672491102111095627557,14592.0,1.5921696776672491102111095627557
192,14746.7932212707734567529445056431863,14745.2,1.5932212707734567529445056431863
193,14900.7942673986942537118715033840338,14899.2,1.5942673986942537118715033840338
194,15055.5953081179554922847701582004757,15054.0,1.5953081179554922847701582004757
195,15211.1963434842104882008476450300413,15209.6,1.5963434842104882008476450300413
196,15367.5973735522578890780024024859293,15366.0,1.5973735522578890780024024859293
197,15524.7983983760590875988565804286930,15523.2,1.5983983760590875988565804286930
198,15682.7994180087551935674996374919528,15681.2,1.5994180087551935674996374919528
199,15841.6004325026835776807582159450757,15840.0,1.6004325026835776807582159450757
200,16001.2014419093940009541530047846048,15999.6,1.6014419093940009541530047846048
201,16161.6024462796643407789210189783690,16160.0,1.6024462796643407789210189783690
202,16322.8034456635159269862142643117124,16321.2,1.6034456635159269862142643117124
203,16484.8044401102284985731565319997290,16483.2,1.6044401102284985731565319997290
204,16647.6054296683547927056194271555141,16646.0,1.6054296683547927056194271555141
205,16811.2064143857347759630293420537129,16809.6,1.6064143857347759630293420537129
206,16975.6073943095095308439019133484643,16974.0,1.6073943095095308439019133484643
207,17140.8083694861348034027291138380805,17139.2,1.6083694861348034027291138380805
208,17306.8093399613942262396232118407808,17305.2,1.6093399613942262396232118407808
209,17473.6103057804122225855448459079814,17472.0,1.6103057804122225855448459079814
210,17641.2112669876666029787138632917140,17639.6,1.6112669876666029787138632917140
211,17809.6122236270008618911589740233175,17808.0,1.6122236270008618911589740233175
212,17978.8131757416361845325278977595743,17977.2,1.6131757416361845325278977595743
213,18148.8141233741831682090455687454658,18147.2,1.6141233741831682090455687454658
214,18319.6150665666532732133035650736363,18318.0,1.6150665666532732133035650736363
215,18491.2160053604700024511049883700193,18489.6,1.6160053604700024511049883700193
216,18663.6169397964798237598149644703898,18662.0,1.6169397964798237598149644703898
217,18836.8178699149628388772517098290007,18835.2,1.6178699149628388772517098290007
218,19010.8187957556432080335606889713978,19009.2,1.6187957556432080335606889713978
219,19185.6197173576993334390002825755814,19184.0,1.6197173576993334390002825755814
220,19361.2206347597738141757591344087150,19359.6,1.6206347597738141757591344087150
221,19537.6215479999831703960872957248483,19536.0,1.6215479999831703960872957248483
222,19714.8224571159273540240988179282774,19713.2,1.6224571159273540240988179282774
223,19892.8233621446990395220690039197722,19891.2,1.6233621446990395220690039197722
224,20071.6242631228927097805164916136095,20070.0,1.6242631228927097805164916136095
225,20251.2251600866135396886045151406645,20249.6,1.6251600866135396886045151406645
226,20431.6260530714860809227939289075228,20430.0,1.6260530714860809227939289075228
227,20612.8269421126627565965861460497430,20611.2,1.6269421126627565965861460497430
228,20794.8278272448321675815468898878305,20793.2,1.6278272448321675815468898878305
229,20977.6287085022272176517456351481884,20976.0,1.6287085022272176517456351481884
230,21161.2295859186330621378386433917951,21159.6,1.6295859186330621378386433917951
231,21345.6304595273948818800495517899220,21344.0,1.6304595273948818800495517899220
232,21530.8313293614254928889516099946764,21529.2,1.6313293614254928889516099946764
233,21716.8321954532127866995392631635636,21715.2,1.6321954532127866995392631635636
234,21903.6330578348270175646379938423720,21902.0,1.6330578348270175646379938423720
235,22091.2339165379279296587354265586475,22089.6,1.6339165379279296587354265586475
236,22279.6347715937717339909846306869592,22278.0,1.6347715937717339909846306869592
237,22468.8356230332179386474890896574967,22467.2,1.6356230332179386474890896574967
238,22658.8364708867360340938625033489297,22657.2,1.6364708867360340938625033489297
