Eigenstate,Energy,Kinetic Energy,Potential Energy
1,0.500000000093824877831532223345915459,0.0,0.500000000093824877831532223345915459
2,1.84623093826355604004686369586987773,1.2,0.64623093826355604004686369586987773
3,3.93633761150397963368096803267533118,3.2,0.73633761150397963368096803267533118
4,6.79966528156137810951690204583061099,6.0,0.79966528156137810951690204583061099
5,10.4480465817765407924455626737701801,9.6,0.8480465817765407924455626737701801
6,14.8870660069143588454758622143183914,14.0,0.8870660069143588454758622143183914
7,20.1197208384178206951519942402846932,19.2,0.9197208384178206951519942402846932
8,26.1477838626664429809173901729643048,25.2,0.9477838626664429809173901729643048
9,32.9723835786680339858620575573783200,32.0,0.9723835786680339858620575573783200
10,40.5942802405721682160989055964165283,39.6,0.9942802405721682160989055964165283
11,49.0140094185206035006747157826515483,48.0,1.0140094185206035006747157826515483
12,58.2319622078185288046924670282673360,57.2,1.0319622078185288046924670282673360
13,68.2484327385322192812027409394574602,67.2,1.0484327385322192812027409394574602
14,79.0636477083452342057942053973604872,78.0,1.0636477083452342057942053973604872
15,90.6777854983726238284573701462366672,89.6,1.0777854983726238284573701462366672
16,103.090988978031388308285522828462193,102.0,1.090988978031388308285522828462193
17,116.303374338501991174325462830955914,115.2,1.103374338501991174325462830955914
18,130.315037343734564999907836015741588,129.2,1.115037343734564999907836015741588
19,145.126057853552893370684868672082699,144.0,1.126057853552893370684868672082699
20,160.736503161288350445954484717620554,159.6,1.136503161288350445954484717620554
21,177.146430499861600418024238223750253,176.0,1.146430499861600418024238223750253
22,194.355888952941339344184855835122759,193.2,1.155888952941339344184855835122759
23,212.364920932880821088429283095703166,211.2,1.164920932880821088429283095703166
24,231.173563338118280470510161877425143,230.0,1.173563338118280470510161877425143
25,250.781848469972860430916596537571694,249.6,1.181848469972860430916596537571694
26,271.189804766452200394629020611063562,270.0,1.189804766452200394629020611063562
27,292.397457395215012599687292940307476,291.2,1.197457395215012599687292940307476
28,314.404828736930122336825302093264358,313.2,1.204828736930122336825302093264358
29,337.211938782478420217535683832679790,336.0,1.211938782478420217535683832679790
30,360.818805461794687013436115485976932,359.6,1.218805461794687013436115485976932
31,385.225444918000313106026753921852671,384.0,1.225444918000313106026753921852671
32,410.431871737400034998532398230782167,409.2,1.231871737400034998532398230782167
33,436.438099143606163535448069321852258,435.2,1.238099143606163535448069321852258
34,463.244139162303232207823435781273718,462.0,1.244139162303232207823435781273718
35,490.850002761826798855568397221701412,489.6,1.250002761826798855568397221701412
36,519.255699973696655198729484701148622,518.0,1.255699973696655198729484701148622
37,548.461239996440614080583246046675758,547.2,1.261239996440614080583246046675758
38,578.466631285414625561806998020626668,577.2,1.266631285414625561806998020626668
39,609.271881630827124355129468582733368,608.0,1.271881630827124355129468582733368
40,640.876998225779690306056290089546306,639.6,1.276998225779690306056290089546306
41,673.281987725819353351340065066191763,672.0,1.281987725819353351340065066191763
42,706.486856301242881785199507228748512,705.2,1.286856301242881785199507228748512
43,740.491609683186906318249809517801999,739.2,1.291609683186906318249809517801999
44,775.296253204369638398502251882233201,774.0,1.296253204369638398502251882233201
45,810.900791835212371694714560336724529,809.6,1.300791835212371694714560336724529
46,847.305230215955819359716552035509291,846.0,1.305230215955819359716552035509291
47,884.509572685292863078952548365717256,883.2,1.309572685292863078952548365717256
48,922.513823305961703545192854679032801,921.2,1.313823305961703545192854679032801
49,961.317985887678739456436043335571765,960.0,1.317985887678739456436043335571765
50,1000.92206400773637942034283619132940,999.6,1.32206400773637942034283619132940
51,1041.32606102954552418604728516257966,1040.0,1.32606102954552418604728516257966
52,1082.52998011936411140987238548482334,1081.2,1.32998011936411140987238548482334
53,1124.53382426142066504291557213601849,1123.2,1.33382426142066504291557213601849
54,1167.33759627161423029700037613329712,1166.0,1.33759627161423029700037613329712
55,1210.94129880994859965296746625674819,1209.6,1.34129880994859965296746625674819
56,1255.34493439183866080514398641329391,1254.0,1.34493439183866080514398641329391
57,1300.54850539840949847070304653226902,1299.2,1.34850539840949847070304653226902
58,1346.55201408589408480632811340658123,1345.2,1.35201408589408480632811340658123
59,1393.35546259422263922731559056174016,1392.0,1.35546259422263922731559056174016
60,1440.95885295488571391654242006512534,1439.6,1.35885295488571391654242006512534
61,1489.36218709814349708321654189941774,1488.0,1.36218709814349708321654189941774
62,1538.56546685964552502621133199022700,1537.2,1.36546685964552502621133199022700
63,1588.56869398651775216776131236551615,1587.2,1.36869398651775216776131236551615
64,1639.37187014296761574337185172454119,1638.0,1.37187014296761574337185172454119
65,1690.97499691545219699382083879774202,1689.6,1.37499691545219699382083879774202
66,1743.37807581744973336607383901244560,1742.0,1.37807581744973336607383901244560
67,1796.58110829387047393860710619134981,1795.2,1.38110829387047393860710619134981
68,1850.58409572513911412582275218580701,1849.2,1.38409572513911412582275218580701
69,1905.38703943097773304551255205963869,1904.0,1.38703943097773304551255205963869
70,1960.98994067391522866506118050104148,1959.6,1.38994067391522866506118050104148
71,2017.39280066254664713834858854802842,2016.0,1.39280066254664713834858854802842
72,2074.59562055456350450292951647491594,2073.2,1.39562055456350450292951647491594
73,2132.59840145957414590066495965552533,2131.2,1.39840145957414590066495965552533
74,2191.40114444173136863642624016184035,2190.0,1.40114444173136863642624016184035
75,2251.00385052218290428838945782569418,2249.6,1.40385052218290428838945782569418
76,2311.40652068135890552668178074486394,2310.0,1.40652068135890552668178074486394
77,2372.60915586110928089872308770927346,2371.2,1.40915586110928089872308770927346
78,2434.61175696670255504142575368409687,2433.2,1.41175696670255504142575368409687
79,2497.41432486869688496042281681217171,2496.0,1.41432486869688496042281681217171
80,2561.01686040469292489084996951514196,2559.6,1.41686040469292489084996951514196
81,2625.41936438097738291273049022743483,2624.0,1.41936438097738291273049022743483
82,2690.62183757406535104345807156773747,2689.2,1.42183757406535104345807156773747
83,2756.62428073214880179608293507690170,2755.2,1.42428073214880179608293507690170
84,2823.42669457645801990039049069318631,2822.0,1.42669457645801990039049069318631
85,2891.02907980254217860758798165307087,2889.6,1.42907980254217860758798165307087
86,2959.43143708147475413402502687003905,2958.0,1.43143708147475413402502687003905
87,3028.63376706098901432857459354267535,3027.2,1.43376706098901432857459354267535
88,3098.63607036654839427056470514935812,3097.2,1.43607036654839427056470514935812
89,3169.43834760235618800299010605879055,3168.0,1.43834760235618800299010605879055
90,3241.04059935230864238900359955058958,3239.6,1.44059935230864238900359955058958
91,3313.44282618089521762763657777090493,3312.0,1.44282618089521762763657777090493
92,3386.64502863404949066715867377271316,3385.2,1.44502863404949066715867377271316
93,3460.64720723995391549943150384521568,3459.2,1.44720723995391549943150384521568
94,3535.44936250980141138987303816210163,3534.0,1.44936250980141138987303816210163
95,3611.05149493851652894362058476732864,3609.6,1.45149493851652894362058476732864
96,3687.45360500543874208636379803990167,3686.0,1.45360500543874208636379803990167
97,3764.65569317497022969621005894170143,3763.2,1.45569317497022969621005894170143
98,3842.65775989719033774864956505876090,3841.2,1.45775989719033774864956505876090
99,3921.45980560843875936449904847255375,3920.0,1.45980560843875936449904847255375
100,4001.06183073186932381028661383989051,3999.6,1.46183073186932381028661383989051
101,4081.46383567797615619638644271676815,4080.0,1.46383567797615619638644271676815
102,4162.66582084509384404349083367281599,4161.2,1.46582084509384404349083367281599
103,4244.66778661987313897439438263057898,4243.2,1.46778661987313897439438263057898
104,4327.46973337773361452335560031208621,4326.0,1.46973337773361452335560031208621
105,4411.07166148329460798154349741936862,4409.6,1.47166148329460798154349741936862
106,4495.47357129078568343283404393127283,4494.0,1.47357129078568343283404393127283
107,4580.67546314443777505226594414932159,4579.2,1.47546314443777505226594414932159
108,4666.67733737885609049991102104446503,4665.2,1.47733737885609049991102104446503
109,4753.47919431937578564938076961422060,4752.0,1.47919431937578564938076961422060
110,4841.08103428240135947006555547038211,4839.6,1.48103428240135947006555547038211
111,4929.48285757573065202100488535405901,4928.0,1.48285757573065202100488535405901
112,5018.68466449886427908065412532004753,5017.2,1.48466449886427908065412532004753
113,5108.68645534330128140101884126095219,5107.2,1.48645534330128140101884126095219
114,5199.48823039282171781687236095676179,5198.0,1.48823039282171781687236095676179
115,5291.08998992375689099226942950636355,5289.6,1.48998992375689099226942950636355
116,5383.49173420524784625492137192945878,5382.0,1.49173420524784625492137192945878
117,5476.69346349949275225599128811008286,5475.2,1.49346349949275225599128811008286
118,5570.69517806198373116176291559377988,5569.2,1.49517806198373116176291559377988
119,5665.49687814173367236992050364236281,5664.0,1.49687814173367236992050364236281
120,5761.09856398149353790094274899013701,5759.6,1.49856398149353790094274899013701
121,5857.50023581796062934786963917435274,5856.0,1.50023581796062934786963917435274
122,5954.70189388197826735456866960727469,5953.2,1.50189388197826735456866960727469
123,6052.70353839872730239969542890072051,6051.2,1.50353839872730239969542890072051
124,6151.50516958790985798373489362434161,6150.0,1.50516958790985798373489362434161
125,6251.10678766392567775024758367615530,6249.6,1.50678766392567775024758367615530
126,6351.50839283604143287514685403188114,6350.0,1.50839283604143287514685403188114
127,6452.70998530855332547994809676374634,6451.2,1.50998530855332547994809676374634
128,6554.71156528094330123774085681640590,6553.2,1.51156528094330123774085681640590
129,6657.51313294802917226739735461248625,6656.0,1.51313294802917226739735461248625
130,6761.11468850010893302966356920008786,6759.6,1.51468850010893302966356920008786
131,6865.51623212309953653466202548223925,6864.0,1.51623212309953653466202548223925
132,6970.71776399867038319313467335503358,6969.2,1.51776399867038319313467335503358
133,7076.71928430437176286217026948982845,7075.2,1.51928430437176286217026948982845
134,7183.52079321375847936020323067527050,7182.0,1.52079321375847936020323067527050
135,7291.12229089650886861772817064146378,7289.6,1.52229089650886861772817064146378
136,7399.52377751853941794264404004277936,7398.0,1.52377751853941794264404004277936
137,7508.72525324211518057119985312555311,7507.2,1.52525324211518057119985312555311
138,7618.72671822595616606352269690852440,7617.2,1.52671822595616606352269690852440
139,7729.52817262533988499680396543691485,7728.0,1.52817262533988499680396543691485
140,7841.12961659220021096325214862152124,7839.6,1.52961659220021096325214862152124
141,7953.53105027522271832243039488217578,7952.0,1.53105027522271832243039488217578
142,8066.73247381993664608433146376297972,8065.2,1.53247381993664608433146376297972
143,8180.73388736880362964937269621488217,8179.2,1.53388736880362964937269621488217
144,8295.53529106130333495185813234330230,8294.0,1.53529106130333495185813234330230
145,8411.13668503401612536569559137519728,8409.6,1.53668503401612536569559137519728
146,8527.53806942070288386240657802634452,8526.0,1.53806942070288386240657802634452
147,8644.73944435238210470850122449549278,8643.2,1.53944435238210470850122449549278
148,8762.74080995740437003125734171524912,8761.2,1.54080995740437003125734171524912
149,8881.54216636152431305386968873571840,8880.0,1.54216636152431305386968873571840
150,9001.14351368797017164085764775154270,8999.6,1.54351368797017164085764775154270
151,9121.54485205751102806799803245100912,9120.0,1.54485205751102806799803245100912
152,9242.74618158852182531596371854038930,9241.2,1.54618158852182531596371854038930
153,9364.74750239704624883737414204688740,9363.2,1.54750239704624883737414204688740
154,9487.54881459685755769651147109784665,9486.0,1.54881459685755769651147109784665
155,9611.15011829951744331770731191097634,9609.6,1.55011829951744331770731191097634
156,9735.55141361443299370877594066339452,9734.0,1.55141361443299370877594066339452
157,9860.75270064891183420610891647556775,9859.2,1.55270064891183420610891647556775
158,9986.75397950821551655954622519684582,9985.2,1.55397950821551655954622519684582
159,10113.5552502956112200298698328544770,10112.0,1.5552502956112200298698328544770
160,10241.1565131124218308364718622745790,10239.6,1.5565131124218308364718622745790
161,10369.5577680580744584513305453904092,10368.0,1.5577680580744584513305453904092
162,10498.7590152301474482004086734913917,10497.2,1.5590152301474482004086734913917
163,10628.7602547244159450257871392965948,10627.2,1.5602547244159450257871392965948
164,10759.5614866348960630451437911452840,10758.0,1.5614866348960630451437911452840
165,10891.1627110538877095088101864314095,10889.6,1.5627110538877095088101864314095
166,11023.5639280720161136700101382800653,11022.0,1.5639280720161136700101382800653
167,11156.7651377782721078006166667971567,11155.2,1.5651377782721078006166667971567
168,11290.7663402600512030413582114579832,11289.2,1.5663402600512030413582114579832
169,11425.5675356031915051485816910734398,11424.0,1.5675356031915051485816910734398
170,11561.1687238920105098807079721137388,11559.6,1.5687238920105098807079721137388
171,11697.5699052093408182188588826737777,11696.0,1.5699052093408182188588826737777
172,11834.7710796365648092883343714288987,11833.2,1.5710796365648092883343714288987
173,11972.7722472536483063832910147125565,11971.2,1.5722472536483063832910147125565
174,12111.5734081391732719381582117557283,12110.0,1.5734081391732719381582117557283
175,12251.1745623703695654307465544703452,12249.6,1.5745623703695654307465544703452
176,12391.5757100231457939234249854063223,12390.0,1.5757100231457939234249854063223
177,12532.7768511721192885029282986157043,12531.2,1.5768511721192885029282986157043
178,12674.7779858906452357732152542731653,12673.2,1.5779858906452357732152542731653
179,12817.5791142508449908463495521847830,12816.0,1.5791142508449908463495521847830
180,12961.1802363236336027778288038287445,12959.6,1.5802363236336027778288038287445
181,13105.5813521787465750949747732963331,13104.0,1.5813521787465750949747732963331
182,13250.7824618847658891137982702677549,13249.2,1.5824618847658891137982702677549
183,13396.7835655091453130936422222553328,13395.2,1.5835655091453130936422222553328
184,13543.5846631182350214711682963586296,13542.0,1.5846631182350214711682963586296
185,13691.1857547773055459818420322530283,13689.6,1.5857547773055459818420322530283
186,13839.5868405505710796375656162353000,13838.0,1.5868405505710796375656162353000
187,13988.7879205012121573609904856428213,13987.2,1.5879205012121573609904856428213
188,14138.7889946913977287128557177948155,14137.2,1.5889946913977287128557177948155
189,14289.5900631823066464434750212799070,14288.0,1.5900631823066464434750212799070
190,14441.1911260341485865194817196484754,14439.6,1.5911260341485865194817196484754
191,14593.5921833061844188484166604067373,14592.0,1.5921833061844188484166604067373
192,14746.7932350567460450833949395438612,14745.2,1.5932350567460450833949395438612
193,14900.7942813432557218117331350632959,14899.2,1.5942813432557218117331350632959
194,15055.5953222222448824683531427142903,15054.0,1.5953222222448824683531427142903
195,15211.1963577493724759063574031804485,15209.6,1.5963577493724759063574031804485
196,15367.5973879794428353167088906352693,15366.0,1.5973879794428353167088906352693
197,15524.7984129664230918723739295613949,15523.2,1.5984129664230918723739295613949
198,15682.7994327634601472589430299353374,15681.2,1.5994327634601472589430299353374
199,15841.6004474228972179256216630809531,15840.0,1.6004474228972179256216630809531
200,16001.2014569962899649968288480930866,15999.6,1.6014569962899649968288480930866
201,16161.6024615344222208208598720440113,16160.0,1.6024615344222208208598720440113
202,16322.8034610873213255318062489132025,16321.2,1.6034610873213255318062489132025
203,16484.8044557042730842794930913365192,16483.2,1.6044557042730842794930913365192
204,16647.6054454338363567423799700130947,16646.0,1.6054454338363567423799700130947
205,16811.2064303238572888888187017443184,16809.6,1.6064303238572888888187017443184
206,16975.6074104214832000054515988193112,16974.0,1.6074104214832000054515988193112
207,17140.8083857731761308634607231718313,17139.2,1.6083857731761308634607231718313
208,17306.8093564247260672441606357243695,17305.2,1.6093564247260672441606357243695
209,17473.6103224212638445668514012289063,17472.0,1.6103224212638445668514012289063
210,17641.2112838072737451146213730086243,17639.6,1.6112838072737451146213730086243
211,17809.6122406266057952171472101433229,17808.0,1.6122406266057952171472101433229
212,17978.8131929224877726177078584955125,17977.2,1.6131929224877726177078584955125
213,18148.8141407375369284023948087582996,18147.2,1.6141407375369284023948087582996
214,18319.6150841137714384672978539576490,18318.0,1.6150841137714384672978539576490
215,18491.2160230926215837299902157663670,18489.6,1.6160230926215837299902157663670
216,18663.6169577149406730398629257696867,18662.0,1.6169577149406730398629257696867
217,18836.8178880210157127464443514857499,18835.2,1.6178880210157127464443514857499
218,19010.8188140505778318982510369404082,19009.2,1.6188140505778318982510369404082
219,19185.6197358428124663452043343527483,19184.0,1.6197358428124663452043343527483
220,19361.2206534363693142528380150844027,19359.6,1.6206534363693142528380150844027
221,19537.6215668693720609306887277524144,19536.0,1.6215668693720609306887277524144
222,19714.8224761794278901723367135522443,19713.2,1.6224761794278901723367135522443
223,19892.8233814036367756680323115903895,19891.2,1.6233814036367756680323115903895
224,20071.6242825786005675493120226880287,20070.0,1.6242825786005675493120226880287
225,20251.2251797404318766222550751175052,20249.6,1.6251797404318766222550751175052
226,20431.6260729247627598274303124996666,20430.0,1.6260729247627598274303124996666
227,20612.8269621667532155694907389376822,20611.2,1.6269621667532155694907389376822
228,20794.8278475010994907267298386634667,20793.2,1.6278475010994907267298386634667
229,20977.6287289620422064928574064645650,20976.0,1.6287289620422064928574064645650
230,21161.2296065833743077373480270221100,21159.6,1.6296065833743077373480270221100
231,21345.6304803984488376737455864998625,21344.0,1.6304803984488376737455864998625
232,21530.8313504401865482449570508331274,21529.2,1.6313504401865482449570508331274
233,21716.8322167410833412111553148050604,21715.2,1.6322167410833412111553148050604
234,21903.6330793332175560864757988758837,21902.0,1.6330793332175560864757988758837
235,22091.2339382482570980957250855039181,22089.6,1.6339382482570980957250855039181
236,22279.6347935174664158499925220960932,22278.0,1.6347935174664158499925220960932
237,22468.8356451717133323614156909717214,22467.2,1.6356451717133323614156909717214
238,22658.8364932414757311282366004718533,22657.2,1.6364932414757311282366004718533
