Eigenstate,Energy,Kinetic Energy,Potential Energy
1,0.500000000042960613348995855001903854,0.0,0.500000000042960613348995855001903854
2,1.84623093793153914511878099793874751,1.2,0.64623093793153914511878099793874751
3,3.93633761052870002856911498532818108,3.2,0.73633761052870002856911498532818108
4,6.79966527952996274376026538403650923,6.0,0.79966527952996274376026538403650923
5,10.4480465782576710552345750440746476,9.6,0.8480465782576710552345750440746476
6,14.8870660014691405179184815373421563,14.0,0.8870660014691405179184815373421563
7,20.1197208306037852487557668271416746,19.2,0.9197208306037852487557668271416746
8,26.1477838520392127990856219820119345,25.2,0.9477838520392127990856219820119345
9,32.9723835647820934908364793007224692,32.0,0.9723835647820934908364793007224692
10,40.5942802229812522982541798477434701,39.6,0.9942802229812522982541798477434701
11,49.0140093967779057873812859366226413,48.0,1.0140093967779057873812859366226413
12,58.2319621814768181183329467043252135,57.2,1.0319621814768181183329467043252135
13,68.2484327071439061111787143464895309,67.2,1.0484327071439061111787143464895309
14,79.0636476714624084096257075630790015,78.0,1.0636476714624084096257075630790015
15,90.6777854555470749720057614506426717,89.6,1.0777854555470749720057614506426717
16,103.090988928814615096735564232803401,102.0,1.090988928814615096735564232803401
17,116.303374282445203782790323288752041,115.2,1.103374282445203782790323288752041
18,130.315037280388682638231235138409429,129.2,1.115037280388682638231235138409429
19,145.126057782468538561127219984279930,144.0,1.126057782468538561127219984279930
20,160.736503082015840977826260614177479,159.6,1.136503082015840977826260614177479
21,177.146430411950939624126432874326450,176.0,1.146430411950939624126432874326450
22,194.355888855942205140359724304918870,193.2,1.155888855942205140359724304918870
23,212.364920826342554084449041486829976,211.2,1.164920826342554084449041486829976
24,231.173563221589871371562598836945208,230.0,1.173563221589871371562598836945208
25,250.781848343002936888247183177072195,249.6,1.181848343002936888247183177072195
26,271.189804628589013421716240186373272,270.0,1.189804628589013421716240186373272
27,292.397457246006422640515358056736934,291.2,1.197457246006422640515358056736934
28,314.404828575923585051421167919600231,313.2,1.204828575923585051421167919600231
29,337.211938609220972034360602495380294,336.0,1.211938609220972034360602495380294
30,360.818805275832930486733311100693014,359.6,1.218805275832930486733311100693014
31,385.225444718880402107650073847082370,384.0,1.225444718880402107650073847082370
32,410.431871524667659767305717143026217,409.2,1.231871524667659767305717143026217
33,436.438098916806535602165414170339744,435.2,1.238098916806535602165414170339744
34,463.244138920981069210194351705175279,462.0,1.244138920981069210194351705175279
35,490.850002505526309254454619534617389,489.6,1.250002505526309254454619534617389
36,519.255699701961522904699303610624526,518.0,1.255699701961522904699303610624526
37,548.461239708813982997976285052158962,547.2,1.261239708813982997976285052158962
38,578.466630981439084056041794628241618,577.2,1.266630981439084056041794628241618
39,609.271881310044689647814695993158783,608.0,1.271881310044689647814695993158783
40,640.876997887731792801520225252331016,639.6,1.276997887731792801520225252331016
41,673.281987370046820897423716449243012,672.0,1.281987370046820897423716449243012
42,706.486855927285923870529610858055408,705.2,1.286855927285923870529610858055408
43,740.491609290585098207690112465336049,739.2,1.291609290585098207690112465336049
44,775.296252792661905208053091490066646,774.0,1.296252792661905208053091490066646
45,810.900791403936972406774241785876562,809.6,1.300791403936972406774241785876562
46,847.305229764650330779319632007014915,846.0,1.305229764650330779319632007014915
47,884.509572213494163731349492018796099,883.2,1.309572213494163731349492018796099
48,922.513822813205957514923369098186246,921.2,1.313822813205957514923369098186246
49,961.317985373501380167868343597355855,960.0,1.317985373501380167868343597355855
50,1000.92206347167209335949743248180457,999.6,1.32206347167209335949743248180457
51,1041.32606047112823456339185294019920,1040.0,1.32606047112823456339185294019920
52,1082.52997953812696176366065136882235,1081.2,1.32997953812696176366065136882235
53,1124.53382365689600278254464766323916,1123.2,1.33382365689600278254464766323916
54,1167.33759564333359018577514122970521,1166.0,1.33759564333359018577514122970521
55,1210.94129815744268722958560081510317,1209.6,1.34129815744268722958560081510317
56,1255.34493371463733574314921250489157,1254.0,1.34493371463733574314921250489157
57,1300.54850469604175787509590234637533,1299.2,1.34850469604175787509590234637533
58,1346.55201335788804644647150808773294,1345.2,1.35201335788804644647150808773294
59,1393.35546184010552470522634700829982,1392.0,1.35546184010552470522634700829982
60,1440.95885217418383176961824393513197,1439.6,1.35885217418383176961824393513197
61,1489.36218629038222582041035684839491,1488.0,1.36218629038222582041035684839491
62,1538.56546602434929609663072551878851,1537.2,1.36546602434929609663072551878851
63,1588.56869312321003286063975133849573,1587.2,1.36869312321003286063975133849573
64,1639.37186925117089201832976475081605,1638.0,1.37186925117089201832976475081605
65,1690.97499599468795624030802747462019,1689.6,1.37499599468795624030802747462019
66,1743.37807486723844709086033290407235,1742.0,1.37807486723844709086033290407235
67,1796.58110731373158038016654362250199,1795.2,1.38110731373158038016654362250199
68,1850.58409471459100079443086855442145,1849.2,1.38409471459100079443086855442145
69,1905.38703838953771918786286136856611,1904.0,1.38703838953771918786286136856611
70,1960.98993960109954765218092176261681,1959.6,1.38993960109954765218092176261681
71,2017.39279955787042877557920655343604,2016.0,1.39279955787042877557920655343604
72,2074.59561941754075726071862547570609,2073.2,1.39561941754075726071862547570609
73,2132.59840028971773906489940227253194,2131.2,1.39840028971773906489940227253194
74,2191.40114323855301437701962707621464,2190.0,1.40114323855301437701962707621464
75,2251.00384928519313964482131637027998,2249.6,1.40384928519313964482131637027998
76,2311.40651941006707430917009102772739,2310.0,1.40651941006707430917009102772739
77,2372.60915455502351550369650744917729,2371.2,1.40915455502351550369650744917729
78,2434.61175562532975817994681623977916,2433.2,1.41175562532975817994681623977916
79,2497.41432349154271129819860548151901,2496.0,1.41432349154271129819860548151901
80,2561.01685899126176259845225093504347,2559.6,1.41685899126176259845225093504347
81,2625.41936293077233512463257082942915,2624.0,1.41936293077233512463257082942915
82,2690.62183608658821722448137829634278,2689.2,1.42183608658821722448137829634278
83,2756.62427920690005901383197558865048,2755.2,1.42427920690005901383197558865048
84,2823.42669301293680400224047592527862,2822.0,1.42669301293680400224047592527862
85,2891.02907820024626530077510066486667,2889.6,1.42907820024626530077510066486667
86,2959.43143543990053996737517904592480,2958.0,1.43143543990053996737517904592480
87,3028.63376537963149757439181502077252,3027.2,1.43376537963149757439181502077252
88,3098.63606864490115570518630035879053,3097.2,1.43606864490115570518630035879053
89,3169.43834583991137158450091503124262,3168.0,1.43834583991137158450091503124262
90,3241.04059754855693583058740275603109,3239.6,1.44059754855693583058740275603109
91,3313.44282433532583286502777617973341,3312.0,1.44282433532583286502777617973341
92,3386.64502674615014421864281128481619,3385.2,1.44502674615014421864281128481619
93,3460.64720530921080871682809719683710,3459.2,1.44720530921080871682809719683710
94,3535.44936053569921059891927949582324,3534.0,1.44936053569921059891927949582324
95,3611.05149292053834547215917491286872,3609.6,1.45149292053834547215917491286872
96,3687.45360294306611217872290428650161,3686.0,1.45360294306611217872290428650161
97,3764.65569106768309431214775751884778,3763.2,1.45569106768309431214775751884778
98,3842.65775774446702224521952102306678,3841.2,1.45775774446702224521952102306678
99,3921.45980340975595305917817190436154,3920.0,1.45980340975595305917817190436154
100,4001.06182848670205942368948768660109,3999.6,1.46182848670205942368948768660109
101,4081.46383338579778917287485692706754,4080.0,1.46383338579778917287485692706754
102,4162.66581850537603174797036633006982,4161.2,1.46581850537603174797036633006982
103,4244.66778423208581976357334185903601,4243.2,1.46778423208581976357334185903601
104,4327.46973094134498668972436210060477,4326.0,1.46973094134498668972436210060477
105,4411.07165899777110856831544443699112,4409.6,1.47165899777110856831544443699112
106,4495.47356875559196691807177582861335,4494.0,1.47356875559196691807177582861335
107,4580.67546055903669190039878047489730,4579.2,1.47546055903669190039878047489730
108,4666.67733474270866557883189116321560,4665.2,1.47733474270866557883189116321560
109,4753.47919163194119651129244792217184,4752.0,1.47919163194119651129244792217184
110,4841.08103154313691449422782071808075,4839.6,1.48103154313691449422782071808075
111,4929.48285478409176841651555558821446,4928.0,1.48285478409176841651555558821446
112,5018.68466165430446074737781368080596,5017.2,1.48466165430446074737781368080596
113,5108.68645244527209664675823402614286,5107.2,1.48645244527209664675823402614286
114,5199.48822744077277692885718448412989,5198.0,1.48822744077277692885718448412989
115,5291.08998691713582366101862222112057,5289.6,1.48998691713582366101862222112057
116,5383.49173114350027884851373453770380,5382.0,1.49173114350027884851373453770380
117,5476.69346038206228494275969723508042,5475.2,1.49346038206228494275969723508042
118,5570.69517488831191487940632412842362,5569.2,1.49517488831191487940632412842362
119,5665.49687491125998563900715099915706,5664.0,1.49687491125998563900715099915706
120,5761.09856069365536348075657333094384,5759.6,1.49856069365536348075657333094384
121,5857.50023247219323073253027906993558,5856.0,1.50023247219323073253027906993558
122,5954.70189047771476510733359628920756,5953.2,1.50189047771476510733359628920756
123,6052.70353493539865032333039673451686,6051.2,1.50353493539865032333039673451686
124,6151.50516606494481912481643133481539,6150.0,1.50516606494481912481643133481539
125,6251.10678408075080023523803381619029,6249.6,1.50678408075080023523803381619029
126,6351.50838919208102557605949423546607,6350.0,1.50838919208102557605949423546607
127,6452.70998160322943350739604423245066,6451.2,1.50998160322943350739604423245066
128,6554.71156151367568125913959868080505,6553.2,1.51156151367568125913959868080505
129,6657.51312911823526764806618593825456,6656.0,1.51312911823526764806618593825456
130,6761.11468460720384879454684372362192,6759.6,1.51468460720384879454684372362192
131,6865.51622816649601414836562575625890,6864.0,1.51622816649601414836562575625890
132,6970.71775997777877515594787879687116,6969.2,1.51775997777877515594787879687116
133,7076.71928021860000711971738916730445,7075.2,1.51928021860000711971738916730445
134,7183.52078906251207352434289586120478,7182.0,1.52078906251207352434289586120478
135,7291.12228667919084399629161105775995,7289.6,1.52228667919084399629161105775995
136,7399.52377323455031337557686861580195,7398.0,1.52377323455031337557686861580195
137,7508.72524889085301607064401795853957,7507.2,1.52524889085301607064401795853957
138,7618.72671380681641625534753085583335,7617.2,1.52671380681641625534753085583335
139,7729.52816813771545236106712994014429,7728.0,1.52816813771545236106712994014429
140,7841.12961203548139887104220570861170,7839.6,1.52961203548139887104220570861170
141,7953.53104564879720386651398859193226,7952.0,1.53104564879720386651398859193226
142,8066.73246912318945270099796174156921,8065.2,1.53246912318945270099796174156921
143,8180.73388260111709952883953305095350,8179.2,1.53388260111709952883953305095350
144,8295.53528622205710123456931497343709,8294.0,1.53528622205710123456931497343709
145,8411.13668012258708412181488400380624,8409.6,1.53668012258708412181488400380624
146,8527.53806443646516585177545819835730,8526.0,1.53806443646516585177545819835730
147,8644.73943929470704691829963534365670,8643.2,1.53943929470704691829963534365670
148,8762.74080482566048698857308612967493,8761.2,1.54080482566048698857308612967493
149,8881.54216115507726791034900419723013,8880.0,1.54216115507726791034900419723013
150,9001.14350840618274702657656348011552,8999.6,1.54350840618274702657656348011552
151,9121.54484669974309671165957379673700,9120.0,1.54484669974309671165957379673700
152,9242.74617615413032042849204815432070,9241.2,1.54617615413032042849204815432070
153,9364.74749688538513425594151471069435,9363.2,1.54749688538513425594151471069435
154,9487.54880900727779778599833189804854,9486.0,1.54880900727779778599833189804854
155,9611.15011263136697262656002978065991,9609.6,1.55011263136697262656002978065991
156,9735.55140786705668637618949376362447,9734.0,1.55140786705668637618949376362447
157,9860.75269482165147311742543926000286,9859.2,1.55269482165147311742543926000286
158,9986.75397360040976224672175110038197,9985.2,1.55397360040976224672175110038197
159,10113.5552443065955793138239783825836,10112.0,1.5552443065955793138239783825836
160,10241.1565070415286252080956239903438,10239.6,1.5565070415286252080956239903438
161,10369.5577619046327921878881693934915,10368.0,1.5577619046327921878881693934915
162,10498.7590089934831762140293239730698,10497.2,1.5590089934831762140293239730698
163,10628.7602484038516404407015926801819,10627.2,1.5602484038516404407015926801819
164,10759.5614802297509845002795254559248,10758.0,1.5614802297509845002795254559248
165,10891.1627045634777681823163137994005,10889.6,1.5627045634777681823163137994005
166,11023.5639214956538400222413756106835,11022.0,1.5639214956538400222413756106835
167,11156.7651311152666180320617598114409,11155.2,1.5651311152666180320617598114409
168,11290.7663335097081652619540417587970,11289.2,1.5663335097081652619540417587970
169,11425.5675287648131052548103179230294,11424.0,1.5675287648131052548103179230294
170,11561.1687169648954171368276347741656,11559.6,1.5687169648954171368276347741656
171,11697.5698981927841505385743552264666,11696.0,1.5698981927841505385743552264666
172,11834.7710725298580982131652123435071,11833.2,1.5710725298580982131652123435071
173,11972.7722400560794617538486819433591,11971.2,1.5722400560794617538486819433591
174,12111.5734008500265462544943062524299,12110.0,1.5734008500265462544943062524299
175,12251.1745549889255178978861406477360,12249.6,1.5745549889255178978861406477360
176,12391.5757025486812541781485935084788,12390.0,1.5757025486812541781485935084788
177,12532.7768436039073200178155287644277,12531.2,1.5768436039073200178155287644277
178,12674.7779782279550989339121497982894,12673.2,1.5779782279550989339121497982894
179,12817.5791064929421056979690320114371,12816.0,1.5791064929421056979690320114371
180,12961.1802284697795114363405334019610,12959.6,1.5802284697795114363405334019610
181,13105.5813442281989038193873001934598,13104.0,1.5813442281989038193873001934598
182,13250.7824538367783100348815219183347,13249.2,1.5824538367783100348815219183347
183,13396.7835573629675055948825928318244,13395.2,1.5835573629675055948825928318244
184,13543.5846548731126332175923588173085,13542.0,1.5846548731126332175923588173085
185,13691.1857464324801535922870122343146,13689.6,1.5857464324801535922870122343146
186,13839.5868321052801489959179312203147,13838.0,1.5868321052801489959179312203147
187,13988.7879119546890035618525672694333,13987.2,1.5879119546890035618525672694333
188,14138.7889860428714756370427832593417,14137.2,1.5889860428714756370427832593417
189,14289.5900544310021859586815621672679,14288.0,1.5900544310021859586815621672679
190,14441.1911171792865373013958441309918,14439.6,1.5911171792865373013958441309918
191,14593.5921743469810848174970345845973,14592.0,1.5921743469810848174970345845973
192,14746.7932259924133734524612671747185,14745.2,1.5932259924133734524612671747185
193,14900.7942721730012607394559612237066,14899.2,1.5942721730012607394559612237066
194,15055.5953129452717383136632193646432,15054.0,1.5953129452717383136632193646432
195,15211.1963483648792700787262537786794,15209.6,1.5963483648792700787262537786794
196,15367.5973784866236607171857477845148,15366.0,1.5973784866236607171857477845148
197,15524.7984033644674689201936403792891,15523.2,1.5984033644674689201936403792891
198,15682.7994230515529794984495861948519,15681.2,1.5994230515529794984495861948519
199,15841.6004376002187472081801818858569,15840.0,1.6004376002187472081801818858569
200,16001.2014470620157262323261354900344,15999.6,1.6014470620157262323261354900344
201,16161.6024514877229962933204155075276,16160.0,1.6024514877229962933204155075276
202,16322.8034509273630987735737109001407,16321.2,1.6034509273630987735737109001407
203,16484.8044454302169934983531442049308,16483.2,1.6044454302169934983531442049308
204,16647.6054350448386477959208265532953,16646.0,1.6054350448386477959208265532953
205,16811.2064198190692678002484300461088,16809.6,1.6064198190692678002484300461088
206,16975.6073998000511850150098784885724,16974.0,1.6073998000511850150098784885724
207,17140.8083750342414040094819091005892,17139.2,1.6083750342414040094819091005892
208,17306.8093455674248254677623685961434,17305.2,1.6093455674248254677623685961434
209,17473.6103114447271503341383092237412,17472.0,1.6103114447271503341383092237412
210,17641.2112727106274765502081007028461,17639.6,1.6112727106274765502081007028461
211,17809.6122294089705957427187132674169,17808.0,1.6122294089705957427187132674169
212,17978.8131815829790000892454154243718,17977.2,1.6131815829790000892454154243718
213,18148.8141292752646037396069903164427,18147.2,1.6141292752646037396069903164427
214,18319.6150725278401937687048404487290,18318.0,1.6150725278401937687048404487290
215,18491.2160113821306098670162307731359,18489.6,1.6160113821306098670162307731359
216,18663.6169458789836667231972307380175,18662.0,1.6169458789836667231972307380175
217,18836.8178760586808230578360930398929,18835.2,1.6178760586808230578360930398929
218,19010.8188019609476062808053610067704,19009.2,1.6188019609476062808053610067704
219,19185.6197236249637960451471503377343,19184.0,1.6197236249637960451471503377343
220,19361.2206410893733792056175022229774,19359.6,1.6206410893733792056175022229774
221,19537.6215543922942740841780954604227,19536.0,1.6215543922942740841780954604227
222,19714.8224635713278412397990137236128,19713.2,1.6224635713278412397990137236128
223,19892.8233686635681743034017476464560,19891.2,1.6233686635681743034017476464560
224,20071.6242697056111859372391824062656,20070.0,1.6242697056111859372391824062656
225,20251.2251667335634914752529125102180,20249.6,1.6251667335634914752529125102180
226,20431.6260597830510937823471246531415,20430.0,1.6260597830510937823471246531415
227,20612.8269488892278779754231344939958,20611.2,1.6269488892278779754231344939958
228,20794.8278340867839178163726989464597,20793.2,1.6278340867839178163726989464597
229,20977.6287154099536009291712303467951,20976.0,1.6287154099536009291712303467951
230,21161.2295928925235775273052189392204,21159.6,1.6295928925235775273052189392204
231,21345.6304665678405344407952680488903,21344.0,1.6304665678405344407952680488903
232,21530.8313364688188048517249930502322,21529.2,1.6313364688188048517249930502322
233,21716.8322026279478087237708510341944,21715.2,1.6322026279478087237708510341944
234,21903.6330650772993400717888083471535,21902.0,1.6330650772993400717888083471535
235,22091.2339238485346942425476490604021,22089.6,1.6339238485346942425476490604021
236,22279.6347789729116449053673082223767,22278.0,1.6347789729116449053673082223767
237,22468.8356304812912743727789801895623,22467.2,1.6356304812912743727789801895623
238,22658.8364784041446589822073432354113,22657.2,1.6364784041446589822073432354113
