Eigenstate,Energy,Kinetic Energy,Potential Energy
1,0.500000000016419109679135677373218237,0.0,0.500000000016419109679135677373218237
2,1.84623093775828997199575122457061152,1.2,0.64623093775828997199575122457061152
3,3.93633761001979424757797601140560976,3.2,0.73633761001979424757797601140560976
4,6.79966527846996921349519602790455364,6.0,0.79966527846996921349519602790455364
5,10.4480465764215433662520756492849907,9.6,0.8480465764215433662520756492849907
6,14.8870659986278924279161821229003875,14.0,0.8870659986278924279161821229003875
7,20.1197208265265819860549531374164310,19.2,0.9197208265265819860549531374164310
8,26.1477838464942433804227790245332173,25.2,0.9477838464942433804227790245332173
9,32.9723835575369764949181166968833224,32.0,0.9723835575369764949181166968833224
10,40.5942802138032419473014045765651065,39.6,0.9942802138032419473014045765651065
11,49.0140093854340040227722225864606406,48.0,1.0140093854340040227722225864606406
12,58.2319621677338387722367275748260919,57.2,1.0319621677338387722367275748260919
13,68.2484326907685129990366082352113553,67.2,1.0484326907685129990366082352113553
14,79.0636476522211384140025883995315205,78.0,1.0636476522211384140025883995315205
15,90.6777854332063520719754292701859339,89.6,1.0777854332063520719754292701859339
16,103.090988903140758709641347952466433,102.0,1.090988903140758709641347952466433
17,116.303374253204433406210598636563531,115.2,1.103374253204433406210598636563531
18,130.315037247347120010690178523210390,129.2,1.115037247347120010690178523210390
19,145.126057745392208113487883635930966,144.0,1.126057745392208113487883635930966
20,160.736503040670669078772983868292801,159.6,1.136503040670669078772983868292801
21,177.146430366102752956584631698254258,176.0,1.146430366102752956584631698254258
22,194.355888805356728439486894527163499,193.2,1.155888805356728439486894527163499
23,212.364920770785407398393807632648491,211.2,1.164920770785407398393807632648491
24,231.173563160826566959766565388571801,230.0,1.173563160826566959766565388571801
25,250.781848276798875840393226470471544,249.6,1.181848276798875840393226470471544
26,271.189804556709482058417619015603080,270.0,1.189804556709482058417619015603080
27,292.397457168216588741285574900114147,291.2,1.197457168216588741285574900114147
28,314.404828491988493944301146656185657,313.2,1.204828491988493944301146656185657
29,337.211938518905542573453552699291102,336.0,1.211938518905542573453552699291102
30,360.818805178901950937904574895774776,359.6,1.218805178901950937904574895774776
31,385.225444615098525958175625447120882,384.0,1.225444615098525958175625447120882
32,410.431871413799401471876029264712296,409.2,1.231871413799401471876029264712296
33,436.438098798616266275075544972961000,435.2,1.238098798616266275075544972961000
34,463.244138795233012271567216300224116,462.0,1.244138795233012271567216300224116
35,490.850002371984536036802483256183611,489.6,1.250002371984536036802483256183611
36,519.255699560389948224919971092260521,518.0,1.255699560389948224919971092260521
37,548.461239558976360698925539802690317,547.2,1.261239558976360698925539802690317
38,578.466630823099002521063541735227288,577.2,1.266630823099002521063541735227288
39,609.271881142965567291000951656177181,608.0,1.271881142965567291000951656177181
40,640.876997711676873535981319359269649,639.6,1.276997711676873535981319359269649
41,673.281987184779169583449818794584297,672.0,1.281987184779169583449818794584297
42,706.486855732568421745198446764949027,705.2,1.286855732568421745198446764949027
43,740.491609086180438297207734790308863,739.2,1.291609086180438297207734790308863
44,775.296252578332587723893256453549237,774.0,1.296252578332587723893256453549237
45,810.900791179445300126498153965357405,809.6,1.300791179445300126498153965357405
46,847.305229529758404412804500612818381,846.0,1.305229529758404412804500612818381
47,884.509571967963877273025881502182463,883.2,1.309571967963877273025881502182463
48,922.513822556798993582513101617367111,921.2,1.313822556798993582513101617367111
49,961.317985105979205328023275194429791,960.0,1.317985105979205328023275194429791
50,1000.92206319279595344066176176770212,999.6,1.32206319279595344066176176770212
51,1041.32606018065914995614438664082505,1040.0,1.32606018065914995614438664082505
52,1082.52997923582572270873682929775783,1081.2,1.32997923582572270873682929775783
53,1124.53382334252316464668948364745392,1123.2,1.33382334252316464668948364745392
54,1167.33759531664946872553625348447901,1166.0,1.33759531664946872553625348447901
55,1210.94129781820735384311924822325988,1209.6,1.34129781820735384311924822325988
56,1255.34493336261061271008072919237957,1254.0,1.34493336261061271008072919237957
57,1300.54850433098321358444853198789262,1299.2,1.34850433098321358444853198789262
58,1346.55201297955699061265355571238762,1345.2,1.35201297955699061265355571238762
59,1393.35546144826100357204564840043035,1392.0,1.35546144826100357204564840043035
60,1440.95885176858462330227437900402867,1439.6,1.35885176858462330227437900402867
61,1489.36218587078683488539874475494416,1488.0,1.36218587078683488539874475494416
62,1538.56546559051594962947821476560214,1537.2,1.36546559051594962947821476560214
63,1588.56869267489667502137852657289957,1587.2,1.36869267489667502137852657289957
64,1639.37186878813517933460495333536051,1638.0,1.37186878813517933460495333536051
65,1690.97499551668725273800407763037972,1689.6,1.37499551668725273800407763037972
66,1743.37807437402981941212209984332202,1742.0,1.37807437402981941212209984332202
67,1796.58110680507179288868275597572285,1795.2,1.38110680507179288868275597572285
68,1850.58409419023651066784015646743965,1849.2,1.38409419023651066784015646743965
69,1905.38703784924467149713570188507960,1904.0,1.38703784924467149713570188507960
70,1960.98993904462377042782487097584148,1959.6,1.38993904462377042782487097584148
71,2017.39279898496742806050891962519853,2016.0,1.39279898496742806050891962519853
72,2074.59561882796571214962727084060725,2073.2,1.39561882796571214962727084060725
73,2132.59839968322549672996314860623697,2131.2,1.39839968322549672996314860623697
74,2191.40114261489808507976262948333551,2190.0,1.40114261489808507976262948333551
75,2251.00384864412969173396452031400534,2249.6,1.40384864412969173396452031400534
76,2311.40651875134892920428347019619445,2310.0,1.40651875134892920428347019619445
77,2372.60915387840414266447082213995420,2371.2,1.40915387840414266447082213995420
78,2434.61175493056227006089768360727612,2433.2,1.41175493056227006089768360727612
79,2497.41432277837985828861257891055548,2496.0,1.41432277837985828861257891055548
80,2561.01685825945592794738177821109309,2559.6,1.41685825945592794738177821109309
81,2625.41936218007552985074383047954589,2624.0,1.41936218007552985074383047954589
82,2690.62183531675207501055644907081484,2689.2,1.42183531675207501055644907081484
83,2756.62427841767583108572429213983398,2755.2,1.42427841767583108572429213983398
84,2823.42669220407535399208011438146593,2822.0,1.42669220407535399208011438146593
85,2891.02907737149806409421813439872942,2889.6,1.42907737149806409421813439872942
86,2959.43143459101566053468920424964338,2958.0,1.43143459101566053468920424964338
87,3028.63376451035960978516750756950441,3027.2,1.43376451035960978516750756950441
88,3098.63606775499152112646286937849982,3097.2,1.43606775499152112646286937849982
89,3169.43834492911283826209128272508124,3168.0,1.43834492911283826209128272508124
90,3241.04059661661793305338699805842662,3239.6,1.44059661661793305338699805842662
91,3313.44282338199436591208885306536486,3312.0,1.44282338199436591208885306536486
92,3386.64502577117378908879440525653241,3385.2,1.44502577117378908879440525653241
93,3460.64720431233670684061982365876995,3459.2,1.44720431233670684061982365876995
94,3535.44935951667406353266538158835535,3534.0,1.44935951667406353266538158835535
95,3611.05149187910840957385741845593326,3609.6,1.45149187910840957385741845593326
96,3687.45360187897719326562120484885109,3686.0,1.45360187897719326562120484885109
97,3764.65568998068054229972954271887783,3763.2,1.45568998068054229972954271887783
98,3842.65775663429572576737725691028522,3841.2,1.45775663429572576737725691028522
99,3921.45980227616033406934256663421808,3920.0,1.45980227616033406934256663421808
100,4001.06182732942606777668032120390949,3999.6,1.46182732942606777668032120390949
101,4081.46383220458489718723755134524510,4080.0,1.46383220458489718723755134524510
102,4162.66581729996922874856075012583475,4161.2,1.46581729996922874856075012583475
103,4244.66778300222760660415140916461272,4243.2,1.46778300222760660415140916461272
104,4327.46972968677737025531591200278961,4326.0,1.46972968677737025531591200278961
105,4411.07165771823559625709901060613697,4409.6,1.47165771823559625709901060613697
106,4495.47356745082956110254638822286847,4494.0,1.47356745082956110254638822286847
107,4580.67545922878788436758640240540394,4579.2,1.47545922878788436758640240540394
108,4666.67733338671343194926671898246082,4665.2,1.47733338671343194926671898246082
109,4753.47919024993899063654737788987404,4752.0,1.47919024993899063654737788987404
110,4841.08103013486666283272678735685171,4839.6,1.48103013486666283272678735685171
111,4929.48285334929186438737860945454729,4928.0,1.48285334929186438737860945454729
112,5018.68466019271275906204403622690952,5017.2,1.48466019271275906204403622690952
113,5108.68645095662590761812986170702982,5107.2,1.48645095662590761812986170702982
114,5199.48822592480886075770644948776503,5198.0,1.48822592480886075770644948776503
115,5291.08998537359038469939708282753681,5289.6,1.48998537359038469939708282753681
116,5383.49172957210895983990199674424437,5382.0,1.49172957210895983990199674424437
117,5476.69345878256016123869360779905817,5475.2,1.49345878256016123869360779905817
118,5570.69517326043348863231389577599750,5569.2,1.49517326043348863231389577599750
119,5665.49687325473917997098859619275889,5664.0,1.49687325473917997098859619275889
120,5761.09855900822551662803786649939272,5759.6,1.49855900822551662803786649939272
121,5857.50023075758709016531887900924522,5856.0,1.50023075758709016531887900924522
122,5954.70188873366448162480300243069285,5953.2,1.50188873366448162480300243069285
123,6052.70353316163577212345822229722278,6051.2,1.50353316163577212345822229722278
124,6151.50516426120028584879880327307011,6150.0,1.50516426120028584879880327307011
125,6251.10678224675493698620109480436735,6249.6,1.50678224675493698620109480436735
126,6351.50838732756353691178679610431625,6350.0,1.50838732756353691178679610431625
127,6452.70997970791939740678863207380898,6451.2,1.50997970791939740678863207380898
128,6554.71155958730154306212347047365035,6553.2,1.51155958730154306212347047365035
129,6657.51312716052483396865983393984048,6656.0,1.51312716052483396865983393984048
130,6761.11468261788428140679947160846347,6759.6,1.51468261788428140679947160846347
131,6865.51622614529382384487458495008910,6864.0,1.51622614529382384487458495008910
132,6970.71775792441981557866149923279827,6969.2,1.51775792441981557866149923279827
133,7076.71927813280946856272765210746637,7075.2,1.51927813280946856272765210746637
134,7183.52078694401447670836984273637652,7182.0,1.52078694401447670836984273637652
135,7291.12228452771003381455925319395181,7289.6,1.52228452771003381455925319395181
136,7399.52377104980945261077839976174795,7398.0,1.52377104980945261077839976174795
137,7508.72524667257457908269151728112472,7507.2,1.52524667257457908269151728112472
138,7618.72671155472218263959934708252760,7617.2,1.52671155472218263959934708252760
139,7729.52816585152650057672365429692839,7728.0,1.52816585152650057672365429692839
140,7841.12960971491809983939852256387382,7839.6,1.52960971491809983939852256387382
141,7953.53104329357921453875555592612831,7952.0,1.53104329357921453875555592612831
142,8066.73246673303570959522296832466232,8065.2,1.53246673303570959522296832466232
143,8180.73388017574581223598934845271862,8179.2,1.53388017574581223598934845271862
144,8295.53528376118574589294577526342676,8294.0,1.53528376118574589294577526342676
145,8411.13667762593239685986100293721459,8409.6,1.53667762593239685986100293721459
146,8527.53806190374313619879340052910008,8526.0,1.53806190374313619879340052910008
147,8644.73943672563291118277736843276209,8643.2,1.53943672563291118277736843276209
148,8762.74080221994872160378863744357741,8761.2,1.54080221994872160378863744357741
149,8881.54215851244158274691851830131681,8880.0,1.54215851244158274691851830131681
150,9001.14350572633607867161004166610786,8999.6,1.54350572633607867161004166610786
151,9121.54484398239760171418508230412406,9120.0,1.54484398239760171418508230412406
152,9242.74617339899736851080697556611101,9241.2,1.54617339899736851080697556611101
153,9364.74749409217530149054641223273124,9363.2,1.54749409217530149054641223273124
154,9487.54880617570085973776647715343942,9486.0,1.54880617570085973776647715343942
155,9611.15010976113189745979280496822044,9609.6,1.55010976113189745979280496822044
156,9735.55140495787162792620485444787415,9734.0,1.55140495787162792620485444787415
157,9860.75269187322376392632424936639552,9859.2,1.55269187322376392632424936639552
158,9986.75397061244590656297362456655751,9985.2,1.55397061244590656297362456655751
159,10113.5552412788012460553114302009805,10112.0,1.5552412788012460553114302009805
160,10241.1565039736086408882524536663782,10239.6,1.5565039736086408882524536663782
161,10369.5577587962911338045650121150566,10368.0,1.5577587962911338045650121150566
162,10498.7590058444229641007162498764747,10497.2,1.5590058444229641007162498764747
163,10628.7602452137751310797348600064700,10627.2,1.5602452137751310797348600064700
164,10759.5614769983595632976561818796759,10758.0,1.5614769983595632976561818796759
165,10891.1627012904719422037373582361545,10889.6,1.5627012904719422037373582361545
166,11023.5639181807332306900012550873136,11022.0,1.5639181807332306900012550873136
167,11156.7651277581299537823985962488940,11155.2,1.5651277581299537823985962488940
168,11290.7663301100532741624717527670990,11289.2,1.5663301100532741624717527670990
169,11425.5675253223369075815807954701577,11424.0,1.5675253223369075815807954701577
170,11561.1687134792939179107774311264324,11559.6,1.5687134792939179107774311264324
171,11697.5698946637524320207575625263245,11696.0,1.5698946637524320207575625263245
172,11834.7710689570903123585203115318979,11833.2,1.5710689570903123585203115318979
173,11972.7722364392688226230341830969091,11971.2,1.5722364392688226230341830969091
174,12111.5733971888653223833942409235660,12110.0,1.5733971888653223833942409235660
175,12251.1745512831050246243731730785915,12249.6,1.5745512831050246243731730785915
176,12391.5756987978918459256889315632050,12390.0,1.5756987978918459256889315632050
177,12532.7768398078383825354962317625407,12531.2,1.5768398078383825354962317625407
178,12674.7779743862950414924679420679016,12673.2,1.5779743862950414924679420679016
179,12817.5791026053783532413818934376476,12816.0,1.5791026053783532413818934376476
180,12961.1802245359984966885818614485085,12959.6,1.5802245359984966885818614485085
181,13105.5813402478860593458685136384512,13104.0,1.5813402478860593458685136384512
182,13250.7824498096180602581754154371746,13249.2,1.5824498096180602581754154371746
183,13396.7835532886432587642736875021160,13395.2,1.5835532886432587642736875021160
184,13543.5846507513067733320108820703740,13542.0,1.5846507513067733320108820703740
185,13691.1857422628740322761769207384228,13689.6,1.5857422628740322761769207384228
186,13839.5868278875540773275858879366059,13838.0,1.5868278875540773275858879366059
187,13988.7879076885222438538403094376674,13987.2,1.5879076885222438538403094376674
188,14138.7889817279422331680615924348042,14137.2,1.5889817279422331680615924348042
189,14289.5900500669876006566433207787840,14288.0,1.5900500669876006566433207787840
190,14441.1911127658626753770710398500292,14439.6,1.5911127658626753770710398500292
191,14593.5921698838229303483259041508621,14592.0,1.5921698838229303483259041508621
192,14746.7932214791948199160400275214575,14745.2,1.5932214791948199160400275214575
193,14900.7942676093951024962157475056441,14899.2,1.5942676093951024962157475056441
194,15055.5953083309496620382550806300544,15054.0,1.5953083309496620382550806300544
195,15211.1963436995118461396211429890817,15209.6,1.5963436995118461396211429890817
196,15367.5973737698803345039939613247331,15366.0,1.5973737698803345039939613247331
197,15524.7983985960165521182036692452100,15523.2,1.5983985960165521182036692452100
198,15682.7994182310616413098819573791552,15681.2,1.5994182310616413098819573791552
199,15841.6004327273530055196469700199680,15840.0,1.6004327273530055196469700199680
200,16001.2014421364404387279823822890800,15999.6,1.6014421364404387279823822890800
201,16161.6024465091018515131891271544710,16160.0,1.6024465091018515131891271544710
202,16322.8034458953586071165208574195234,16321.2,1.6034458953586071165208574195234
203,16484.8044403444904781691848195509561,16483.2,1.6044403444904781691848195509561
204,16647.6054299050502356960693842387550,16646.0,1.6054299050502356960693842387550
205,16811.2064146248778803615099415753817,16809.6,1.6064146248778803615099415753817
206,16975.6073945511145289757897750503710,16974.0,1.6073945511145289757897750503710
207,17140.8083697302159621330010851965323,17139.2,1.6083697302159621330010851965323
208,17306.8093402079658472016704812534060,17305.2,1.6093402079658472016704812534060
209,17473.6103060294886424109762022930359,17472.0,1.6103060294886424109762022930359
210,17641.2112672392621935281557847716259,17639.6,1.6112672392621935281557847716259
211,17809.6122238811300304860602718657063,17808.0,1.6122238811300304860602718657063
212,17978.8131759983133741879767074789095,17977.2,1.6131759983133741879767074789095
213,18148.8141236334228578676064879857987,18147.2,1.6141236334228578676064879857987
214,18319.6150668284699779798828516113909,18318.0,1.6150668284699779798828516113909
215,18491.2160056248782738288517386943902,18489.6,1.6160056248782738288517386943902
216,18663.6169400634942498870662428071742,18662.0,1.6169400634942498870662428071742
217,18836.8178701845980447655296900216832,18835.2,1.6178701845980447655296900216832
218,19010.8187960279138558066298781577751,19009.2,1.6187960279138558066298781577751
219,19185.6197176326201225729929787183415,19184.0,1.6197176326201225729929787183415
220,19361.2206350373594817403773272107729,19359.6,1.6206350373594817403773272107729
221,19537.6215482802484912968892546631460,19536.0,1.6215482802484912968892546631460
222,19714.8224573988871412458786560173428,19713.2,1.6224573988871412458786560173428
223,19892.8233624303681443733376229259589,19891.2,1.6233624303681443733376229259589
224,20071.6242634112860221390922857803889,20070.0,1.6242634112860221390922857803889
225,20251.2251603777459882483223370902441,20249.6,1.6251603777459882483223370902441
226,20431.6260533653726334413408417382812,20430.0,1.6260533653726334413408417382812
227,20612.8269424093184201444725541941501,20611.2,1.6269424093184201444725541941501
228,20794.8278275442719887922216942536517,20793.2,1.6278275442719887922216942536517
229,20977.6287088044662829728641307137726,20976.0,1.6287088044662829728641307137726
230,21161.2295862236864980836919205422915,21159.6,1.6295862236864980836919205422915
231,21345.6304598352778552851642209448179,21344.0,1.6304598352778552851642209448179
232,21530.8313296721532111628687482103391,21529.2,1.6313296721532111628687482103391
233,21716.8321957668004980827815204318974,21715.2,1.6321957668004980827815204318974
234,21903.6330581512900113858738971876759,21902.0,1.6330581512900113858738971876759
235,22091.2339168572815365931499075676331,22089.6,1.6339168572815365931499075676331
236,22279.6347719160313263198649513299534,22278.0,1.6347719160313263198649513299534
237,22468.8356233583989305190353338527068,22467.2,1.6356233583989305190353338527068
238,22658.8364712148538817852319273488302,22657.2,1.6364712148538817852319273488302
