Eigenstate,Energy,Kinetic Energy,Potential Energy
1,0.500000000038163494790684741749756314,0.0,0.500000000038163494790684741749756314
2,1.84623093790022600169689795393804161,1.2,0.64623093790022600169689795393804161
3,3.93633761043671995273579586658670355,3.2,0.73633761043671995273579586658670355
4,6.79966527933837805304710134176938933,6.0,0.79966527933837805304710134176938933
5,10.4480465779258056306982212021862516,9.6,0.8480465779258056306982212021862516
6,14.8870660009556053874649316255012711,14.0,0.8870660009556053874649316255012711
7,20.1197208298668563733499948079086161,19.2,0.9197208298668563733499948079086161
8,26.1477838510369885389715518532279434,25.2,0.9477838510369885389715518532279434
9,32.9723835634725677482455353941225311,32.0,0.9723835634725677482455353941225311
10,40.5942802213223515675518772882651183,39.6,0.9942802213223515675518772882651183
11,49.0140093947275092143883286064787199,48.0,1.0140093947275092143883286064787199
12,58.2319621789927689012854779985748779,57.2,1.0319621789927689012854779985748779
13,68.2484327041840181879504009800849659,67.2,1.0484327041840181879504009800849659
14,79.0636476679844704320909607768078724,78.0,1.0636476679844704320909607768078724
15,90.6777854515088526436894995419071658,89.6,1.0777854515088526436894995419071658
16,103.090988924173852482260475276534199,102.0,1.090988924173852482260475276534199
17,116.303374277159623948388813254674606,115.2,1.103374277159623948388813254674606
18,130.315037274415987843547103826641262,129.2,1.115037274415987843547103826641262
19,145.126057775766410141812492911535572,144.0,1.126057775766410141812492911535572
20,160.736503074541939009904083196914743,159.6,1.136503074541939009904083196914743
21,177.146430403662902430986772754145803,176.0,1.146430403662902430986772754145803
22,194.355888846797648684057246105693771,193.2,1.155888846797648684057246105693771
23,212.364920816299071270422297271641362,211.2,1.164920816299071270422297271641362
24,231.173563210605031287503206404635658,230.0,1.173563210605031287503206404635658
25,250.781848331034283992123305225398134,249.6,1.181848331034283992123305225398134
26,271.189804615594066689976619718771216,270.0,1.189804615594066689976619718771216
27,292.397457231942674684688761314810354,291.2,1.197457231942674684688761314810354
28,314.404828560748501209308338279709724,313.2,1.204828560748501209308338279709724
29,337.211938592891989440547020870208280,336.0,1.211938592891989440547020870208280
30,360.818805258307457126067800596975876,359.6,1.218805258307457126067800596975876
31,385.225444700115815854525651547917463,384.0,1.225444700115815854525651547917463
32,410.431871504621307412968682057514183,409.2,1.231871504621307412968682057514183
33,436.438098895435731871813027939917911,435.2,1.238098895435731871813027939917911
34,463.244138898243095771262842347800717,462.0,1.244138898243095771262842347800717
35,490.850002481378413717220483645979962,489.6,1.250002481378413717220483645979962
36,519.255699676360917816098380972479573,518.0,1.255699676360917816098380972479573
37,548.461239681717844829372426381767696,547.2,1.261239681717844829372426381767696
38,578.466630952804552185539493023805832,577.2,1.266630952804552185539493023805832
39,609.271881279828865337599864536383640,608.0,1.271881279828865337599864536383640
40,640.876997855891738170624347420576706,639.6,1.276997855891738170624347420576706
41,673.281987336539557890234372256506916,672.0,1.281987336539557890234372256506916
42,706.486855892068433221311340826701797,705.2,1.286855892068433221311340826701797
43,740.491609253614318401331074983084216,739.2,1.291609253614318401331074983084216
44,775.296252753894731437212897446602834,774.0,1.296252753894731437212897446602834
45,810.900791363330255525575059841478329,809.6,1.300791363330255525575059841478329
46,847.305229722160876253694864589741261,846.0,1.305229722160876253694864589741261
47,884.509572169078730586141035827231373,883.2,1.309572169078730586141035827231373
48,922.513822766821257277798830316621689,921.2,1.313822766821257277798830316621689
49,961.317985325104075810112976742398478,960.0,1.317985325104075810112976742398478
50,1000.92206342121879823372144392097026,999.6,1.32206342121879823372144392097026
51,1041.32606041857551133818166189363035,1040.0,1.32606041857551133818166189363035
52,1082.52997948343132135519238029052827,1081.2,1.32997948343132135519238029052827
53,1124.53382360001390328316924007733881,1123.2,1.33382360001390328316924007733881
54,1167.33759558422143578957681189354728,1166.0,1.33759558422143578957681189354728
55,1210.94129809605682715490869870894543,1209.6,1.34129809605682715490869870894543
56,1255.34493365093406315208277307375252,1254.0,1.34493365093406315208277307375252
57,1300.54850462997730878990012302540385,1299.2,1.34850462997730878990012302540385
58,1346.55201328941859866292593890775178,1345.2,1.35201328941859866292593890775178
59,1393.35546176918719670287569381763544,1392.0,1.35546176918719670287569381763544
60,1440.95885210077268161888823749247003,1439.6,1.35885210077268161888823749247003
61,1489.36218621443425008656309051598703,1488.0,1.36218621443425008656309051598703
62,1538.56546594582042874052612527520246,1537.2,1.36546594582042874052612527520246
63,1588.56869304205614413626744203615764,1587.2,1.36869304205614413626744203615764
64,1639.37186916734778736707339968962076,1638.0,1.37186916734778736707339968962076
65,1690.97499590815137518190218856023077,1689.6,1.37499590815137518190218856023077
66,1743.37807477794406211099833190833434,1742.0,1.37807477794406211099833190833434
67,1796.58110722163499581471586318730879,1795.2,1.38110722163499581471586318730879
68,1850.58409461964775171021149335954978,1849.2,1.38409461964775171021149335954978
69,1905.38703829170327025994240509185218,1904.0,1.38703829170327025994240509185218
70,1960.98993950032929203763925004350323,1959.6,1.38993950032929203763925004350323
71,2017.39279945411968698369406842243739,2016.0,1.39279945411968698369406842243739
72,2074.59561931076477601952280400425712,2073.2,1.39561931076477601952280400425712
73,2132.59840017987169018405886730216617,2131.2,1.39840017987169018405886730216617
74,2191.40114312559199360698127225661885,2190.0,1.40114312559199360698127225661885
75,2251.00384916907216553217800234828271,2249.6,1.40384916907216553217800234828271
76,2311.40651929074108704818988816913824,2310.0,1.40651929074108704818988816913824
77,2372.60915443244737578396228213356525,2371.2,1.40915443244737578396228213356525
78,2434.61175549945824603005154178386884,2433.2,1.41175549945824603005154178386884
79,2497.41432336233052492544110696064734,2496.0,1.41432336233052492544110696064734
80,2561.01685885866351722447741111528815,2559.6,1.41685885866351722447741111528815
81,2625.41936279474256181695937028900063,2624.0,1.41936279474256181695937028900063
82,2690.62183594708136172386154106674972,2689.2,1.42183594708136172386154106674972
83,2756.62427906387048055738136613930338,2755.2,1.42427906387048055738136613930338
84,2823.42669286633877414228482746271607,2822.0,1.42669286633877414228482746271607
85,2891.02907805003396671935105758599066,2889.6,1.42907805003396671935105758599066
86,2959.43143528602806528632711657822409,2958.0,1.43143528602806528632711657822409
87,3028.63376522205284816100430014821715,3027.2,1.43376522205284816100430014821715
88,3098.63606848357024047329157381227423,3097.2,1.43606848357024047329157381227423
89,3169.43834567478200579100018582819317,3168.0,1.43834567478200579100018582819317
90,3241.04059737958283986732428284698599,3239.6,1.44059737958283986732428284698599
91,3313.44282416246063104595160244824467,3312.0,1.44282416246063104595160244824467
92,3386.64502656934736356219914203907137,3385.2,1.44502656934736356219914203907137
93,3460.64720512842387772351312367468365,3459.2,1.44720512842387772351312367468365
94,3535.44936035088145802393438433674871,3534.0,1.44936035088145802393438433674871
95,3611.05149273164299909310138260392437,3609.6,1.45149273164299909310138260392437
96,3687.45360275004629755824644653263864,3686.0,1.45360275004629755824644653263864
97,3764.65569087049183355553146623524556,3763.2,1.45569087049183355553146623524556
98,3842.65775754305723275277427038988581,3841.2,1.45775754305723275277427038988581
99,3921.45980320408044627342806281494476,3920.0,1.45980320408044627342806281494476
100,4001.06182827671353957125997586068436,3999.6,1.46182827671353957125997586068436
101,4081.46383317144885200102049832666910,4080.0,1.46383317144885200102049832666910
102,4162.66581828661916325567435940356794,4161.2,1.46581828661916325567435940356794
103,4244.66778400887339492715051568737691,4243.2,1.46778400887339492715051568737691
104,4327.46973071362926818285873004602734,4326.0,1.46973071362926818285873004602734
105,4411.07165876550424547646294720468137,4409.6,1.47165876550424547646294720468137
106,4495.47356851872599344715828989377102,4494.0,1.47356851872599344715828989377102
107,4580.67546031752352607974293896763285,4579.2,1.47546031752352607974293896763285
108,4666.67733449650010795822175162752921,4665.2,1.47733449650010795822175162752921
109,4753.47919138098892885214445256753296,4752.0,1.47919138098892885214445256753296
110,4841.08103128739249845475600755524749,4839.6,1.48103128739249845475600755524749
111,4929.48285452350664423083838631195110,4928.0,1.48285452350664423083838631195110
112,5018.68466138882994589848945720571530,5017.2,1.48466138882994589848945720571530
113,5108.68645217485938453329056289702734,5107.2,1.48645217485938453329056289702734
114,5199.48822716537293552555817247347405,5198.0,1.48822716537293552555817247347405
115,5291.08998663669979417287229733530854,5289.6,1.48998663669979417287229733530854
116,5383.49173085797887435842622720885923,5382.0,1.49173085797887435842622720885923
117,5476.69346009140618905273532790422666,5475.2,1.49346009140618905273532790422666
118,5570.69517459247168034513714292874412,5569.2,1.49517459247168034513714292874412
119,5665.49687461018603299779867780825238,5664.0,1.49687461018603299779867780825238
120,5761.09856038729797967271192750149590,5759.6,1.49856038729797967271192750149590
121,5857.50023216050256771491424113965031,5856.0,1.50023216050256771491424113965031
122,5954.70189016064083846203757624742277,5953.2,1.50189016064083846203757624742277
123,6052.70353461289133785735859941612171,6051.2,1.50353461289133785735859941612171
124,6151.50516573695385946371291802287043,6150.0,1.50516573695385946371291802287043
125,6251.10678374722579140937372695335811,6249.6,1.50678374722579140937372695335811
126,6351.50838885297142359969753569489529,6350.0,1.50838885297142359969753569489529
127,6452.70998125848455095045324109260226,6451.2,1.50998125848455095045324109260226
128,6554.71156116324468581156103318776524,6553.2,1.51156116324468581156103318776524
129,6657.51312876206718067672941373796682,6656.0,1.51312876206718067672941373796682
130,6761.11468424524754389261140046274858,6759.6,1.51468424524754389261140046274858
131,6865.51622779870021567698290514926888,6864.0,1.51622779870021567698290514926888
132,6970.71775960409205677824571635468327,6969.2,1.51775960409205677824571635468327
133,7076.71927983897079032697300317622319,7075.2,1.51927983897079032697300317622319
134,7183.52078867688862615425713032551387,7182.0,1.52078867688862615425713032551387
135,7291.12228628752127874327665399101502,7289.6,1.52228628752127874327665399101502
136,7399.52377283678258629296898430818089,7398.0,1.52377283678258629296898430818089
137,7508.72524848693492506475200094767919,7507.2,1.52524848693492506475200094767919
138,7618.72671339669559957124688149099214,7617.2,1.52671339669559957124688149099214
139,7729.52816772133938706004919264151211,7728.0,1.52816772133938706004919264151211
140,7841.12961161279739929962674380528905,7839.6,1.52961161279739929962674380528905
141,7953.53104521975242011693289916436550,7952.0,1.53104521975242011693289916436550
142,8066.73246868773086906305701686710170,8065.2,1.53246868773086906305701686710170
143,8180.73388215919153293306429120816041,8179.2,1.53388215919153293306429120816041
144,8295.53528577361119968654047551069879,8294.0,1.53528577361119968654047551069879
145,8411.13667966756732512759762737603542,8409.6,1.53667966756732512759762737603542
146,8527.53806397481785483434639737564972,8526.0,1.53806397481785483434639737564972
147,8644.73943882637831562487421955202359,8643.2,1.53943882637831562487421955202359
148,8762.74080435059629188873548156402173,8761.2,1.54080435059629188873548156402173
149,8881.54216067322338858488551058383949,8880.0,1.54216067322338858488551058383949
150,9001.14350791748478454691293139963053,8999.6,1.54350791748478454691293139963053
151,9121.54484620414647200980151583126079,9120.0,1.54484620414647200980151583126079
152,9242.74617565158027265736750273146472,9241.2,1.54617565158027265736750273146472
153,9364.74749637582671914004218340060965,9363.2,1.54749637582671914004218340060965
154,9487.54880849065588596221730987976063,9486.0,1.54880849065588596221730987976063
155,9611.15011210762624797512119078317395,9609.6,1.55011210762624797512119078317395
156,9735.55140733614164434156346000263364,9734.0,1.55140733614164434156346000263364
157,9860.75269428350641901912607245607427,9859.2,1.55269428350641901912607245607427
158,9986.75397305497880957987608295951638,9985.2,1.55397305497880957987608295951638
159,10113.5552437538226480394075275244799,10112.0,1.5552437538226480394075275244799
160,10241.1565064813574400327240718129188,10239.6,1.5565064813574400327240718129188
161,10369.5577613370068808330554397954509,10368.0,1.5577613370068808330554397954509
162,10498.7590084183458676746809404342242,10497.2,1.5590084183458676746809404342242
163,10628.7602478211460632330314086557477,10627.2,1.5602478211460632330314086557477
164,10759.5614796394200648986366715627616,10758.0,1.5614796394200648986366715627616
165,10891.1627039654642284451082686191545,10889.6,1.5627039654642284451082686191545
166,11023.5639208899001966067180143701305,11022.0,1.5639208899001966067180143701305
167,11156.7651305017151797978641210536873,11155.2,1.5651305017151797978641210536873
168,11290.7663328883010316633105393603903,11289.2,1.5663328883010316633105393603903
169,11425.5675281354921645212619636728345,11424.0,1.5675281354921645212619636728345
170,11561.1687163276023444423626588617877,11559.6,1.5687163276023444423626588617877
171,11697.5698975474604061590517807812542,11696.0,1.5698975474604061590517807812542
172,11834.7710718764449256719053894521661,11833.2,1.5710718764449256719053894521661
173,11972.7722393945178859552679750260129,11971.2,1.5722393945178859552679750260129
174,12111.5734001802573716056597729716034,12110.0,1.5734001802573716056597729716034
175,12251.1745543108893264178649374732456,12249.6,1.5745543108893264178649374732456
176,12391.5757018623184035950256778808266,12390.0,1.5757018623184035950256778808266
177,12532.7768429091579418532518498968542,12531.2,1.5768429091579418532518498968542
178,12674.7779775247590965751145504115599,12673.2,1.5779775247590965751145504115599
179,12817.5791057812391524569416048880940,12816.0,1.5791057812391524569416048880940
180,12961.1802277495090485962861097276875,12959.6,1.5802277495090485962861097276875
181,13105.5813434993001386681262802970059,13104.0,1.5813434993001386681262802970059
182,13250.7824530991902138851542295230919,13249.2,1.5824530991902138851542295230919
183,13396.7835566166288117913997260840440,13395.2,1.5835566166288117913997260840440
184,13543.5846541179618351306970275709492,13542.0,1.5846541179618351306970275709492
185,13691.1857456684555025980904519874004,13689.6,1.5857456684555025980904519874004
186,13839.5868313323196524427695265643958,13838.0,1.5868313323196524427695265643958
187,13988.7879111727304227230036490531644,13987.2,1.5879111727304227230036490531644
188,14138.7889852518523236493620446329900,14137.2,1.5889852518523236493620446329900
189,14289.5900536308597257472787684851603,14288.0,1.5900536308597257472787684851603
190,14441.1911163699577794900088598445607,14439.6,1.5911163699577794900088598445607
191,14593.5921735284027856244959264927066,14592.0,1.5921735284027856244959264927066
192,14746.7932251645220325723217370609831,14745.2,1.5932251645220325723217370609831
193,14900.7942713357331192095528062955386,14899.2,1.5942713357331192095528062955386
194,15055.5953120985627763662331429013234,15054.0,1.5953120985627763662331429013234
195,15211.1963475086652049778477631558964,15209.6,1.5963475086652049778477631558964
196,15367.5973776208399445806223713891669,15366.0,1.5973776208399445806223713891669
197,15524.7984024890492865259450740473938,15523.2,1.5984024890492865259450740473938
198,15682.7994221664352460758539807764231,15681.2,1.5994221664352460758539807764231
199,15841.6004367053361062134089975133885,15840.0,1.6004367053361062134089975133885
200,16001.2014461573025471081114104932973,15999.6,1.6014461573025471081114104932973
201,16161.6024505731133722127528857303577,16160.0,1.6024505731133722127528857303577
202,16322.8034500027908443678082464726537,16321.2,1.6034500027908443678082464726537
203,16484.8044444956156425680565094789518,16483.2,1.6044444956156425680565094789518
204,16647.6054341001414510062949449238223,16646.0,1.6054341001414510062949449238223
205,16811.2064188642091903594607906144946,16809.6,1.6064188642091903594607906144946
206,16975.6073988349609043358608187567343,16974.0,1.6073988349609043358608187567343
207,17140.8083740588533073541368149863229,17139.2,1.6083740588533073541368149863229
208,17306.8093445816710075753750389841491,17305.2,1.6093445816710075753750389841491
209,17473.6103104485394110311899756335813,17472.0,1.6103104485394110311899756335813
210,17641.2112717039373183433847061503257,17639.6,1.6112717039373183433847061503257
211,17809.6122283917092213941472241824090,17808.0,1.6122283917092213941472241824090
212,17978.8131805550773101739080716310010,17977.2,1.6131805550773101739080716310010
213,18148.8141282366531941847505086157755,18147.2,1.6141282366531941847505086157755
214,18319.6150714784493533750596881788370,18318.0,1.6150714784493533750596881788370
215,18491.2160103218903178116390777726518,18489.6,1.6160103218903178116390777726518
216,18663.6169448078235900437477177090216,18662.0,1.6169448078235900437477177090216
217,18836.8178749765303141180971648248164,18835.2,1.6178749765303141180971648248164
218,19010.8188008677357002172542618893814,19009.2,1.6188008677357002172542618893814
219,19185.6197225206192081943822506836399,19184.0,1.6197225206192081943822506836399
220,19361.2206399738245025124439430748388,19359.6,1.6206399738245025124439430748388
221,19537.6215532654691764901532015244347,19536.0,1.6215532654691764901532015244347
222,19714.8224624331542630520362770781919,19713.2,1.6224624331542630520362770781919
223,19892.8233675139735255434301226155375,19891.2,1.6233675139735255434301226155375
224,20071.6242685445225436697120082390538,20070.0,1.6242685445225436697120082390538
225,20251.2251655609075971162989341177409,20249.6,1.6251655609075971162989341177409
226,20431.6260585987543503873533669060100,20430.0,1.6260585987543503873533669060100
227,20612.8269476932163475060377957939785,20611.2,1.6269476932163475060377957939785
228,20794.8278328789833183865131670824083,20793.2,1.6278328789833183865131670824083
229,20977.6287141902893040298204378090849,20976.0,1.6287141902893040298204378090849
230,21161.2295916609206052298773348358710,21159.6,1.6295916609206052298773348358710
231,21345.6304653242235565788488718182656,21344.0,1.6304653242235565788488718182656
232,21530.8313352131121361807999034669166,21529.2,1.6313352131121361807999034669166
233,21716.8322013600754060591221476318341,21715.2,1.6322013600754060591221476318341
234,21903.6330637971847994037889183912688,21902.0,1.6330637971847994037889183912688
235,22091.2339225561012478295252331530105,22089.6,1.6339225561012478295252331530105
236,22279.6347776680821583436490003587269,22278.0,1.6347776680821583436490003587269
237,22468.8356291639882436436971106834757,22467.2,1.6356291639882436436971106834757
238,22658.8364770742902074758347881148615,22657.2,1.6364770742902074758347881148615
