Eigenstate,Energy,Kinetic Energy,Potential Energy
1,0.500000000830122971618195637182371867,0.0,0.500000000830122971618195637182371867
2,1.84623094306986183504944392746878570,1.2,0.64623094306986183504944392746878570
3,3.93633762562273336140511231615731214,3.2,0.73633762562273336140511231615731214
4,6.79966531097089446425658916102251170,6.0,0.79966531097089446425658916102251170
5,10.4480466327237364578872657488560337,9.6,0.8480466327237364578872657488560337
6,14.8870660857579495490479034585982312,14.0,0.8870660857579495490479034585982312
7,20.1197209515709482111649021015929447,19.2,0.9197209515709482111649021015929447
8,26.1477840165731198108427891914294035,25.2,0.9477840165731198108427891914294035
9,32.9723837797925320697819159660071198,32.0,0.9723837797925320697819159660071198
10,40.5942804953939489488720415174320009,39.6,0.9942804953939489488720415174320009
11,49.0140097335318573151009838662436096,48.0,1.0140097335318573151009838662436096
12,58.2319625895230455489075268749592949,57.2,1.0319625895230455489075268749592949
13,68.2484331934449841084726062309627766,67.2,1.0484331934449841084726062309627766
14,79.0636482429924420437802341653820337,78.0,1.0636482429924420437802341653820337
15,90.6777861192919474363453317487238048,89.6,1.0777861192919474363453317487238048
16,103.090989691772406710905803133766560,102.0,1.090989691772406710905803133766560
17,116.303375151626723521904489871168070,115.2,1.103375151626723521904489871168070
18,130.315038262818076246408204609510308,129.2,1.115038262818076246408204609510308
19,145.126058885183950555842499348589371,144.0,1.126058885183950555842499348589371
20,160.736504312070115818026793512937603,159.6,1.136504312070115818026793512937603
21,177.146431776412352257206210042692935,176.0,1.146431776412352257206210042692935
22,194.355890361895214295474257606221991,193.2,1.155890361895214295474257606221991
23,212.364922480888573741274291446920555,211.2,1.164922480888573741274291446920555
24,231.173565031848057212672538837473156,230.0,1.173565031848057212672538837473156
25,250.781850316110985484909884973995354,249.6,1.181850316110985484909884973995354
26,271.189806771703972558041927476551480,270.0,1.189806771703972558041927476551480
27,292.397459566305511644659248980063812,291.2,1.197459566305511644659248980063812
28,314.404831080605024336165513671017857,313.2,1.204831080605024336165513671017857
29,337.211941305504821293037434809451054,336.0,1.211941305504821293037434809451054
30,360.818808170961935170920768342998165,359.6,1.218808170961935170920768342998165
31,385.225447820120847948587308374030102,384.0,1.225447820120847948587308374030102
32,410.431874839310235206068152783099403,409.2,1.231874839310235206068152783099403
33,436.438102452167202073093742702635941,435.2,1.238102452167202073093742702635941
34,463.244142684401939284084392146652984,462.0,1.244142684401939284084392146652984
35,490.850006504376532697043334073265772,489.6,1.250006504376532697043334073265772
36,519.255703943638180745249073113739269,518.0,1.255703943638180745249073113739269
37,548.461244200742989734634201041338819,547.2,1.261244200742989734634201041338819
38,578.466635731076098150879487114011026,577.2,1.266635731076098150879487114011026
39,609.271886324876032486349323524609326,608.0,1.271886324876032486349323524609326
40,640.877003175275376310064727406199411,639.6,1.277003175275376310064727406199411
41,673.281992937853084027563852735177018,672.0,1.281992937853084027563852735177018
42,706.486861782938778173955669802037394,705.2,1.286861782938778173955669802037394
43,740.491615441702882736966056747604653,739.2,1.291615441702882736966056747604653
44,775.296259246898350990031583183360241,774.0,1.296259246898350990031583183360241
45,810.900798168982176745537850674418379,809.6,1.300798168982176745537850674418379
46,847.305236848231741654959308456502675,846.0,1.305236848231741654959308456502675
47,884.509579623377574569754155097960838,883.2,1.309579623377574569754155097960838
48,922.513830557196512612186749933663033,921.2,1.313830557196512612186749933663033
49,961.317993459444591061032498095517303,960.0,1.317993459444591061032498095517303
50,1000.92207190745486644323607039044837,999.6,1.32207190745486644323607039044837
51,1041.32606926467991025996810104459452,1040.0,1.32606926467991025996810104459452
52,1082.52998869742036556113229994513571,1081.2,1.32998869742036556113229994513571
53,1124.53383318994850846378545539615514,1123.2,1.33383318994850846378545539615514
54,1167.33760555820819557848284487712071,1166.0,1.33760555820819557848284487712071
55,1210.94130846224910281508480159571955,1209.6,1.34130846224910281508480159571955
56,1255.34494441753308646950754360377840,1254.0,1.34494441753308646950754360377840
57,1300.54851580523329852787938091500381,1299.2,1.34851580523329852787938091500381
58,1346.55202488163189093839816540162363,1345.2,1.35202488163189093839816540162363
59,1393.35547378670938965404904452750710,1392.0,1.35547378670938965404904452750710
60,1440.95886455200779474180665684373148,1439.6,1.35886455200779474180665684373148
61,1489.36219910783989862662082047862475,1488.0,1.36219910783989862662082047862475
62,1538.56547928990901353356861674123310,1537.2,1.36547928990901353356861674123310
63,1588.56870684539605730274516084521914,1587.2,1.36870684539605730274516084521914
64,1639.37188343856463427177002924154144,1638.0,1.37188343856463427177002924154144
65,1690.97501065592921308105721500102110,1689.6,1.37501065592921308105721500102110
66,1743.37809001102665591818701290670334,1742.0,1.37809001102665591818701290670334
67,1796.58112294882709142666490690840328,1795.2,1.38112294882709142666490690840328
68,1850.58411084981636734381722040351848,1849.2,1.38411084981636734381722040351848
69,1905.38705503377900626214139337978345,1904.0,1.38705503377900626214139337978345
70,1960.98995676330765964045800687172520,1959.6,1.38995676330765964045800687172520
71,2017.39281724706245648780756298093829,2016.0,1.39281724706245648780756298093829
72,2074.59563764280134490096932643714943,2073.2,1.39563764280134490096932643714943
73,2132.59841906020047163042549421933049,2131.2,1.39841906020047163042549421933049
74,2191.40116256348182600138624153272054,2190.0,1.40116256348182600138624153272054
75,2251.00386917386374341575867717209018,2249.6,1.40386917386374341575867717209018
76,2311.40653987184841410455858747648712,2310.0,1.40653987184841410455858747648712
77,2372.60917559935924040224563074547111,2371.2,1.40917559935924040224563074547111
78,2434.61177726173972001668171424161378,2433.2,1.41177726173972001668171424161378
79,2497.41434572962448594884394251135809,2496.0,1.41434572962448594884394251135809
80,2561.01688184069219559120849682691286,2559.6,1.41688184069219559120849682691286
81,2625.41938640130911219270259507779261,2624.0,1.41938640130911219270259507779261
82,2690.62186018807146042802633706461428,2689.2,1.42186018807146042802633706461428
83,2756.62430394925394907584234273734826,2755.2,1.42430394925394907584234273734826
84,2823.42671840617122951911269583638205,2822.0,1.42671840617122951911269583638205
85,2891.02910425445849950520604592668115,2889.6,1.42910425445849950520604592668115
86,2959.43146216527694573853555377158895,2958.0,1.43146216527694573853555377158895
87,3028.63379278644926140825516039057961,3027.2,1.43379278644926140825516039057961
88,3098.63609674353005137636250141461176,3097.2,1.43609674353005137636250141461176
89,3169.43837464081555424999667709918144,3168.0,1.43837464081555424999667709918144
90,3241.04062706229676734560130682908700,3239.6,1.44062706229676734560130682908700
91,3313.44285457255973910120398676435218,3312.0,1.44285457255973910120398676435218
92,3386.64505771763650519618770249598794,3385.2,1.44505771763650519618770249598794
93,3460.64723702580988238354630068897532,3459.2,1.44723702580988238354630068897532
94,3535.44939300837509111158951602383262,3534.0,1.44939300837509111158951602383262
95,3611.05152616036095685876589181614754,3609.6,1.45152616036095685876589181614754
96,3687.45363696121323828390052219891899,3686.0,1.45363696121323828390052219891899
97,3764.65572587544244595283578901856447,3763.2,1.45572587544244595283578901856447
98,3842.65779335323834252896517535802605,3841.2,1.45779335323834252896517535802605
99,3921.45983983105316184381459612624762,3920.0,1.45983983105316184381459612624762
100,4001.06186573215543792427622534347100,3999.6,1.46186573215543792427622534347100
101,4081.46387146715620574985291410664883,4080.0,1.46387146715620574985291410664883
102,4162.66585743450920993948905021291514,4161.2,1.46585743450920993948905021291514
103,4244.66782402098664965491984056151090,4243.2,1.46782402098664965491984056151090
104,4327.46977160213188074378027179685796,4326.0,1.46977160213188074378027179685796
105,4411.07170054269040307299372330840972,4409.6,1.47170054269040307299372330840972
106,4495.47361119702037023981141287778559,4494.0,1.47361119702037023981141287778559
107,4580.67550390948378076704238892622855,4579.2,1.47550390948378076704238892622855
108,4666.67737901481943065063344214510579,4665.2,1.47737901481943065063344214510579
109,4753.47923683849863853543810539137907,4752.0,1.47923683849863853543810539137907
110,4841.08107769706469237614903414217979,4839.6,1.48107769706469237614903414217979
111,4929.48290189845690058048492661784618,4928.0,1.48290189845690058048492661784618
112,5018.68470974232008119944484022967747,5017.2,1.48470974232008119944484022967747
113,5108.68650152030026719506995983548905,5107.2,1.48650152030026719506995983548905
114,5199.48827751632735705985784182291137,5198.0,1.48827751632735705985784182291137
115,5291.09003800688539961500759816987231,5289.6,1.49003800688539961500759816987231
116,5383.49178326127115348460651607437376,5382.0,1.49178326127115348460651607437376
117,5476.69351354184153003151446750379607,5475.2,1.49351354184153003151446750379607
118,5570.69522910425048751131450255850927,5569.2,1.49522910425048751131450255850927
119,5665.49693019767591048875971955745850,5664.0,1.49693019767591048875971955745850
120,5761.09861706503698272077588076069883,5759.6,1.49861706503698272077588076069883
121,5857.50028994320252344476123684356053,5856.0,1.50028994320252344476123684356053
122,5954.70194906319073809979841737722809,5953.2,1.50194906319073809979841737722809
123,6052.70359465036080231755686646940645,6051.2,1.50359465036080231755686646940645
124,6151.50522692459668034203108634815567,6150.0,1.50522692459668034203108634815567
125,6251.10684610048354947326036886369463,6249.6,1.50684610048354947326036886369463
126,6351.50845238747718693523937396944891,6350.0,1.50845238747718693523937396944891
127,6452.71004599006665499279952452873546,6451.2,1.51004599006665499279952452873546
128,6554.71162710793059755761157205134575,6553.2,1.51162710793059755761157205134575
129,6657.51319593608744945288862514111923,6656.0,1.51319593608744945288862514111923
130,6761.11475266503984112727628781120984,6759.6,1.51475266503984112727628781120984
131,6865.51629748091346620720831539555760,6864.0,1.51629748091346620720831539555760
132,6970.71783056559066430281536132156496,6969.2,1.51783056559066430281536132156496
133,7076.71935209683895970403303056751485,7075.2,1.51935209683895970403303056751485
134,7183.52086224843478533090839643076750,7182.0,1.52086224843478533090839643076750
135,7291.12236119028260319715695176389708,7289.6,1.52236119028260319715695176389708
136,7399.52384908852962896208611058927268,7398.0,1.52384908852962896208611058927268
137,7508.72532610567635484178720475452157,7507.2,1.52532610567635484178720475452157
138,7618.72679240068305154239504737246357,7617.2,1.52679240068305154239504737246357
139,7729.52824812907242777638108520999764,7728.0,1.52824812907242777638108520999764
140,7841.12969344302861048113025086992327,7839.6,1.52969344302861048113025086992327
141,7953.53112849149260430597660010535162,7952.0,1.53112849149260430597660010535162
142,8066.73255342025438086526731422024939,8065.2,1.53255342025438086526731422024939
143,8180.73396837204173960968000519348788,8179.2,1.53396837204173960968000519348788
144,8295.53537348660607499344936100876015,8294.0,1.53537348660607499344936100876015
145,8411.13676890080518043268468589943299,8409.6,1.53676890080518043268468589943299
146,8527.53815474868321168675878257975784,8526.0,1.53815474868321168675878257975784
147,8644.73953116154792409755471394611207,8643.2,1.53953116154792409755471394611207
148,8762.74089826804529916937937395198261,8761.2,1.54089826804529916937937395198261
149,8881.54225619423166245062920995698250,8880.0,1.54225619423166245062920995698250
150,9001.14360506364339652482955324320816,8999.6,1.54360506364339652482955324320816
151,9121.54494499736434519900196487447256,9120.0,1.54494499736434519900196487447256
152,9242.74627611409099936949372627474363,9241.2,1.54627611409099936949372627474363
153,9364.74759853019555370354171760232577,9363.2,1.54759853019555370354171760232577
154,9487.54891235978691823237127860822316,9486.0,1.54891235978691823237127860822316
155,9611.15021771476976329674500169074799,9609.6,1.55021771476976329674500169074799
156,9735.55151470490167592500781662218176,9734.0,1.55151470490167592500781662218176
157,9860.75280343784849891309604228862552,9859.2,1.55280343784849891309604228862552
158,9986.75408401923792465714358201603083,9985.2,1.55408401923792465714358201603083
159,10113.5553565527114076541071458332935,10112.0,1.5553565527114076541071458332935
160,10241.1566211399744622612076411193562,10239.6,1.5566211399744622612076411193562
161,10369.5578778808454044746508856525477,10368.0,1.5578778808454044746508856525477
162,10498.7591268733025974647995773385160,10497.2,1.5591268733025974647995773385160
163,10628.7603682135302560094010431000603,10627.2,1.5603682135302560094010431000603
164,10759.5616019959628647627202746529667,10758.0,1.5616019959628647627202746529667
165,10891.1628283133282592755627033352956,10889.6,1.5628283133282592755627033352956
166,11023.5640472566894206107853641749440,11022.0,1.5640472566894206107853641749440
167,11156.7652589154850311306348728846899,11155.2,1.5652589154850311306348728846899
168,11290.7664633775688345045539564202311,11289.2,1.5664633775688345045539564202311
169,11425.5676607292478453758600963900757,11424.0,1.5676607292478453758600963900757
170,11561.1688510553194488241629714575648,11559.6,1.5688510553194488241629714575648
171,11697.5700344391074302300675413099406,11696.0,1.5700344391074302300675413099406
172,11834.7712109624969738402438585364336,11833.2,1.5712109624969738402438585364336
173,11972.7723807059686658869471179322076,11971.2,1.5723807059686658869471179322076
174,12111.5735437486315385787123275822261,12110.0,1.5735437486315385787123275822261
175,12251.1747001682551894429580916052058,12249.6,1.5747001682551894429580916052058
176,12391.5758500413010062464656407570065,12390.0,1.5758500413010062464656407570065
177,12532.7769934429525312990143606759824,12531.2,1.5769934429525312990143606759824
178,12674.7781304471449948658056854331166,12673.2,1.5781304471449948658056854331166
179,12817.5792611265940447328381043249159,12816.0,1.5792611265940447328381043249159
180,12961.1803855528237035003458952271828,12959.6,1.5803855528237035003458952271828
181,13105.5815037961935769127976474232703,13104.0,1.5815037961935769127976474232703
182,13250.7826159259253416136599420644195,13249.2,1.5826159259253416136599420644195
183,13396.7837220101285361018450534616388,13395.2,1.5837220101285361018450534616388
184,13543.5848221158256798957735802725061,13542.0,1.5848221158256798957735802725061
185,13691.1859163089767435164929384604731,13689.6,1.5859163089767435164929384604731
186,13839.5870046545029911029286168701707,13838.0,1.5870046545029911029286168701707
187,13988.7880872163102203477614896216444,13987.2,1.5880872163102203477614896216444
188,14138.7891640573114161243555097983076,14137.2,1.5891640573114161243555097983076
189,14289.5902352394488425187371003176594,14288.0,1.5902352394488425187371003176594
190,14441.1913008237155899523259746214173,14439.6,1.5913008237155899523259746214173
191,14593.5923608701765977074339427241752,14592.0,1.5923608701765977074339427241752
192,14746.7934154379891693852822162987652,14745.2,1.5934154379891693852822162987652
193,14900.7944645854230008096083794132904,14899.2,1.5944645854230008096083794132904
194,15055.5955083698797349912506123739701,15054.0,1.5955083698797349912506123739701
195,15211.1965468479120634301158267437417,15209.6,1.5965468479120634301158267437417
196,15367.5975800752423888642360112002650,15366.0,1.5975800752423888642360112002650
197,15524.7986081067810653373450038583301,15523.2,1.5986081067810653373450038583301
198,15682.7996309966442313263628837112999,15681.2,1.5996309966442313263628837112999
199,15841.6006487981712504305888868587108,15840.0,1.6006487981712504305888868587108
200,16001.2016615639417753249032437426241,15999.6,1.6016615639417753249032437426241
201,16161.6026693457924478157842372902145,16160.0,1.6026693457924478157842372902145
202,16322.8036721948332503454036637697945,16321.2,1.6036721948332503454036637697945
203,16484.8046701614635216813022754851223,16483.2,1.6046701614635216813022754851223
204,16647.6056632953876506105462569515197,16646.0,1.6056632953876506105462569515197
205,16811.2066516456304599368583432582349,16809.6,1.6066516456304599368583432582349
206,16975.6076352605522962704913204841077,16974.0,1.6076352605522962704913204841077
207,17140.8086141878638340995737997559662,17139.2,1.6086141878638340995737997559662
208,17306.8095884746406111395292571382855,17305.2,1.6095884746406111395292571382855
209,17473.6105581673373036463950131984375,17472.0,1.6105581673373036463950131984375
210,17641.2115233118017563119615819390401,17639.6,1.6115233118017563119615819390401
211,17809.6124839532887774138715716210807,17808.0,1.6124839532887774138715716210807
212,17978.8134401364737129671278519130512,17977.2,1.6134401364737129671278519130512
213,18148.8143919054658079940279084841650,18147.2,1.6143919054658079940279084841650
214,18319.6153393038213738626008969090439,18318.0,1.6153393038213738626008969090439
215,18491.2162823745567651264162698093242,18489.6,1.6162823745567651264162698093242
216,18663.6172211601611843173114945666601,18662.0,1.6172211601611843173114945666601
217,18836.8181557026093234373687485156078,18835.2,1.6181557026093234373687485156078
218,19010.8190860433738562213635835435786,19009.2,1.6190860433738562213635835435786
219,19185.6200122234377898761053607705205,19184.0,1.6200122234377898761053607705205
220,19361.2209342833066945979067616917295,19359.6,1.6209342833066945979067616917295
221,19537.6218522630208149504331301893140,19536.0,1.6218522630208149504331301893140
222,19714.8227662021670868965690516297169,19713.2,1.6227662021670868965690516297169
223,19892.8236761398910610896322581151267,19891.2,1.6236761398910610896322581151267
224,20071.6245821149087550108048482272549,20070.0,1.6245821149087550108048482272549
225,20251.2254841655184445576591339356280,20249.6,1.6254841655184445576591339356280
226,20431.6263823296124072319852611239490,20430.0,1.6263823296124072319852611239490
227,20612.8272766446886347866857533896496,20611.2,1.6272766446886347866857533896496
228,20794.8281671478625270143321870218925,20793.2,1.6281671478625270143321870218925
229,20977.6290538758785844105721941626376,20976.0,1.6290538758785844105721941626376
230,21161.2299368651221157463325134585237,21159.6,1.6299368651221157463325134585237
231,21345.6308161516309745159743139711359,21344.0,1.6308161516309745159743139711359
232,21530.8316917711073477476503733386196,21529.2,1.6316917711073477476503733386196
233,21716.8325637589296062139876754415195,21715.2,1.6325637589296062139876754415195
234,21903.6334321501642473002079741184068,21902.0,1.6334321501642473002079741184068
235,22091.2342969795779399611992816701978,22089.6,1.6342969795779399611992816701978
236,22279.6351582816496989760677489392181,22278.0,1.6351582816496989760677489392181
237,22468.8360160905832109889529799571775,22467.2,1.6360160905832109889529799571775
238,22658.8368704403193344152517931966848,22657.2,1.6368704403193344152517931966848
