Eigenstate,Energy,Kinetic Energy,Potential Energy
1,0.500000000036607214277203988531224357,0.0,0.500000000036607214277203988531224357
2,1.84623093789006739982657842071973240,1.2,0.64623093789006739982657842071973240
3,3.93633761040687981689094633639691845,3.2,0.73633761040687981689094633639691845
4,6.79966527927622427885512860154647905,6.0,0.79966527927622427885512860154647905
5,10.4480465778181421808646239187314902,9.6,0.8480465778181421808646239187314902
6,14.8870660007890050287184012262017465,14.0,0.8870660007890050287184012262017465
7,20.1197208296277832551575357802481926,19.2,0.9197208296277832551575357802481926
8,26.1477838507118492960916719100804553,25.2,0.9477838507118492960916719100804553
9,32.9723835630477352470771076530195784,32.0,0.9723835630477352470771076530195784
10,40.5942802207841769433560621483614396,39.6,0.9942802207841769433560621483614396
11,49.0140093940623283963663020949215920,48.0,1.0140093940623283963663020949215920
12,58.2319621781869063287295195007578897,57.2,1.0319621781869063287295195007578897
13,68.2484327032237889971831439216105920,67.2,1.0484327032237889971831439216105920
14,79.0636476668561817633188789256031259,78.0,1.0636476668561817633188789256031259
15,90.6777854501988044168948095246295692,89.6,1.0777854501988044168948095246295692
16,103.090988922668337839545839233717758,102.0,1.090988922668337839545839233717758
17,116.303374275444929479329667370254934,115.2,1.103374275444929479329667370254934
18,130.315037272478393664998460102645246,129.2,1.115037272478393664998460102645246
19,145.126057773592189877430052748854069,144.0,1.126057773592189877430052748854069
20,160.736503072117359698893968671841378,159.6,1.136503072117359698893968671841378
21,177.146430400974224385831816765352226,176.0,1.146430400974224385831816765352226
22,194.355888843831125310739788774528474,193.2,1.155888843831125310739788774528474
23,212.364920813040948860591909357809436,211.2,1.164920813040948860591909357809436
24,231.173563207041548789315739496559156,230.0,1.173563207041548789315739496559156
25,250.781848327151672764620580685598224,249.6,1.181848327151672764620580685598224
26,271.189804611378550244585519473533043,270.0,1.189804611378550244585519473533043
27,292.397457227380468416506417457428844,291.2,1.197457227380468416506417457428844
28,314.404828555825812120185526090049951,313.2,1.204828555825812120185526090049951
29,337.211938587595015855505360173259554,336.0,1.211938587595015855505360173259554
30,360.818805252622388404234946629769121,359.6,1.218805252622388404234946629769121
31,385.225444694028832095510323704469687,384.0,1.225444694028832095510323704469687
32,410.431871498118579159399362247967651,409.2,1.231871498118579159399362247967651
33,436.438098888503419808613098943866817,435.2,1.238098888503419808613098943866817
34,463.244138890867350422118604011951288,462.0,1.244138890867350422118604011951288
35,490.850002473545375138608054354436950,489.6,1.250002473545375138608054354436950
36,519.255699668056715289164616000540443,518.0,1.255699668056715289164616000540443
37,548.461239672928596549908975808258420,547.2,1.261239672928596549908975808258420
38,578.466630943516364952244542590102710,577.2,1.266630943516364952244542590102710
39,609.271881270027834238786358217427657,608.0,1.271881270027834238786358217427657
40,640.876997845563946269504642184125155,639.6,1.276997845563946269504642184125155
41,673.281987325671075908887849524067114,672.0,1.281987325671075908887849524067114
42,706.486855880645319223422358128221290,705.2,1.286855880645319223422358128221290
43,740.491609241622617473768905981138096,739.2,1.291609241622617473768905981138096
44,775.296252741320475370512322652197824,774.0,1.296252741320475370512322652197824
45,810.900791350159462493365472374647972,809.6,1.300791350159462493365472374647972
46,847.305229708379550491116756911554877,846.0,1.305229708379550491116756911554877
47,884.509572154672862067281177832193216,883.2,1.309572154672862067281177832193216
48,922.513822751776821392169088802212710,921.2,1.313822751776821392169088802212710
49,961.317985309407033038192351238997321,960.0,1.317985309407033038192351238997321
50,1000.92206340485509382157631758962142,999.6,1.32206340485509382157631758962142
51,1041.32606040153107497117537093806675,1040.0,1.32606040153107497117537093806675
52,1082.52997946569206683079186283363546,1081.2,1.32997946569206683079186283363546
53,1124.53382358156572818285365342023543,1123.2,1.33382358156572818285365342023543
54,1167.33759556505022114985053622196796,1166.0,1.33759556505022114985053622196796
55,1210.94129807614843713741898471518198,1209.6,1.34129807614843713741898471518198
56,1255.34493363027434471284044005088402,1254.0,1.34493363027434471284044005088402
57,1300.54850460855209134760007333479736,1299.2,1.34850460855209134760007333479736
58,1346.55201326721369376636283316620661,1345.2,1.35201326721369376636283316620661
59,1393.35546174618839769744887652025360,1392.0,1.35546174618839769744887652025360
60,1440.95885207696576331218889876196566,1439.6,1.35885207696576331218889876196566
61,1489.36218618980496841303566604131505,1488.0,1.36218618980496841303566604131505
62,1538.56546592035452042519507155811604,1537.2,1.36546592035452042519507155811604
63,1588.56869301573932635751974199627412,1587.2,1.36869301573932635751974199627412
64,1639.37186914016575741848647218263655,1638.0,1.37186914016575741848647218263655
65,1690.97499588008981013310622927675353,1689.6,1.37499588008981013310622927675353
66,1743.37807474898861846756157906939815,1742.0,1.37807474898861846756157906939815
67,1796.58110719177130917704075080015450,1795.2,1.38110719177130917704075080015450
68,1850.58409458886143643142919509406187,1849.2,1.38409458886143643142919509406187
69,1905.38703825997991910279285990563346,1904.0,1.38703825997991910279285990563346
70,1960.98993946765447583032337063326470,1959.6,1.38993946765447583032337063326470
71,2017.39279942047895427468446991800966,2016.0,1.39279942047895427468446991800966
72,2074.59561927614365273131907093700563,2073.2,1.39561927614365273131907093700563
73,2132.59840014425567926587306774303457,2131.2,1.39840014425567926587306774303457
74,2191.40114308896657468633915454819208,2190.0,1.40114308896657468633915454819208
75,2251.00384913142279456542102559615740,2249.6,1.40384913142279456542102559615740
76,2311.40651925205319596986300942814619,2310.0,1.40651925205319596986300942814619
77,2372.60915439270637215507217532178044,2371.2,1.40915439270637215507217532178044
78,2434.61175545864951268517971683857212,2433.2,1.41175545864951268517971683857212
79,2497.41432332043941961869616111149597,2496.0,1.41432332043941961869616111149597
80,2561.01685881567537227427047330558708,2559.6,1.41685881567537227427047330558708
81,2625.41936275064268374958659502886276,2624.0,1.41936275064268374958659502886276
82,2690.62183590185503091587730802569341,2689.2,1.42183590185503091587730802569341
83,2756.62427901750295087674569415651261,2755.2,1.42427901750295087674569415651261
84,2823.42669281881527258826830995799066,2822.0,1.42669281881527258826830995799066
85,2891.02907800133969306118048826733768,2889.6,1.42907800133969306118048826733768
86,2959.43143523614819170055477743030868,2958.0,1.43143523614819170055477743030868
87,3028.63376517097251886758376117556955,3027.2,1.43376517097251886758376117556955
88,3098.63606843127457137034266212963602,3097.2,1.43606843127457137034266212963602
89,3169.43834562125608408824566962360340,3168.0,1.43834562125608408824566962360340
90,3241.04059732481172371818062091157372,3239.6,1.44059732481172371818062091157372
91,3313.44282410642934917825599598980277,3312.0,1.44282410642934917825599598980277
92,3386.64502651204091490755496842988205,3385.2,1.44502651204091490755496842988205
93,3460.64720506982723104523567319830754,3459.2,1.44720506982723104523567319830754
94,3535.44936029097955154357870095936070,3534.0,1.44936029097955154357870095936070
95,3611.05149267042074011555384856841595,3609.6,1.45149267042074011555384856841595
96,3687.45360268748856209536161003126104,3686.0,1.45360268748856209536161003126104
97,3764.65569080658346594829547798915651,3763.2,1.45569080658346594829547798915651
98,3842.65775747778304529197614078656338,3841.2,1.45775747778304529197614078656338
99,3921.45980313742521881881982376264073,3920.0,1.45980313742521881881982376264073
100,4001.06182820866201916918667246267065,3999.6,1.46182820866201916918667246267065
101,4081.46383310198575250050081337767610,4080.0,1.46383310198575250050081337767610
102,4162.66581821572916492291249754872602,4161.2,1.46581821572916492291249754872602
103,4244.66778393654114405845989034484928,4243.2,1.46778393654114405845989034484928
104,4327.46973063983937671597776957749518,4326.0,1.46973063983937671597776957749518
105,4411.07165869024129060024326933963164,4409.6,1.47165869024129060024326933963164
106,4495.47356844197451720960530930737139,4494.0,1.47356844197451720960530930737139
107,4580.67546023926803499438881801340932,4579.2,1.47546023926803499438881801340932
108,4666.67733441672507260881049053361222,4665.2,1.47733441672507260881049053361222
109,4753.47919129967878349560873889318617,4752.0,1.47919129967878349560873889318617
110,4841.08103120453164062246529704710204,4839.6,1.48103120453164062246529704710204
111,4929.48285443907943432809756621143844,4928.0,1.48285443907943432809756621143844
112,5018.68466130282070680226723750703859,5017.2,1.48466130282070680226723750703859
113,5108.68645208725240118815663980919270,5107.2,1.48645208725240118815663980919270
114,5199.48822707615245453780801935934245,5198.0,1.48822707615245453780801935934245
115,5291.08998654585002340281830822301616,5289.6,1.48998654585002340281830822301616
116,5383.49173076548398251083373983809817,5382.0,1.49173076548398251083373983809817
117,5476.69345999725030526538193698754174,5475.2,1.49345999725030526538193698754174
118,5570.69517449663889377547355050105594,5569.2,1.49517449663889377547355050105594
119,5665.49687451266039240768911630885996,5664.0,1.49687451266039240768911630885996
120,5761.09856028806349301123207360919239,5759.6,1.49856028806349301123207360919239
121,5857.50023205954320169918435590491499,5856.0,1.50023205954320169918435590491499
122,5954.70189005794051815606844336320061,5953.2,1.50189005794051815606844336320061
123,6052.70353450843394624888766054404140,6051.2,1.50353450843394624888766054404140
124,6151.50516563072323703900782291072494,6150.0,1.50516563072323703900782291072494
125,6251.10678363920573572598036543893798,6249.6,1.50678363920573572598036543893798
126,6351.50838874314568885710941596220836,6350.0,1.50838874314568885710941596220836
127,6452.70998114683684755867891105579251,6451.2,1.50998114683684755867891105579251
128,6554.71156104975867995756608787225765,6553.2,1.51156104975867995756608787225765
129,6657.51312864672649388872938673757487,6656.0,1.51312864672649388872938673757487
130,6761.11468412803575260219171603181625,6759.6,1.51468412803575260219171603181625
131,6865.51622767960085077902186039017210,6864.0,1.51622767960085077902186039017210
132,6970.71775948308860318861625154350520,6969.2,1.51775948308860318861625154350520
133,7076.71927971604668653799885954733854,7075.2,1.51927971604668653799885954733854
134,7183.52078855202726378789878873877218,7182.0,1.52078855202726378789878873877218
135,7291.12228616070600210202225524725498,7289.6,1.52228616070600210202225524725498
136,7399.52377270799669190840521885407754,7398.0,1.52377270799669190840521885407754
137,7508.72524835616166124378977525370222,7507.2,1.52524835616166124378977525370222
138,7618.72671326391816593997637120947932,7617.2,1.52671326391816593997637120947932
139,7729.52816758654093410519865515488057,7728.0,1.52816758654093410519865515488057
140,7841.12961147596102790759929264574400,7839.6,1.52961147596102790759929264574400
141,7953.53104508086118111039520540686296,7952.0,1.53104508086118111039520540686296
142,8066.73246854676776273505370761666339,8065.2,1.53246854676776273505370761666339
143,8180.73388201613950857863160072527103,8179.2,1.53388201613950857863160072527103
144,8295.53528562845315513179246990327977,8294.0,1.53528562845315513179246990327977
145,8411.13667952028610625625811065996931,8409.6,1.53667952028610625625811065996931
146,8527.53806382539625511169941095580159,8526.0,1.53806382539625511169941095580159
147,8644.73943867479907561910581168821290,8643.2,1.53943867479907561910581168821290
148,8762.74080419684209878963909810706860,8761.2,1.54080419684209878963909810706860
149,8881.54216051727687571990330747952416,8880.0,1.54216051727687571990330747952416
150,9001.14350775932853089448496478628330,8999.6,1.54350775932853089448496478628330
151,9121.54484604376300170999450162058730,9120.0,1.54484604376300170999450162058730
152,9242.74617548895205451975465438366342,9241.2,1.54617548895205451975465438366342
153,9364.74749621093616614880544621770640,9363.2,1.54749621093616614880544621770640
154,9487.54880832348535477844289600013386,9486.0,1.54880832348535477844289600013386
155,9611.15011193815803843625927098579314,9609.6,1.55011193815803843625927098579314
156,9735.55140716435799895802247577975508,9734.0,1.55140716435799895802247577975508
157,9860.75269410938952246797191919184933,9859.2,1.55269410938952246797191919184933
158,9986.75397287851078819560620939149482,9985.2,1.55397287851078819560620939149482
159,10113.5552435749855693017696339033795,10112.0,1.5552435749855693017696339033795
160,10241.1565063001333120515489196327735,10239.6,1.5565063001333120515489196327735
161,10369.5577611533776518300729649996829,10368.0,1.5577611533776518300729649996829
162,10498.7590082322934254622886244487423,10497.2,1.5590082322934254622886244487423
163,10628.7602476326522346899835647936062,10627.2,1.5602476326522346899835647936062
164,10759.5614794484666154426230687399735,10758.0,1.5614794484666154426230687399735
165,10891.1627037720328615021901448649318,10889.6,1.5627037720328615021901448649318
166,11023.5639206939725530775893338431481,11022.0,1.5639206939725530775893338431481
167,11156.7651303032728375209056650745950,11155.2,1.5651303032728375209056650745950
168,11290.7663326873255048744040044237026,11289.2,1.5663326873255048744040044237026
169,11425.5675279319649033103310641942826,11424.0,1.5675279319649033103310641942826
170,11561.1687161215047342066079364499773,11559.6,1.5687161215047342066079364499773
171,11697.5698973387737670528453711014402,11696.0,1.5698973387737670528453711014402
172,11834.7710716651505120533119269151472,11833.2,1.5710716651505120533119269151472
173,11972.7722391805968858291573175644698,11971.2,1.5722391805968858291573175644698
174,12111.5733999636909060633770001903146,12110.0,1.5733999636909060633770001903146
175,12251.1745540916584490734227432910516,12249.6,1.5745540916584490734227432910516
176,12391.5757016404041000177839442737535,12390.0,1.5757016404041000177839442737535
177,12532.7768426845411289970489145127035,12531.2,1.5768426845411289970489145127035
178,12674.7779772974206222038143178849216,12673.2,1.5779772974206222038143178849216
179,12817.5791055511597945663603027790311,12816.0,1.5791055511597945663603027790311
180,12961.1802275166695148324621629319229,12959.6,1.5802275166695148324621629319229
181,13105.5813432636810657418965301990116,13104.0,1.5813432636810657418965301990116
182,13250.7824528607721669829992171557202,13249.2,1.5824528607721669829992171557202
183,13396.7835563753922839825205140376925,13395.2,1.5835563753922839825205140376925
184,13543.5846538738872467702857620041242,13542.0,1.5846538738872467702857620041242
185,13691.1857454215232007267562559789623,13689.6,1.5857454215232007267562559789623
186,13839.5868310825099101820812734086055,13838.0,1.5868310825099101820812734086055
187,13988.7879109200234386671105294325808,13987.2,1.5879109200234386671105294325808
188,14138.7889849962282212526526409944661,14137.2,1.5889849962282212526526409944661
189,14289.5900533722985527080389226355068,14288.0,1.5900533722985527080389226355068
190,14441.1911161084395071300382250998858,14439.6,1.5911161084395071300382250998858
191,14593.5921732639073082646427349127871,14592.0,1.5921732639073082646427349127871
192,14746.7932248970291669038949243883800,14745.2,1.5932248970291669038949243883800
193,14900.7942710652226036615702444176052,14899.2,1.5942710652226036615702444176052
194,15055.5953118250142704684643144336898,15054.0,1.5953118250142704684643144336898
195,15211.1963472320582887196088572903642,15209.6,1.5963472320582887196088572903642
196,15367.5973773411541177652813163706562,15366.0,1.5973773411541177652813163706562
197,15524.7984022062639681210936424635662,15523.2,1.5984022062639681210936424635662
198,15682.7994218805297735591037103006801,15681.2,1.5994218805297735591037103006801
199,15841.6004364162897349137671616711107,15840.0,1.6004364162897349137671616711107
200,16001.2014458650944495428930043018263,15999.6,1.6014458650944495428930043018263
201,16161.6024502777226374199839690576697,16160.0,1.6024502777226374199839690576697
202,16322.8034497041964772340757038236893,16321.2,1.6034497041964772340757038236893
203,16484.8044441937965631517587345722793,16483.2,1.6044441937965631517587345722793
204,16647.6054337950764938562476169035750,16646.0,1.6054337950764938562476169035750
205,16811.2064185558771038288113863599468,16809.6,1.6064185558771038288113863599468
206,16975.6073985233403498912649948625358,16974.0,1.6073985233403498912649948625358
207,17140.8083737439228588801495149431489,17139.2,1.6083737439228588801495149431489
208,17306.8093442634091506740084767226965,17305.2,1.6093442634091506740084767226965
209,17473.6103101269245423165903703928642,17472.0,1.6103101269245423165903703928642
210,17641.2112713789477447315789674043552,17639.6,1.6112713789477447315789674043552
211,17809.6122280633231593878105603739096,17808.0,1.6122280633231593878105603739096
212,17978.8131802232728851421027298717013,17977.2,1.6131802232728851421027298717013
213,18148.8141279014084396375854921567643,18147.2,1.6141279014084396375854921567643
214,18319.6150711397422102332208406708282,18318.0,1.6150711397422102332208406708282
215,18491.2160099796986336707382474835948,18489.6,1.6160099796986336707382474835948
216,18663.6169444621251184334393953865375,18662.0,1.6169444621251184334393953865375
217,18836.8178746273027137559102638572815,18835.2,1.6178746273027137559102638572815
218,19010.8188005149565342570863710324460,19009.2,1.6188005149565342570863710324460
219,19185.6197221642659434696030022263068,19184.0,1.6197221642659434696030022263068
220,19361.2206396138745087735536346329140,19359.6,1.6206396138745087735536346329140
221,19537.6215529018997256369423387053214,19536.0,1.6215529018997256369423387053214
222,19714.8224620659425283601910159143271,19713.2,1.6224620659425283601910159143271
223,19892.8233671430965808855281966864769,19891.2,1.6233671430965808855281966864769
224,20071.6242681699573627305529167818058,20070.0,1.6242681699573627305529167818058
225,20251.2251651826310526025118156665798,20249.6,1.6251651826310526025118156665798
226,20431.6260582167432132312253002603634,20430.0,1.6260582167432132312253002603634
227,20612.8269473074472860635045959007542,20611.2,1.6269473074472860635045959007542
228,20794.8278324894328976292543873895861,20793.2,1.6278324894328976292543873895861
229,20977.6287137969339847313993353652594,20976.0,1.6287137969339847313993353652594
230,21161.2295912637367431458663140752063,21159.6,1.6295912637367431458663140752063
231,21345.6304649231874016208798796794699,21344.0,1.6304649231874016208798796794699
232,21530.8313348081998315844791555986641,21529.2,1.6313348081998315844791555986641
233,21716.8322009512629875457473027238691,21715.2,1.6322009512629875457473027238691
234,21903.6330633844481943358067246083595,21902.0,1.6330633844481943358067246083595
235,22091.2339221394162743596667004182455,22089.6,1.6339221394162743596667004182455
236,22279.6347772474245245576784839566547,22278.0,1.6347772474245245576784839566547
237,22468.8356287393335466967112610455821,22467.2,1.6356287393335466967112610455821
238,22658.8364766456139327220463591360667,22657.2,1.6364766456139327220463591360667
