Eigenstate,Energy,Kinetic Energy,Potential Energy
1,0.500000000035355792335196178162506619,0.0,0.500000000035355792335196178162506619
2,1.84623093788189875983912097256361972,1.2,0.64623093788189875983912097256361972
3,3.93633761038288505175697915065802939,3.2,0.73633761038288505175697915065802939
4,6.79966527922624579648507693315619611,6.0,0.79966527922624579648507693315619611
5,10.4480465777315689429309389626381002,9.6,0.8480465777315689429309389626381002
6,14.8870660006550401143238246158058018,14.0,0.8870660006550401143238246158058018
7,20.1197208294355424340105639899229589,19.2,0.9197208294355424340105639899229589
8,26.1477838504504021269357136443108637,25.2,0.9477838504504021269357136443108637
9,32.9723835627061241787068338158278611,32.0,0.9723835627061241787068338158278611
10,40.5942802203514270002044587021228423,39.6,0.9942802203514270002044587021228423
11,49.0140093935274524317231017680196890,48.0,1.0140093935274524317231017680196890
12,58.2319621775389080192775760430627969,57.2,1.0319621775389080192775760430627969
13,68.2484327024516646078855161289995740,67.2,1.0484327024516646078855161289995740
14,79.0636476659489212046262712806304549,78.0,1.0636476659489212046262712806304549
15,90.6777854491453918750083138085519298,89.6,1.0777854491453918750083138085519298
16,103.090988921457752138478475247904240,102.0,1.090988921457752138478475247904240
17,116.303374274066144268490204321269834,115.2,1.103374274066144268490204321269834
18,130.315037270920377489749206715766629,129.2,1.115037270920377489749206715766629
19,145.126057771843906169013062726514127,144.0,1.126057771843906169013062726514127
20,160.736503070167766707458965420546820,159.6,1.136503070167766707458965420546820
21,177.146430398812275072445910783418373,176.0,1.146430398812275072445910783418373
22,194.355888841445767209251069265345000,193.2,1.155888841445767209251069265345000
23,212.364920810421123916945041405478789,211.2,1.164920810421123916945041405478789
24,231.173563204176193183728891587327649,230.0,1.173563204176193183728891587327649
25,250.781848324029716720539712146354961,249.6,1.181848324029716720539712146354961
26,271.189804607988917827294312124183986,270.0,1.189804607988917827294312124183986
27,292.397457223712077323536738567634453,291.2,1.197457223712077323536738567634453
28,314.404828551867573465146948365812251,313.2,1.204828551867573465146948365812251
29,337.211938583335833946569107376161605,336.0,1.211938583335833946569107376161605
30,360.818805248051160518225051533046898,359.6,1.218805248051160518225051533046898
31,385.225444689134448248343848531589833,384.0,1.225444689134448248343848531589833
32,410.431871492889921873458294767996450,409.2,1.231871492889921873458294767996450
33,436.438098882929363877509085333590564,435.2,1.238098882929363877509085333590564
34,463.244138884936762673218124656084951,462.0,1.244138884936762673218124656084951
35,490.850002467247114193612942404928728,489.6,1.250002467247114193612942404928728
36,519.255699661379631322985824362235175,518.0,1.255699661379631322985824362235175
37,548.461239665861531048026469350126359,547.2,1.261239665861531048026469350126359
38,578.466630936048150466710339837337165,577.2,1.266630936048150466710339837337165
39,609.271881262147294142999014611849900,608.0,1.271881262147294142999014611849900
40,640.876997837259894511860265854140139,639.6,1.276997837259894511860265854140139
41,673.281987316932316765393912167094371,672.0,1.281987316932316765393912167094371
42,706.486855871460647049345167468941880,705.2,1.286855871460647049345167468941880
43,740.491609231980816454372963581563670,739.2,1.291609231980816454372963581563670
44,775.296252731210319270939345280134523,774.0,1.296252731210319270939345280134523
45,810.900791339569714407692180688977803,809.6,1.300791339569714407692180688977803
46,847.305229697298962590623294986479651,846.0,1.305229697298962590623294986479651
47,884.509572143090175347955963293070236,883.2,1.309572143090175347955963293070236
48,922.513822739680765421470776503011514,921.2,1.313822739680765421470776503011514
49,961.317985296786325701085271417116197,960.0,1.317985296786325701085271417116197
50,1000.92206339169844106585208605335259,999.6,1.32206339169844106585208605335259
51,1041.32606038782717055207021776567102,1040.0,1.32606038782717055207021776567102
52,1082.52997945142959205490656382917704,1081.2,1.32997945142959205490656382917704
53,1124.53382356673335165138062953521939,1123.2,1.33382356673335165138062953521939
54,1167.33759554963659850111070527810805,1166.0,1.33759554963659850111070527810805
55,1210.94129806014221078870922110198647,1209.6,1.34129806014221078870922110198647
56,1255.34493361366414360159099981029177,1254.0,1.34493361366414360159099981029177
57,1300.54850459132653067184004548267478,1299.2,1.34850459132653067184004548267478
58,1346.55201324936137472449052122066910,1345.2,1.35201324936137472449052122066910
59,1393.35546172769790722730301979929724,1392.0,1.35546172769790722730301979929724
60,1440.95885205782567382941575494583459,1439.6,1.35885205782567382941575494583459
61,1489.36218617000383754874619435138897,1488.0,1.36218617000383754874619435138897
62,1538.56546589988089076290575455412156,1537.2,1.36546589988089076290575455412156
63,1588.56869299458172516936996411231332,1587.2,1.36869299458172516936996411231332
64,1639.37186911831269640072483410152368,1638.0,1.37186911831269640072483410152368
65,1690.97499585752978514083766536039844,1689.6,1.37499585752978514083766536039844
66,1743.37807472571010924874669140132985,1742.0,1.37807472571010924874669140132985
67,1796.58110716776277910573839377520728,1795.2,1.38110716776277910573839377520728
68,1850.58409456411133224027295120605628,1849.2,1.38409456411133224027295120605628
69,1905.38703823447667061469172277700237,1904.0,1.38703823447667061469172277700237
70,1960.98993944138649568937664878952011,1959.6,1.38993944138649568937664878952011
71,2017.39279939343463767630063680573467,2016.0,1.39279939343463767630063680573467
72,2074.59561924831137715152803523910553,2073.2,1.39561924831137715152803523910553
73,2132.59840011562380418982109318782134,2131.2,1.39840011562380418982109318782134
74,2191.40114305952344133595543091648844,2190.0,1.40114305952344133595543091648844
75,2251.00384910115672562624469692448413,2249.6,1.40384910115672562624469692448413
76,2311.40651922095249531701925807536109,2310.0,1.40651922095249531701925807536109
77,2372.60915436075932457838579654558717,2371.2,1.40915436075932457838579654558717
78,2434.61175542584438361341441455366617,2433.2,1.41175542584438361341441455366617
79,2497.41432328676445484290766346851476,2496.0,1.41432328676445484290766346851476
80,2561.01685878111879767026139682305882,2559.6,1.41685878111879767026139682305882
81,2625.41936271519270499945082704936891,2624.0,1.41936271519270499945082704936891
82,2690.62183586549983322862155682339896,2689.2,1.42183586549983322862155682339896
83,2756.62427898023069870797570200325648,2755.2,1.42427898023069870797570200325648
84,2823.42669278061410935892709695979535,2822.0,1.42669278061410935892709695979535
85,2891.02907796219774087532587020539590,2889.6,1.42907796219774087532587020539590
86,2959.43143519605355106216326699628963,2958.0,1.43143519605355106216326699628963
87,3028.63376512991326839636785218370644,3027.2,1.43376512991326839636785218370644
88,3098.63606838923876751656836134872543,3097.2,1.43606838923876751656836134872543
89,3169.43834557823176084653704400121886,3168.0,1.43834557823176084653704400121886
90,3241.04059728078689234029799921484232,3239.6,1.44059728078689234029799921484232
91,3313.44282406139199788483435495717863,3312.0,1.44282406139199788483435495717863
92,3386.64502646597900859878892975007579,3385.2,1.44502646597900859878892975007579
93,3460.64720502272871101049741342967595,3459.2,1.44720502272871101049741342967595
94,3535.44936024283233516995497979021750,3534.0,1.44936024283233516995497979021750
95,3611.05149262121272059528823878587004,3609.6,1.45149262121272059528823878587004
96,3687.45360263720760813218793456480870,3686.0,1.45360263720760813218793456480870
97,3764.65569075521742146264830893595667,3763.2,1.45569075521742146264830893595667
98,3842.65775742531972912506415015638274,3841.2,1.45775742531972912506415015638274
99,3921.45980308385242443554763289642858,3920.0,1.45980308385242443554763289642858
100,4001.06182815396751435991078087241667,3999.6,1.46182815396751435991078087241667
101,4081.46383304615727908160503172955452,4080.0,1.46383304615727908160503172955452
102,4162.66581815875443843618825020618418,4161.2,1.46581815875443843618825020618418
103,4244.66778387840785346927661199112250,4243.2,1.46778387840785346927661199112250
104,4327.46973058053518411022853225343866,4326.0,1.46973058053518411022853225343866
105,4411.07165862975383088005065551920549,4409.6,1.47165862975383088005065551920549
106,4495.47356838029139778777244919200094,4494.0,1.47356838029139778777244919200094
107,4580.67546017637683548758038855676775,4579.2,1.47546017637683548758038855676775
108,4666.67733435261334452944837500709032,4665.2,1.47733435261334452944837500709032
109,4753.47919123433404994246691815369463,4752.0,1.47919123433404994246691815369463
110,4841.08103113794139596994846317571190,4839.6,1.48103113794139596994846317571190
111,4929.48285437123114391418779354492618,4928.0,1.48285437123114391418779354492618
112,5018.68466123370180661512297619380945,5017.2,1.48466123370180661512297619380945
113,5108.68645201685029755134814838790332,5107.2,1.48645201685029755134814838790332
114,5199.48822700445452379417326609911430,5198.0,1.48822700445452379417326609911430
115,5291.08998647284361159692321964703654,5289.6,1.48998647284361159692321964703654
116,5383.49173069115640507002060411076735,5382.0,1.49173069115640507002060411076735
117,5476.69345992158884667938960250225188,5475.2,1.49345992158884667938960250225188
118,5570.69517441963080727461296544431850,5569.2,1.49517441963080727461296544431850
119,5665.49687443429289963955766767491292,5664.0,1.49687443429289963955766767491292
120,5761.09856020832378371594994420837590,5759.6,1.49856020832378371594994420837590
121,5857.50023197841843338313617920806050,5856.0,1.50023197841843338313617920806050
122,5954.70188997541781576413322050067992,5953.2,1.50188997541781576413322050067992
123,6052.70353442450040183513991597403812,6051.2,1.50353442450040183513991597403812
124,6151.50516554536590943587278237132988,6150.0,1.50516554536590943587278237132988
125,6251.10678355241165021182580812312649,6249.6,1.50678355241165021182580812312649
126,6351.50838865490183682225678110782818,6350.0,1.50838865490183682225678110782818
127,6452.70998105713018616981600977863506,6451.2,1.50998105713018616981600977863506
128,6554.71156095857613182054374183940833,6553.2,1.51156095857613182054374183940833
129,6657.51312855405494670972410602754395,6656.0,1.51312855405494670972410602754395
130,6761.11468403386205884721641287036453,6759.6,1.51468403386205884721641287036453
131,6865.51622758391182733176651568748990,6864.0,1.51622758391182733176651568748990
132,6970.71775938587103100660017036417556,6969.2,1.51775938587103100660017036417556
133,7076.71927961728731030701617796063154,7075.2,1.51927961728731030701617796063154
134,7183.52078845171279157473865114976635,7182.0,1.52078845171279157473865114976635
135,7291.12228605882310500544491572986276,7289.6,1.52228605882310500544491572986276
136,7399.52377260453200370835526799635729,7398.0,1.52377260453200370835526799635729
137,7508.72524825110177804882747913303758,7507.2,1.52524825110177804882747913303758
138,7618.72671315724964583290797996582927,7617.2,1.52671315724964583290797996582927
139,7729.52816747825029678688637056234140,7728.0,1.52816747825029678688637056234140
140,7841.12961136603475433893145255238699,7839.6,1.52961136603475433893145255238699
141,7953.53104496928571315239705468659155,7952.0,1.53104496928571315239705468659155
142,8066.73246843352950278711904843367892,8065.2,1.53246843352950278711904843367892
143,8180.73388190122481921485534656655665,8179.2,1.53388190122481921485534656655665
144,8295.53528551184835873538402591854867,8294.0,1.53528551184835873538402591854867
145,8411.13667940197748465201536788927071,8409.6,1.53667940197748465201536788927071
146,8527.53806370537004919652293859948573,8526.0,1.53806370537004919652293859948573
147,8644.73943855304148499053262746871413,8643.2,1.53943855304148499053262746871413
148,8762.74080407333928137237533198535709,8761.2,1.54080407333928137237533198535709
149,8881.54216039201494739033480241803983,8880.0,1.54216039201494739033480241803983
150,9001.14350763229356510314476559038006,8999.6,1.54350763229356510314476559038006
151,9121.54484591494102910196591713229933,9120.0,1.54484591494102910196591713229933
152,9242.74617535832906255298854270253433,9241.2,1.54617535832906255298854270253433
153,9364.74749607849809871032999734019494,9363.2,1.54749607849809871032999734019494
154,9487.54880818921811179844421953778810,9486.0,1.54880818921811179844421953778810
155,9611.15011180204747550001075102709423,9609.6,1.55011180204747550001075102709423
156,9735.55140702638992691564073274526972,9734.0,1.55140702638992691564073274526972
157,9860.75269396954970704197704932866483,9859.2,1.55269396954970704197704932866483
158,9986.75397273678494958626375315935529,9985.2,1.55397273678494958626375315935529
159,10113.5552434313593817901915294868745,10112.0,1.5552434313593817901915294868745
160,10241.1565061545924036005305381483143,10239.6,1.5565061545924036005305381483143
161,10369.5577610059076036826430785556627,10368.0,1.5577610059076036826430785556627
162,10498.7590080828797717379490364403381,10497.2,1.5590080828797717379490364403381
163,10628.7602474812804619786148078506573,10627.2,1.5602474812804619786148078506573
164,10759.5614792951221623960325032199593,10758.0,1.5614792951221623960325032199593
165,10891.1627036167011184232784845876106,10889.6,1.5627036167011184232784845876106
166,11023.5639205366388615071115253483981,11022.0,1.5639205366388615071115253483981
167,11156.7651301439224898218016930617250,11155.2,1.5651301439224898218016930617250
168,11290.7663325259437438136751097968615,11289.2,1.5663325259437438136751097968615
169,11425.5675277685369216384365956149964,11424.0,1.5675277685369216384365956149964
170,11561.1687159560156742343578048737265,11559.6,1.5687159560156742343578048737265
171,11697.5698971712087202257629266875868,11696.0,1.5698971712087202257629266875868
172,11834.7710714954945185234417952103831,11833.2,1.5710714954945185234417952103831
173,11972.7722390088349340242925241126510,11971.2,1.5722390088349340242925241126510
174,12111.5733997898079322536794886204043,12110.0,1.5733997898079322536794886204043
175,12251.1745539156393369354112082479770,12249.6,1.5745539156393369354112082479770
176,12391.5757014622336801956625300148742,12390.0,1.5757014622336801956625300148742
177,12532.7768425042041786613502370235761,12531.2,1.5768425042041786613502370235761
178,12674.7779771149018646073299626826265,12673.2,1.5779771149018646073299626826265
179,12817.5791053664438985973316880897300,12816.0,1.5791053664438985973316880897300
180,12961.1802273297410945650044823513624,12959.6,1.5802273297410945650044823513624
181,13105.5813430745246799836281579754487,13104.0,1.5813430745246799836281579754487
182,13250.7824526693723188198487505686335,13249.2,1.5824526693723188198487505686335
183,13396.7835561817334203206834127320210,13395.2,1.5835561817334203206834127320210
184,13543.5846536779537578753021714918103,13542.0,1.5846536779537578753021714918103
185,13691.1857452232994197596814801873247,13689.6,1.5857452232994197596814801873247
186,13839.5868308819801127327199685385466,13838.0,1.5868308819801127327199685385466
187,13988.7879107171718422842855299460574,13987.2,1.5879107171718422842855299460574
188,14138.7889847910389849714789990364753,14137.2,1.5889847910389849714789990364753
189,14289.5900531647557765741734495665762,14288.0,1.5900531647557765741734495665762
190,14441.1911158985272317208746622827582,14439.6,1.5911158985272317208746622827582
191,14593.5921730516095142074222109616588,14592.0,1.5921730516095142074222109616588
192,14746.7932246823297743907012627558339,14745.2,1.5932246823297743907012627558339
193,14900.7942708481054719611792678112258,14899.2,1.5942708481054719611792678112258
194,15055.5953116054631974350160708876834,15054.0,1.5953116054631974350160708876834
195,15211.1963470100570102980713767596931,15209.6,1.5963470100570102980713767596931
196,15367.5973771166863074936741850861938,15366.0,1.5973771166863074936741850861938
197,15524.7984019793132366294394578580946,15523.2,1.5984019793132366294394578580946
198,15682.7994216510796680650750542656603,15681.2,1.5994216510796680650750542656603
199,15841.6004361843237387149965432561737,15840.0,1.6004361843237387149965432561737
200,16001.2014456305959815059128386491060,15999.6,1.6014456305959815059128386491060
201,16161.6024500406750514657633470633726,16160.0,1.6024500406750514657633470633726
202,16322.8034494645830618201204056690968,16321.2,1.6034494645830618201204056690968
203,16484.8044439516005407507406643310807,16483.2,1.6044439516005407507406643310807
204,16647.6054335502810204311293995593832,16646.0,1.6054335502810204311293995593832
205,16811.2064183084652683044315913579123,16809.6,1.6064183084652683044315913579123
206,16975.6073982732951736223491652833002,16974.0,1.6073982732951736223491652833002
207,17140.8083734912272951157117863379178,17139.2,1.6083734912272951157117863379178
208,17306.8093440080460840181081632512769,17305.2,1.6093440080460840181081632512769
209,17473.6103098688767881854077372996319,17472.0,1.6103098688767881854077372996319
210,17641.2112711181980488067738423926032,17639.6,1.6112711181980488067738423926032
211,17809.6122277998541970661272326037616,17808.0,1.6122277998541970661272326037616
212,17978.8131799570672609811841471239842,17977.2,1.6131799570672609811841471239842
213,18148.8141276324486867979594644645004,18147.2,1.6141276324486867979594644645004
214,18319.6150708680107899164204626384590,18318.0,1.6150708680107899164204626384590
215,18491.2160097051779345535185648943668,18489.6,1.6160097051779345535185648943668
216,18663.6169441847974560980517935167931,18662.0,1.6169441847974560980517935167931
217,18836.8178743471503301163958072240745,18835.2,1.6178743471503301163958072240745
218,19010.8188002319615969815488175760953,19009.2,1.6188002319615969815488175760953
219,19185.6197218784105453984218639213035,19184.0,1.6197218784105453984218639213035
220,19361.2206393251406673334973860650263,19359.6,1.6206393251406673334973860650263
221,19537.6215526102693822511412014390238,19536.0,1.6215526102693822511412014390238
222,19714.8224617713975478539286506841370,19713.2,1.6224617713975478539286506841370
223,19892.8233668456187508878109347849412,19891.2,1.6233668456187508878109347849412
224,20071.6242678695283930714149936224212,20070.0,1.6242678695283930714149936224212
225,20251.2251648792325747060144976055529,20249.6,1.6251648792325747060144976055529
226,20431.6260579103567795041073806033266,20430.0,1.6260579103567795041073806033266
227,20612.8269469980543692794413988344096,20611.2,1.6269469980543692794413988344096
228,20794.8278321770148903086818151997405,20793.2,1.6278321770148903086818151997405
229,20977.6287134814721985168592408525360,20976.0,1.6287134814721985168592408525360
230,21161.2295909452124081728289323556061,21159.6,1.6295909452124081728289323556061
231,21345.6304646015816658839985590085747,21344.0,1.6304646015816658839985590085747
232,21530.8313344834937602992322213391590,21529.2,1.6313344834937602992322213391590
233,21716.8322006234375625054214685645069,21715.2,1.6322006234375625054214685645069
234,21903.6330630534843132637759775463785,21902.0,1.6330630534843132637759775463785
235,22091.2339218052947502569199222084866,22089.6,1.6339218052947502569199222084866
236,22279.6347769101260850455489021852023,22278.0,1.6347769101260850455489021852023
237,22468.8356283988388333547601179807037,22467.2,1.6356283988388333547601179807037
238,22658.8364763019035004210527097887599,22657.2,1.6364763019035004210527097887599
