Eigenstate,Energy,Kinetic Energy,Potential Energy
1,0.500000000195920113155399322361299452,0.0,0.500000000195920113155399322361299452
2,1.84623093892998762916946242341992229,1.2,0.64623093892998762916946242341992229
3,3.93633761346160102833156725322446011,3.2,0.73633761346160102833156725322446011
4,6.79966528563897233571741363935743244,6.0,0.79966528563897233571741363935743244
5,10.4480465888399723514190036392026461,9.6,0.8480465888399723514190036392026461
6,14.8870660178447752049483957824506540,14.0,0.8870660178447752049483957824506540
7,20.1197208541036406340888551102000859,19.2,0.9197208541036406340888551102000859
8,26.1477838840000339588467862022481815,25.2,0.9477838840000339588467862022481815
9,32.9723836065441841772956166394347028,32.0,0.9723836065441841772956166394347028
10,40.5942802758873267307080575781681414,39.6,0.9942802758873267307080575781681414
11,49.0140094621724822565056480120013699,48.0,1.0140094621724822565056480120013699
12,58.2319622607058887206874073845993392,57.2,1.0319622607058887206874073845993392
13,68.2484328015547568405720514777790782,67.2,1.0484328015547568405720514777790782
14,79.0636477824035258100902888422844059,78.0,1.0636477824035258100902888422844059
15,90.6777855843681050432092312523599351,89.6,1.0777855843681050432092312523599351
16,103.090989076866355053714244679668549,102.0,1.090989076866355053714244679668549
17,116.303374451079615219348539178901540,115.2,1.103374451079615219348539178901540
18,130.315037470958919076916476856101263,129.2,1.115037470958919076916476856101263
19,145.126057996328982946577031287693304,144.0,1.126057996328982946577031287693304
20,160.736503320522150217907418823869099,159.6,1.136503320522150217907418823869099
21,177.146430676460094243235095886613532,176.0,1.146430676460094243235095886613532
22,194.355889147812562721421240876143783,193.2,1.155889147812562721421240876143783
23,212.364921146933905576371270795655226,211.2,1.164921146933905576371270795655226
24,231.173563572263499606471629030524597,230.0,1.173563572263499606471629030524597
25,250.781848725121676835396101829486120,249.6,1.181848725121676835396101829486120
26,271.189805043517313831835782748831055,270.0,1.189805043517313831835782748831055
27,292.397457695110408824052966852300541,291.2,1.197457695110408824052966852300541
28,314.404829060571122598486123704652068,313.2,1.204829060571122598486123704652068
29,337.211939130781731331060478264196130,336.0,1.211939130781731331060478264196130
30,360.818805835678451917161457306896762,359.6,1.218805835678451917161457306896762
31,385.225445318384161856602004600250801,384.0,1.225445318384161856602004600250801
32,410.431872165205136158300890793367653,409.2,1.231872165205136158300890793367653
33,436.438099599755275920233333737804829,435.2,1.238099599755275920233333737804829
34,463.244139647720756970355827256135018,462.0,1.244139647720756970355827256135018
35,490.850003277438831885754602936450453,489.6,1.250003277438831885754602936450453
36,519.255700520431039826653226590771054,518.0,1.255700520431039826653226590771054
37,548.461240575226994071836655909140658,547.2,1.261240575226994071836655909140658
38,578.466631897184498397714801095819299,577.2,1.266631897184498397714801095819299
39,609.271882276513894792812130223980265,608.0,1.271882276513894792812130223980265
40,640.876998906318724215210930105353425,639.6,1.276998906318724215210930105353425
41,673.281988442148031826196224873411303,672.0,1.281988442148031826196224873411303
42,706.486857054300655531405238326763694,705.2,1.286857054300655531405238326763694
43,740.491610473915350315519165357423000,739.2,1.291610473915350315519165357423000
44,775.296254033712506840752590499128121,774.0,1.296254033712506840752590499128121
45,810.900792704115653210176288664152945,809.6,1.300792704115653210176288664152945
46,847.305231125367792514136188568956389,846.0,1.305231125367792514136188568956389
47,884.509573636164152165554010028197275,883.2,1.309573636164152165554010028197275
48,922.513824299245334665529309571985649,921.2,1.313824299245334665529309571985649
49,961.317986924330196896668962472409664,960.0,1.317986924330196896668962472409664
50,1000.92206508871366232783752454600946,999.6,1.32206508871366232783752454600946
51,1041.32606215580920355148422601324485,1040.0,1.32606215580920355148422601324485
52,1082.52998129187738736034826946315663,1081.2,1.32998129187738736034826946315663
53,1124.53382548114942445175324519576909,1123.2,1.33382548114942445175324519576909
54,1167.33759753952710471620795815549681,1166.0,1.33759753952710471620795815549681
55,1210.94130012701702357448751550685409,1209.6,1.34130012701702357448751550685409
56,1255.34493575903693025721747972775072,1254.0,1.34493575903693025721747972775072
57,1300.54850681671482995584241541107553,1299.2,1.34850681671482995584241541107553
58,1346.55201555628667458755192625856454,1345.2,1.35201555628667458755192625856454
59,1393.35546411768572296944518420328219,1392.0,1.35546411768572296944518420328219
60,1440.95885453240562668950110239814198,1439.6,1.35885453240562668950110239814198
61,1489.36218873070973373440513522520964,1488.0,1.36218873070973373440513522520964
62,1538.56546854825080092916174341050005,1537.2,1.36546854825080092916174341050005
63,1588.56869573215806435439288190050113,1587.2,1.36869573215806435439288190050113
64,1639.37187194664230442729467669003410,1638.0,1.37187194664230442729467669003410
65,1690.97499877816400749224718993908824,1689.6,1.37499877816400749224718993908824
66,1743.37807774020487842801277421264522,1742.0,1.37807774020487842801277421264522
67,1796.58111027767869648712996376175863,1795.2,1.38111027767869648712996376175863
68,1850.58409777101375042229848466958428,1849.2,1.38409777101375042229848466958428
69,1905.38704153993577628382258507235661,1904.0,1.38704153993577628382258507235661
70,1960.98994284697739300391253137606785,1959.6,1.38994284697739300391253137606785
71,2017.39280290073743217991477082360286,2016.0,1.39280290073743217991477082360286
72,2074.59562285891126022615748963742928,2073.2,1.39562285891126022615748963742928
73,2132.59840383111113805769749408388456,2131.2,1.39840383111113805769749408388456
74,2191.40114688149384462069911290033128,2190.0,1.40114688149384462069911290033128
75,2251.00385303121115948307488411612699,2249.6,1.40385303121115948307488411612699
76,2311.40652326069735014226135672213712,2310.0,1.40652326069735014226135672213712
77,2372.60915851180650730858759528552826,2371.2,1.40915851180650730858759528552826
78,2434.61175968981140562451375960560311,2433.2,1.41175968981140562451375960560311
79,2497.41432766527452046002639716809555,2496.0,1.41432766527452046002639716809555
80,2561.01686327580089329883319266162651,2559.6,1.41686327580089329883319266162651
81,2625.41936732768168888852609468315313,2624.0,1.41936732768168888852609468315313
82,2690.62184059743652587732854363852915,2689.2,1.42184059743652587732854363852915
83,2756.62428383326197392625522697425695,2755.2,1.42428383326197392625522697425695
84,2823.42669775639298599379856056455724,2822.0,1.42669775639298599379856056455724
85,2891.02908306238347521408391391426688,2889.6,1.42908306238347521408391391426688
86,2959.43144042231172992404869411161725,2958.0,1.43144042231172992404869411161725
87,3028.63377048391590292440289746031529,3027.2,1.43377048391590292440289746031529
88,3098.63607387266438768139491933981306,3097.2,1.43607387266438768139491933981306
89,3169.43835119276551067424728586428896,3168.0,1.43835119276551067424728586428896
90,3241.04060302812062587640038949914476,3239.6,1.44060302812062587640038949914476
91,3313.44282994322437590665455824354588,3312.0,1.44282994322437590665455824354588
92,3386.64503248401559608876313164923991,3385.2,1.44503248401559608876313164923991
93,3460.64721117868207540297768224903732,3459.2,1.44721117868207540297768224903732
94,3535.44936653842214538431007242762398,3534.0,1.44936653842214538431007242762398
95,3611.05149905816584686825099095462269,3609.6,1.45149905816584686825099095462269
96,3687.45360921725822266256987006019545,3686.0,1.45360921725822266256987006019545
97,3764.65569748010709988171625916902936,3763.2,1.45569748010709988171625916902936
98,3842.65776429679755280604894821656286,3841.2,1.45776429679755280604894821656286
99,3921.45981010367508365593568970898387,3920.0,1.45981010367508365593568970898387
100,4001.06183532389941233035122400529698,3999.6,1.46183532389941233035122400529698
101,4081.46384036797063685545217907933332,4080.0,1.46384036797063685545217907933332
102,4162.66582563422940071388828760539935,4161.2,1.46582563422940071388828760539935
103,4244.66779150933259531200049099441387,4243.2,1.46779150933259531200049099441387
104,4327.46973836870601857735101103002904,4326.0,1.46973836870601857735101103002904
105,4411.07166657697531760527428595845143,4409.6,1.47166657697531760527428595845143
106,4495.47357648837645250890092015430616,4494.0,1.47357648837645250890092015430616
107,4580.67546844714684054515306875519328,4579.2,1.47546844714684054515306875519328
108,4666.67734278789826034965987999556320,4665.2,1.47734278789826034965987999556320
109,4753.47919983597252752001208372703363,4752.0,1.47919983597252752001208372703363
110,4841.08103990778089036665268115275617,4839.6,1.48103990778089036665268115275617
111,4929.48286331112802878950696989030046,4928.0,1.48286331112802878950696989030046
112,5018.68467034552148980482645475200535,5017.2,1.48467034552148980482645475200535
113,5108.68646130246733771093012520596022,5107.2,1.48646130246733771093012520596022
114,5199.48823646575274812377592317684929,5198.0,1.48823646575274812377592317684929
115,5291.08999611171623466479671364208969,5289.6,1.48999611171623466479671364208969
116,5383.49174050950614875179134870813995,5382.0,1.49174050950614875179134870813995
117,5476.69346992132806123065934851677726,5475.2,1.49346992132806123065934851677726
118,5570.69518460268159355466760268434438,5569.2,1.49518460268159355466760268434438
119,5665.49688480258723250422498003192623,5664.0,1.49688480258723250422498003192623
120,5761.09857076380363659791206124288130,5759.6,1.49857076380363659791206124288130
121,5857.50024272303590407827299128048482,5856.0,1.50024272303590407827299128048482
122,5954.70190091113525344274962215684263,5953.2,1.50190091113525344274962215684263
123,6052.70354555329053529721116306261102,6051.2,1.50354555329053529721116306261102
124,6151.50517686921197662972900146790728,6150.0,1.50517686921197662972900146790728
125,6251.10679507330752903598985471256489,6249.6,1.50679507330752903598985471256489
126,6351.50840037485217723044716815401323,6350.0,1.50840037485217723044716815401323
127,6452.70999297815054359943099594071872,6451.2,1.50999297815054359943099594071872
128,6554.71157308269310196525262155736883,6553.2,1.51157308269310196525262155736883
129,6657.51314088330630165710731240339600,6656.0,1.51314088330630165710731240339600
130,6761.11469657029688460271824698121659,6759.6,1.51469657029688460271824698121659
131,6865.51624032959066275055252339828841,6864.0,1.51624032959066275055252339828841
132,6970.71777234286600815524668385634744,6969.2,1.51777234286600815524668385634744
133,7076.71929278768229627729904551800778,7075.2,1.51929278768229627729904551800778
134,7183.52080183760353177213787600153317,7182.0,1.52080183760353177213787600153317
135,7291.12229966231736793533605727659357,7289.6,1.52229966231736793533605727659357
136,7399.52378642774972728321959988103007,7398.0,1.52378642774972728321959988103007
137,7508.72526229617521744018258030700793,7507.2,1.52526229617521744018258030700793
138,7618.72672742632352289203582017315681,7617.2,1.52672742632352289203582017315681
139,7729.52818197348195105881947382713739,7728.0,1.52818197348195105881947382713739
140,7841.12962608959429569455006408238762,7839.6,1.52962608959429569455006408238762
141,7953.53105992335617606388623331825659,7952.0,1.53105992335617606388623331825659
142,8066.73248362030700227244424339778209,8065.2,1.53248362030700227244424339778209
143,8180.73389732291870847732776453890865,8179.2,1.53389732291870847732776453890865
144,8295.53530117068138852481136912185665,8294.0,1.53530117068138852481136912185665
145,8411.13669530018596437436321299276910,8409.6,1.53669530018596437436321299276910
146,8527.53807984520400979945413520416856,8526.0,1.53807984520400979945413520416856
147,8644.73945493676484365263913578778988,8643.2,1.53945493676484365263913578778988
148,8762.74082070323000802437536776118622,8761.2,1.54082070323000802437536776118622
149,8881.54217727036523309697537240505666,8880.0,1.54217727036523309697537240505666
150,9001.14352476140999233502469170776202,8999.6,1.54352476140999233502469170776202
151,9121.54486329714474392698228556620800,9120.0,1.54486329714474392698228556620800
152,9242.74619299595594877760325316655117,9241.2,1.54619299595594877760325316655117
153,9364.74751397389895400135978613573183,9363.2,1.54751397389895400135978613573183
154,9487.54882634475882581659325282870776,9486.0,1.54882634475882581659325282870776
155,9611.15013022010921007689078350325555,9609.6,1.55013022010921007689078350325555
156,9735.55142570936929830656180548301450,9734.0,1.55142570936929830656180548301450
157,9860.75271291985897028733850511549007,9859.2,1.55271291985897028733850511549007
158,9986.75399195685218501493541862720052,9985.2,1.55399195685218501493541862720052
159,10113.5552629236286836988444531598876,10112.0,1.5552629236286836988444531598876
160,10241.1565259215240711434600362557153,10239.6,1.5565259215240711434600362557153
161,10369.5577810499783340072201699032777,10368.0,1.5577810499783340072201699032777
162,10498.7590284065828554014431935003651,10497.2,1.5590284065828554014431935003651
163,10628.7602680871259806827490514498033,10627.2,1.5602680871259806827490514498033
164,10759.5615001856371890762645746141667,10758.0,1.5615001856371890762645746141667
165,10891.1627247944299197304460664168886,10889.6,1.5627247944299197304460664168886
166,11023.5639420041431027197371278501291,11022.0,1.5639420041431027197371278501291
167,11156.7651519037814422280247964139724,11155.2,1.5651519037814422280247964139724
168,11290.7663545807544946024656699645472,11289.2,1.5663545807544946024656699645472
169,11425.5675501209145863404425539652505,11424.0,1.5675501209145863404425539652505
170,11561.1687386085936117534555631334795,11559.6,1.5687386085936117534555631334795
171,11697.5699201266387505031079590649359,11696.0,1.5699201266387505031079590649359
172,11834.7710947564471428765627453597977,11833.2,1.5710947564471428765627453597977
173,11972.7722625779995582045315260728570,11971.2,1.5722625779995582045315260728570
174,12111.5734236698930922660596818417371,12110.0,1.5734236698930922660596818417371
175,12251.1745781093729276658043720924071,12249.6,1.5745781093729276658043720924071
176,12391.5757259723631868909407190279913,12390.0,1.5757259723631868909407190279913
177,12532.7768673334969113090316252834525,12531.2,1.5768673334969113090316252834525
178,12674.7780022661451952620741416426566,12673.2,1.5780022661451952620741416426566
179,12817.5791308424455017025033918543646,12816.0,1.5791308424455017025033918543646
180,12961.1802531333291903184051446520940,12959.6,1.5802531333291903184051446520940
181,13105.5813692085482807973955160714457,13104.0,1.5813692085482807973955160714457
182,13250.7824791367014789254431504029332,13249.2,1.5824791367014789254431504029332
183,13396.7835829852594885708213937343055,13395.2,1.5835829852594885708213937343055
184,13543.5846808205896337956553461006680,13542.0,1.5846808205896337956553461006680
185,13691.1857727079798129041412571272990,13689.6,1.5857727079798129041412571272990
186,13839.5868587116618053970281762468100,13838.0,1.5868587116618053970281762468100
187,13988.7879388948339556338576245276511,13987.2,1.5879388948339556338576245276511
188,14138.7890133196832486402904898398655,14137.2,1.5890133196832486402904898398655
189,14289.5900820474068017926504921213794,14288.0,1.5900820474068017926504921213794
190,14441.1911451382327880318209782686043,14439.6,1.5911451382327880318209782686043
191,14593.5922026514408098301330353188639,14592.0,1.5922026514408098301330353188639
192,14746.7932546453817402945543426523774,14745.2,1.5932546453817402945543426523774
193,14900.7943011774970497111602157404524,14899.2,1.5943011774970497111602157404524
194,15055.5953423043376308728276423376150,15054.0,1.5953423043376308728276423376150
195,15211.1963780815821411236953121931360,15209.6,1.5963780815821411236953121931360
196,15367.5974085640548748134999582078467,15366.0,1.5974085640548748134999582078467
197,15524.7984338057431805383483407850544,15523.2,1.5984338057431805383483407850544
198,15682.7994538598144373311701513608836,15681.2,1.5994538598144373311701513608836
199,15841.6004687786326026370022271321569,15840.0,1.6004687786326026370022271321569
200,16001.2014786137743460146277494382288,15999.6,1.6014786137743460146277494382288
201,16161.6024834160447795423430725174387,16160.0,1.6024834160447795423430725174387
202,16322.8034832354927983053934969600181,16321.2,1.6034832354927983053934969600181
203,16484.8044781214260416212133185421332,16483.2,1.6044781214260416212133185421332
204,16647.6054681224254866188283678287578,16646.0,1.6054681224254866188283678287578
205,16811.2064532863596841392552102895461,16809.6,1.6064532863596841392552102895461
206,16975.6074336603986499771577512337480,16974.0,1.6074336603986499771577512337480
207,17140.8084092910274173359819202489478,17139.2,1.6084092910274173359819202489478
208,17306.8093802240592647196066146443678,17305.2,1.6093802240592647196066146443678
209,17473.6103465046486250050106105055634,17472.0,1.6103465046486250050106105055634
210,17641.2113081773036871932641536314920,17639.6,1.6113081773036871932641536314920
211,17809.6122652858986981995503272698349,17808.0,1.6122652858986981995503272698349
212,17978.8132178736859749111300840162572,17977.2,1.6132178736859749111300840162572
213,18148.8141659833076308929717075966161,18147.2,1.6141659833076308929717075966161
214,18319.6151096568070327186010659040058,18318.0,1.6151096568070327186010659040058
215,18491.2160489356399851343196349448270,18489.6,1.6160489356399851343196349448270
216,18663.6169838606856590132036276021030,18662.0,1.6169838606856590132036276021030
217,18836.8179144722572660599312789972463,18835.2,1.6179144722572660599312789972463
218,19010.8188408101124892409388330975697,19009.2,1.6188408101124892409388330975697
219,19185.6197629134636722149449970852853,19184.0,1.6197629134636722149449970852853
220,19361.2206808209877802741183773001620,19359.6,1.6206808209877802741183773001620
221,19537.6215945708361307003828832689948,19536.0,1.6215945708361307003828832689948
222,19714.8225042006439097364806166486522,19713.2,1.6225042006439097364806166486522
223,19892.8234097475394697349338668657607,19891.2,1.6234097475394697349338668657607
224,20071.6243112481534215465687525661693,20070.0,1.6243112481534215465687525661693
225,20251.2252087386275247075672919845265,20249.6,1.6252087386275247075672919845265
226,20431.6261022546233789654698043306052,20430.0,1.6261022546233789654698043306052
227,20612.8269918313309257895153288971564,20611.2,1.6269918313309257895153288971564
228,20794.8278775034767616781265889099582,20793.2,1.6278775034767616781265889099582
229,20977.6287593053322704183492776497006,20976.0,1.6287593053322704183492776497006
230,21161.2296372707215789862174620414144,21159.6,1.6296372707215789862174620414144
231,21345.6305114330293388801089959104495,21344.0,1.6305114330293388801089959104495
232,21530.8313818252083432988763565921704,21529.2,1.6313818252083432988763565921704
233,21716.8322484797869751531910929492321,21715.2,1.6322484797869751531910929492321
234,21903.6331114288765020591765360548244,21902.0,1.6331114288765020591765360548244
235,22091.2339707041782114885116715159495,22089.6,1.6339707041782114885116715159495
236,22279.6348263369903957769361457868790,22278.0,1.6348263369903957769361457868790
237,22468.8356783582151906145244724048452,22467.2,1.6356783582151906145244724048452
238,22658.8365267983652687520616128152679,22657.2,1.6365267983652687520616128152679
