Eigenstate,Energy,Kinetic Energy,Potential Energy
1,0.500000000050873543737635275353544711,0.0,0.500000000050873543737635275353544711
2,1.84623093798319075456752943901569402,1.2,0.64623093798319075456752943901569402
3,3.93633761068042302725228635354946467,3.2,0.73633761068042302725228635354946467
4,6.79966527984598603426030183088043454,6.0,0.79966527984598603426030183088043454
5,10.4480465788050916149253307040413459,9.6,0.8480465788050916149253307040413459
6,14.8870660023162318514323832783495785,14.0,0.8870660023162318514323832783495785
7,20.1197208318193743932142725863064335,19.2,0.9197208318193743932142725863064335
8,26.1477838536924207511569946274806188,25.2,0.9477838536924207511569946274806188
9,32.9723835669422147270656916704196100,32.0,0.9723835669422147270656916704196100
10,40.5942802257176938308742750399240658,39.6,0.9942802257176938308742750399240658
11,49.0140094001601542469627687320356441,48.0,1.0140094001601542469627687320356441
12,58.2319621855744211187328602686457834,57.2,1.0319621855744211187328602686457834
13,68.2484327120264613900756459028642751,67.2,1.0484327120264613900756459028642751
14,79.0636476771995574441675411715452539,78.0,1.0636476771995574441675411715452539
15,90.6777854622084992944630747784748106,89.6,1.0777854622084992944630747784748106
16,103.090988936470034306425711413747393,102.0,1.090988936470034306425711413747393
17,116.303374291164374661669893825362731,115.2,1.103374291164374661669893825362731
18,130.315037290241399006907514732684947,129.2,1.115037290241399006907514732684947
19,145.126057793524631645188075594624582,144.0,1.126057793524631645188075594624582
20,160.736503094345180134446691370516801,159.6,1.136503094345180134446691370516801
21,177.146430425623433328567595208545616,176.0,1.146430425623433328567595208545616
22,194.355888871027802163642836951736503,193.2,1.155888871027802163642836951736503
23,212.364920842911244814188534112391625,211.2,1.164920842911244814188534112391625
24,231.173563239711689241783225928790847,230.0,1.173563239711689241783225928790847
25,250.781848362747959893452369470256445,249.6,1.181848362747959893452369470256445
26,271.189804650027365697036896781277129,270.0,1.189804650027365697036896781277129
27,292.397457269208276094405964954174717,291.2,1.197457269208276094405964954174717
28,314.404828600959161040698316746812146,313.2,1.204828600959161040698316746812146
29,337.211938636160543073802096250422525,336.0,1.211938636160543073802096250422525
30,360.818805304746821987242855172742889,359.6,1.218805304746821987242855172742889
31,385.225444749838994138326526004126409,384.0,1.225444749838994138326526004126409
32,410.431871557741388837762836528571134,409.2,1.231871557741388837762836528571134
33,436.438098952065896462216183885563979,435.2,1.238098952065896462216183885563979
34,463.244138958496616664605599731938768,462.0,1.244138958496616664605599731938768
35,490.850002545368659990937551790583085,489.6,1.250002545368659990937551790583085
36,519.255699744201357333662049872888350,518.0,1.255699744201357333662049872888350
37,548.461239753522047102849458978163341,547.2,1.261239753522047102849458978163341
38,578.466631028686191253214848691965282,577.2,1.266631028686191253214848691965282
39,609.271881359901722655402720767568079,608.0,1.271881359901722655402720767568079
40,640.876997940269705516327640034829419,639.6,1.276997940269705516327640034829419
41,673.281987425336640279590537705234309,672.0,1.281987425336640279590537705234309
42,706.486855985398751835443451560799691,705.2,1.286855985398751835443451560799691
43,740.491609351592113524827164827398479,739.2,1.291609351592113524827164827398479
44,775.296252856634365406477557517918025,774.0,1.296252856634365406477557517918025
45,810.900791470946215687080671810877976,809.6,1.300791470946215687080671810877976
46,847.305229834767777931848566431357951,846.0,1.305229834767777931848566431357951
47,884.509572286791320060545330720239219,883.2,1.309572286791320060545330720239219
48,922.513822889754414769735880904025664,921.2,1.313822889754414769735880904025664
49,961.317985453372818478126747511848341,960.0,1.317985453372818478126747511848341
50,1000.92206355493828317820934630437977,999.6,1.32206355493828317820934630437977
51,1041.32606055786103861493942428444123,1040.0,1.32606055786103861493942428444123
52,1082.52997962839833699788331572327108,1081.2,1.32997962839833699788331572327108
53,1124.53382375077800233471271276662327,1123.2,1.33382375077800233471271276662327
54,1167.33759574089836534247117475721594,1166.0,1.33759574089836534247117475721594
55,1210.94129825876248940052170813195383,1209.6,1.34129825876248940052170813195383
56,1255.34493381978451843895791270750976,1254.0,1.34493381978451843895791270750976
57,1300.54850480508877869114080580982992,1299.2,1.34850480508877869114080580982992
58,1346.55201347090746905273144838465433,1345.2,1.35201347090746905273144838465433
59,1393.35546195717002084231314157632240,1392.0,1.35546195717002084231314157632240
60,1440.95885229536618325099411041778418,1439.6,1.35885229536618325099411041778418
61,1489.36218641575532654087616903829661,1488.0,1.36218641575532654087616903829661
62,1538.56546615398615404716091752303153,1537.2,1.36546615398615404716091752303153
63,1588.56869325718377214964384385694817,1587.2,1.36869325718377214964384385694817
64,1639.37186938955475489942418654939049,1638.0,1.37186938955475489942418654939049
65,1690.97499613755530514668533797345783,1689.6,1.37499613755530514668533797345783
66,1743.37807501466276667634599077013510,1742.0,1.37807501466276667634599077013510
67,1796.58110746578647956705619257537819,1795.2,1.38110746578647956705619257537819
68,1850.58409487135021482820367178027185,1849.2,1.38409487135021482820367178027185
69,1905.38703855107511169886882770707262,1904.0,1.38703855107511169886882770707262
70,1960.98993976748911272440231187700098,1959.6,1.38993976748911272440231187700098
71,2017.39279972918629302256820485495757,2016.0,1.39279972918629302256820485495757
72,2074.59561959385718190881533167621656,2073.2,1.39561959385718190881533167621656
73,2132.59840047110912204383603145781613,2131.2,1.39840047110912204383603145781613
74,2191.40114342509389241801845282050595,2190.0,1.40114342509389241801845282050595
75,2251.00384947695819038629554743923772,2249.6,1.40384947695819038629554743923772
76,2311.40651960713111841013833568808419,2310.0,1.40651960713111841013833568808419
77,2372.60915475746151876502298754463404,2371.2,1.40915475746151876502298754463404
78,2434.61175583321683367352085968476798,2433.2,1.41175583321683367352085968476798
79,2497.41432370495412150416831582211334,2496.0,1.41432370495412150416831582211334
80,2561.01685921027292155062851282777202,2559.6,1.41685921027292155062851282777202
81,2625.41936315545881056418085898109506,2624.0,1.41936315545881056418085898109506
82,2690.62183631702573276202003115923876,2689.2,1.42183631702573276202003115923876
83,2756.62427944316449630005680774924271,2755.2,1.42427944316449630005680774924271
84,2823.42669325510420490719678359605489,2822.0,1.42669325510420490719678359605489
85,2891.02907844839283410189925756849725,2889.6,1.42907844839283410189925756849725
86,2959.43143569410264554642915554744640,2958.0,1.43143569410264554642915554744640
87,3028.63376563996567562341509072351565,3027.2,1.43376563996567562341509072351565
88,3098.63606891144411094159074862733539,3097.2,1.43606891144411094159074862733539
89,3169.43834611273997997543531892461128,3168.0,1.43834611273997997543531892461128
90,3241.04059782774824682669938270642273,3239.6,1.44059782774824682669938270642273
91,3313.44282462095707164375198275296964,3312.0,1.44282462095707164375198275296964
92,3386.64502703829871393714534054229005,3385.2,1.44502703829871393714534054229005
93,3460.64720560795429277473815573013389,3459.2,1.44720560795429277473815573013389
94,3535.44936084111537491098021073466387,3534.0,1.44936084111537491098021073466387
95,3611.05149323270514075093207787337084,3609.6,1.45149323270514075093207787337084
96,3687.45360326206167622747710055284746,3686.0,1.45360326206167622747710055284746
97,3764.65569139358575432807353285079273,3763.2,1.45569139358575432807353285079273
98,3842.65775807735529713309959879251927,3841.2,1.45775807735529713309959879251927
99,3921.45980374970855575565552558106981,3920.0,1.45980374970855575565552558106981
100,4001.06182883379789923227019538628628,3999.6,1.46182883379789923227019538628628
101,4081.46383374011597410980578904438524,4080.0,1.46383374011597410980578904438524
102,4162.66581886699587089913269547529970,4161.2,1.46581886699587089913269547529970
103,4244.66778460108682565253390125093949,4243.2,1.46778460108682565253390125093949
104,4327.46973131780687765708812139884470,4326.0,1.46973131780687765708812139884470
105,4411.07165938177381116252344716781805,4409.6,1.47165938177381116252344716781805
106,4495.47356914721561829779010618525921,4494.0,1.47356914721561829779010618525921
107,4580.67546095836164224864524386080662,4579.2,1.47546095836164224864524386080662
108,4666.67733514981548052898837734692244,4665.2,1.47733514981548052898837734692244
109,4753.47919204691065958515198377541938,4752.0,1.47919204691065958515198377541938
110,4841.08103196605002955222675437016321,4839.6,1.48103196605002955222675437016321
111,4929.48285521502976212030232895265865,4928.0,1.48285521502976212030232895265865
112,5018.68466209334878503487112181299233,5017.2,1.48466209334878503487112181299233
113,5108.68645289250443121984865614991912,5107.2,1.48645289250443121984865614991912
114,5199.48822789627503175390756555726231,5198.0,1.48822789627503175390756555726231
115,5291.08998738099014148231976593976109,5289.6,1.48998738099014148231976593976109
116,5383.49173161578903771485337177496739,5382.0,1.49173161578903771485337177496739
117,5476.69346086286810074726388239494220,5475.2,1.49346086286810074726388239494220
118,5570.69517537771764391281379129018153,5569.2,1.49517537771764391281379129018153
119,5665.49687540934872715653852694971529,5664.0,1.49687540934872715653852694971529
120,5761.09856120051046228274167661617130,5759.6,1.49856120051046228274167661617130
121,5857.50023298789827975895816247818024,5856.0,1.50023298789827975895816247818024
122,5954.70189100235360804649127142563251,5953.2,1.50189100235360804649127142563251
123,6052.70353546905538423469775654839715,6051.2,1.50353546905538423469775654839715
124,6151.50516660770379707638615697475585,6150.0,1.50516660770379707638615697475585
125,6251.10678463269663395543086204014453,6249.6,1.50678463269663395543086204014453
126,6351.50838975329858812040658112959294,6350.0,1.50838975329858812040658112959294
127,6452.70998217380386194016169096679479,6451.2,1.50998217380386194016169096679479
128,6554.71156209369237935005914340116604,6553.2,1.51156209369237935005914340116604
129,6657.51312970777990858437530564614124,6656.0,1.51312970777990858437530564614124
130,6761.11468520636237790848014776125025,6759.6,1.51468520636237790848014776125025
131,6865.51622877535465166030390289403737,6864.0,1.51622877535465166030390289403737
132,6970.71776059642401893339505402132905,6969.2,1.51776059642401893339505402132905
133,7076.71928084711863545228965222024916,7075.2,1.51928084711863545228965222024916
134,7183.52078970099114791495437435624095,7182.0,1.52078970099114791495437435624095
135,7291.12228732771771196872233150404829,7289.6,1.52228732771771196872233150404829
136,7399.52377389321261129861057410143876,7398.0,1.52377389321261129861057410143876
137,7508.72524955973867199896507642680167,7507.2,1.52524955973867199896507642680167
138,7618.72671448601365278738781951597257,7617.2,1.52671448601365278738781951597257
139,7729.52816882731278951399559587246814,7728.0,1.52816882731278951399559587246814
140,7841.12961273556765697309151998222684,7839.6,1.52961273556765697309151998222684
141,7953.53104635946150646684044620549984,7952.0,1.53104635946150646684044620549984
142,8066.73246984452122949727268210792467,8065.2,1.53246984452122949727268210792467
143,8180.73388333320608931277072133007577,8179.2,1.53388333320608931277072133007577
144,8295.53528696499335485555732231674053,8294.0,1.53528696499335485555732231674053
145,8411.13668087646096746894353307396121,8409.6,1.53668087646096746894353307396121
146,8527.53806520136736285434513178301553,8526.0,1.53806520136736285434513178301553
147,8644.73944007072856256510947662903777,8643.2,1.53944007072856256510947662903777
148,8762.74080561289265036616160767830678,8761.2,1.54080561289265036616160767830678
149,8881.54216195361173526040439083719872,8880.0,1.54216195361173526040439083719872
150,9001.14350921611150482272992621481989,8999.6,1.54350921611150482272992621481989
151,9121.54484752115846475587653932038222,9120.0,1.54484752115846475587653932038222
152,9242.74617698712495496727992475956147,9241.2,1.54617698712495496727992475956147
153,9364.74749773005203111659150367639698,9363.2,1.54749773005203111659150367639698
154,9487.54880986371029553308436225108899,9486.0,1.54880986371029553308436225108899
155,9611.15011349965875573891785873050567,9609.6,1.55011349965875573891785873050567
156,9735.55140874730178844460185227607720,9734.0,1.55140874730178844460185227607720
157,9860.75269571394428006324129354549376,9859.2,1.55269571394428006324129354549376
158,9986.75397450484501556163986417226084,9985.2,1.55397450484501556163986417226084
159,10113.5552452232683793210733054003394,10112.0,1.5552452232683793210733054003394
160,10241.1565079705344343452471985116948,10239.6,1.5565079705344343452471985116948
161,10369.5577628460674383115356484612546,10368.0,1.5577628460674383115356484612546
162,10498.7590099474428559265774611622184,10497.2,1.5590099474428559265774611622184
163,10628.7602493704329224395044656053090,10627.2,1.5602493704329224395044656053090
164,10759.5614812090508129493726619288467,10758.0,1.5614812090508129493726619288467
165,10891.1627055555934661069892345750558,10889.6,1.5627055555934661069892345750558
166,11023.5639225006831127266996428045306,11022.0,1.5639225006831127266996428045306
167,11156.7651321333075565404300142714088,11155.2,1.5651321333075565404300142714088
168,11290.7663345408592497828741473696901,11289.2,1.5663345408592497828741473696901
169,11425.5675298091732086698911085029944,11424.0,1.5675298091732086698911085029944
170,11561.1687180225638085132055231583658,11559.6,1.5687180225638085132055231583658
171,11697.5698992638604986658466699940580,11696.0,1.5698992638604986658466699940580
172,11834.7710736144424751649605675880493,11833.2,1.5710736144424751649605675880493
173,11972.7722411542723464743018021387860,11971.2,1.5722411542723464743018021387860
174,12111.5734019619288281698948912841630,12110.0,1.5734019619288281698948912841630
175,12251.1745561146385005537747342660926,12249.6,1.5745561146385005537747342660926
176,12391.5757036883066589021347289596201,12390.0,1.5757036883066589021347289596201
177,12532.7768447575472896083965023246349,12531.2,1.5768447575472896083965023246349
178,12674.7779793957122013755736242636486,12673.2,1.5779793957122013755736242636486
179,12817.5791076749193379028514421500067,12816.0,1.5791076749193379028514421500067
180,12961.1802296660803030127585194122132,12959.6,1.5802296660803030127585194122132
181,13105.5813454389271208674920072903731,13104.0,1.5813454389271208674920072903731
182,13250.7824550620382589697589567623066,13249.2,1.5824550620382589697589567623066
183,13396.7835586028639369973840365330406,13395.2,1.5835586028639369973840365330406
184,13543.5846561277507457131961564797567,13542.0,1.5846561277507457131961564797567
185,13691.1857477019655977582941256399374,13689.6,1.5857477019655977582941256399374
186,13839.5868333897190312972867278693458,13838.0,1.5868333897190312972867278693458
187,13988.7879132541878903159817480427181,13987.2,1.5879132541878903159817480427181
188,14138.7889873575373970078144982390931,14137.2,1.5889873575373970078144982390931
189,14289.5900557609426399800801121619308,14288.0,1.5900557609426399800801121619308
190,14441.1911185246094939310207461136876,14439.6,1.5911185246094939310207461136876
191,14593.5921757077949900202925573026180,14592.0,1.5921757077949900202925573026180
192,14746.7932273688271533149881782058437,14745.2,1.5932273688271533149881782058437
193,14900.7942735651243256150344909087149,14899.2,1.5942735651243256150344909087149
194,15055.5953143532139869987200142154744,15054.0,1.5953143532139869987200142154744
195,15211.1963497887510940206815142392151,15209.6,1.5963497887510940206815142392151
196,15367.5973799265359482542204472331797,15366.0,1.5973799265359482542204472331797
197,15524.7984048205316095532404297822242,15523.2,1.5984048205316095532404297822242
198,15682.7994245238808681957547089155854,15681.2,1.5994245238808681957547089155854
199,15841.6004390889227887427875799149979,15840.0,1.6004390889227887427875799149979
200,16001.2014485672088395528385537675251,15999.6,1.6014485672088395528385537675251
201,16161.6024530095186189282964412155473,16160.0,1.6024530095186189282964412155473
202,16322.8034524658751912699235566471088,16321.2,1.6034524658751912699235566471088
203,16484.8044469855600438940998788209347,16483.2,1.6044469855600438940998788209347
204,16647.6054366171276761276978301463938,16646.0,1.6054366171276761276978301463938
205,16811.2064214084198306459081355941666,16809.6,1.6064214084198306459081355941666
206,16975.6074014065793800717227109525776,16974.0,1.6074014065793800717227109525776
207,17140.8083766580638747077089198316453,17139.2,1.6083766580638747077089198316453
208,17306.8093472086587656214887988634512,17305.2,1.6093472086587656214887988634512
209,17473.6103131034903088277603486040275,17472.0,1.6103131034903088277603486040275
210,17641.2112743870381620624688107727430,17639.6,1.6112743870381620624688107727430
211,17809.6122311031476815080939150862080,17808.0,1.6122311031476815080939150862080
212,17978.8131832950419286971846638626726,17977.2,1.6131832950419286971846638626726
213,18148.8141310053333919720396396440298,18147.2,1.6141310053333919720396396440298
214,18319.6150742760354374762253433018034,18318.0,1.6150742760354374762253433018034
215,18491.2160131485734888841678540175395,18489.6,1.6160131485734888841678540175395
216,18663.6169476637959498232780571879905,18662.0,1.6169476637959498232780571879905
217,18836.8178778619848729476557473029536,18835.2,1.6178778619848729476557473029536
218,19010.8188037828663846358262640857426,19009.2,1.6188037828663846358262640857426
219,19185.6197254656208685854486312229035,19184.0,1.6197254656208685854486312229035
220,19361.2206429488929208131260919975339,19359.6,1.6206429488929208131260919975339
221,19537.6215562708010739616130105254113,19536.0,1.6215562708010739616130105254113
222,19714.8224654689473081117859581718933,19713.2,1.6224654689473081117859581718933
223,19892.8233705804263416602145328180445,19891.2,1.6233705804263416602145328180445
224,20071.6242716418347173216328852786460,20070.0,1.6242716418347173216328852786460
225,20251.2251686892796858128584800240852,20249.6,1.6251686892796858128584800240852
226,20431.6260617583878907561023276776730,20430.0,1.6260617583878907561023276776730
227,20612.8269508843138634445204969135802,20611.2,1.6269508843138634445204969135802
228,20794.8278361017483292802104243163333,20793.2,1.6278361017483292802104243163333
229,20977.6287174449263330367988151511041,20976.0,1.6287174449263330367988151511041
230,21161.2295949476351876328615729962727,21159.6,1.6295949476351876328615729962727
231,21345.6304686432222482054423860003167,21344.0,1.6304686432222482054423860003167
232,21530.8313385646025218925866676619589,21529.2,1.6313385646025218925866676619589
233,21716.8322047442661083103914806894109,21715.2,1.6322047442661083103914806894109
234,21903.6330672142854868706336967979093,21902.0,1.6330672142854868706336967979093
235,22091.2339260063226441100721207387026,22089.6,1.6339260063226441100721207387026
236,22279.6347811516360507301884924135385,22278.0,1.6347811516360507301884924135385
237,22468.8356326810874919674899518653818,22467.2,1.6356326810874919674899518653818
238,22658.8364806251487530253804333983971,22657.2,1.6364806251487530253804333983971
