Eigenstate,Energy,Kinetic Energy,Potential Energy
1,0.500000000586092899052598792498393590,0.0,0.500000000586092899052598792498393590
2,1.84623094147689648669478454474984380,1.2,0.64623094147689648669478454474984380
3,3.93633762094323331567368813841957824,3.2,0.73633762094323331567368813841957824
4,6.79966530122319435518765067698396846,6.0,0.79966530122319435518765067698396846
5,10.4480466158368799631052772673591086,9.6,0.8480466158368799631052772673591086
6,14.8870660596235656547535883015650865,14.0,0.8870660596235656547535883015650865
7,20.1197209140621733325384762681070201,19.2,0.9197209140621733325384762681070201
8,26.1477839655523114956977270560323518,25.2,0.9477839655523114956977270560323518
9,32.9723837131146923685362233135549845,32.0,0.9723837131146923685362233135549845
10,40.5942804109083108888002391945572106,39.6,0.9942804109083108888002391945572106
11,49.0140096290826061017501166064404604,48.0,1.0140096290826061017501166064404604
12,58.2319624629495982756138434730844766,57.2,1.0319624629495982756138434730844766
13,68.2484330425820285390002206707739522,67.2,1.0484330425820285390002206707739522
14,79.0636480656698361503761741245589829,78.0,1.0636480656698361503761741245589829
15,90.6777859133345343310153799294633799,89.6,1.0777859133345343310153799294633799
16,103.090989454999775816645428717755694,102.0,1.090989454999775816645428717755694
17,116.303374881852936149561630533987325,115.2,1.103374881852936149561630533987325
18,130.315037957851366668048453029033190,129.2,1.115037957851366668048453029033190
19,145.126058542826409557723740619479580,144.0,1.126058542826409557723740619479580
20,160.736503930117361245881828415524031,159.6,1.136503930117361245881828415524031
21,177.146431352653189533723797556219620,176.0,1.146431352653189533723797556219620
22,194.355889894111288911902849138924228,193.2,1.155889894111288911902849138924228
23,212.364921966854017085237447077971608,211.2,1.164921966854017085237447077971608
24,231.173564469329126666029292253550142,230.0,1.173564469329126666029292253550142
25,250.781849702865699432824009652713079,249.6,1.181849702865699432824009652713079
26,271.189806105481740746540386434576258,270.0,1.189806105481740746540386434576258
27,292.397458844846761179369220442839212,291.2,1.197458844846761179369220442839212
28,314.404830301640821510640816998679794,313.2,1.204830301640821510640816998679794
29,337.211940466756489358666002323787614,336.0,1.211940466756489358666002323787614
30,360.818807270140668103529272562101332,359.6,1.218807270140668103529272562101332
31,385.225446854927320223881328340343775,384.0,1.225446854927320223881328340343775
32,410.431873807434207563076298609422704,409.2,1.231873807434207563076298609422704
33,436.438101351287123219101614557637028,435.2,1.238101351287123219101614557637028
34,463.244141512184543474223547843118083,462.0,1.244141512184543474223547843118083
35,490.850005258476433105360140787561857,489.6,1.250005258476433105360140787561857
36,519.255702621697458530717368669679453,518.0,1.255702621697458530717368669679453
37,548.461242800390778694458407106309987,547.2,1.261242800390778694458407106309987
38,578.466634249928164844018705985254578,577.2,1.266634249928164844018705985254578
39,609.271884760534351702069476407422167,608.0,1.271884760534351702069476407422167
40,640.877001525327701749188097695590853,639.6,1.277001525327701749188097695590853
41,673.281991199872514057699815802385700,672.0,1.281991199872514057699815802385700
42,706.486859954483316514181653417149774,705.2,1.286859954483316514181653417149774
43,740.491613520314993922044871295728331,739.2,1.291613520314993922044871295728331
44,775.296257230104510459191713339592818,774.0,1.296257230104510459191713339592818
45,810.900796054292415396018999187627340,809.6,1.300796054292415396018999187627340
46,847.305234633139184695870662731077531,846.0,1.305234633139184695870662731077531
47,884.509577305357974507249401058348040,883.2,1.309577305357974507249401058348040
48,922.513828133707776192486471075539452,921.2,1.313828133707776192486471075539452
49,961.317990927926299993381292944466659,960.0,1.317990927926299993381292944466659
50,1000.92206926532779172044254027987681,999.6,1.32206926532779172044254027987681
51,1041.32606650934551988971166240385173,1040.0,1.32606650934551988971166240385173
52,1082.52998582626032551671191843307412,1081.2,1.32998582626032551671191843307412
53,1124.53383020032417665841597737509177,1123.2,1.33383020032417665841597737509177
54,1167.33760244746010866259377230869460,1166.0,1.33760244746010866259377230869460
55,1210.94130522769645559133539183478962,1209.6,1.34130522769645559133539183478962
56,1255.34494105647320371538560782890198,1254.0,1.34494105647320371538560782890198
57,1300.54851231494109901078893934656718,1299.2,1.34851231494109901078893934656718
58,1346.55202125935934340305301995429768,1345.2,1.35202125935934340305301995429768
59,1393.35547002968496055676573695810964,1392.0,1.35547002968496055676573695810964
60,1440.95886065743588750092267934507520,1439.6,1.35886065743588750092267934507520
61,1489.36219507290028415274307311087254,1488.0,1.36219507290028415274307311087254
62,1538.56547511175625179767517063597019,1537.2,1.36547511175625179767517063597019
63,1588.56870252115890969431318619871321,1587.2,1.36870252115890969431318619871321
64,1639.37187896534546649307555285250983,1638.0,1.37187896534546649307555285250983
65,1690.97500603080338831757897462891595,1689.6,1.37500603080338831757897462891595
66,1743.37808523104191801864443147307198,1742.0,1.37808523104191801864443147307198
67,1796.58111801100293781961423279471138,1795.2,1.38111801100293781961423279471138
68,1850.58410575114341141091841175787361,1849.2,1.38410575114341141091841175787361
69,1905.38704977121832888117933126244822,1904.0,1.38704977121832888117933126244822
70,1960.98995133379014960395046169914382,1959.6,1.38995133379014960395046169914382
71,2017.39281164748813949554629335345098,2016.0,1.39281164748813949554629335345098
72,2074.59563187003870081711552144506356,2073.2,1.39563187003870081711552144506356
73,2132.59841311108573968780581491090316,2131.2,1.39841311108573968780581491090316
74,2191.40115643481829762740117496055897,2190.0,1.40115643481829762740117496055897
75,2251.00386286242104234581242493942624,2249.6,1.40386286242104234581242493942624
76,2311.40653337436176344014142794708456,2310.0,1.40653337436176344014142794708456
77,2372.60916891252871626173060097089596,2371.2,1.40916891252871626173060097089596
78,2434.61177038222949141753419327099403,2433.2,1.41177038222949141753419327099403
79,2497.41433865406204055026712923838322,2496.0,1.41433865406204055026712923838322
80,2561.01687456566755091625694391982442,2559.6,1.41687456566755091625694391982442
81,2625.41937892337401193856984399739593,2624.0,1.41937892337401193856984399739593
82,2690.62185250373855546254734111773505,2689.2,1.42185250373855546254734111773505
83,2756.62429605499596270722834587314860,2755.2,1.42429605499596270722834587314860
84,2823.42671029842010661454659447999644,2822.0,1.42671029842010661454659447999644
85,2891.02909592960453902215326597218852,2889.6,1.42909592960453902215326597218852
86,2959.43145361966791622046348368526257,2958.0,1.43145361966791622046348368526257
87,3028.63378401638949898387088513654654,3027.2,1.43378401638949898387088513654654
88,3098.63608774527953978848397140312551,3097.2,1.43608774527953978848397140312551
89,3169.43836541058898642672871513447914,3168.0,1.43836541058898642672871513447914
90,3241.04061759626258801258993594200131,3239.6,1.44061759626258801258993594200131
91,3313.44284486683916791937577984712201,3312.0,1.44284486683916791937577984712201
92,3386.64504776830253989451318083303487,3385.2,1.44504776830253989451318083303487
93,3460.64722682888628134100319112276025,3459.2,1.44722682888628134100319112276025
94,3535.44938255983533482659841108836711,3534.0,1.44938255983533482659841108836711
95,3611.05151545612718772792342464050836,3609.6,1.45151545612718772792342464050836
96,3687.45362599715517809482449692852236,3686.0,1.45362599715517809482449692852236
97,3764.65571464737629047832582148855284,3763.2,1.45571464737629047832582148855284
98,3842.65778185692563259146806877389600,3841.2,1.45778185692563259146806877389600
99,3921.45982806219963020032487965884129,3920.0,1.45982806219963020032487965884129
100,4001.06185368640983130229075650992596,3999.6,1.46185368640983130229075650992596
101,4081.46385914010908134479422735844696,4080.0,1.46385914010908134479422735844696
102,4162.66584482169170566309799841481442,4161.2,1.46584482169170566309799841481442
103,4244.66781111786922740246592378506983,4243.2,1.46781111786922740246592378506983
104,4327.46975840412304192551085100521985,4326.0,1.46975840412304192551085100521985
105,4411.07168704513537563201933221822366,4409.6,1.47168704513537563201933221822366
106,4495.47359739519976635457268912079675,4494.0,1.47359739519976635457268912079675
107,4580.67548979861222441158320102178969,4579.2,1.47548979861222441158320102178969
108,4666.67736459004415416008606424310040,4665.2,1.47736459004415416008606424310040
109,4753.47922209489804729737774637931300,4752.0,1.47922209489804729737774637931300
110,4841.08106262964689674074946865876692,4839.6,1.48106262964689674074946865876692
111,4929.48288650215821405367201418155592,4928.0,1.48288650215821405367201418155592
112,5018.68469401200348395346161245570385,5017.2,1.48469401200348395346161245570385
113,5108.68648545075383389998182346971258,5107.2,1.48648545075383389998182346971258
114,5199.48826110226264800751084830965936,5198.0,1.48826110226264800751084830965936
115,5291.09002124293581407374255941203847,5289.6,1.49002124293581407374255941203847
116,5383.49176614199024418859261164624687,5382.0,1.49176614199024418859261164624687
117,5476.69349606170127767283769563931096,5475.2,1.49349606170127767283769563931096
118,5570.69521125763953406588901467987158,5569.2,1.49521125763953406588901467987158
119,5665.49691197889775016867104358066514,5664.0,1.49691197889775016867104358066514
120,5761.09859846830810930574335733438131,5759.6,1.49859846830810930574335733438131
121,5857.50027096265053270397789407720010,5856.0,1.50027096265053270397789407720010
122,5954.70192969285238397239603075697726,5953.2,1.50192969285238397239603075697726
123,6052.70357488418000547528458968989233,6051.2,1.50357488418000547528458968989233
124,6151.50520675642248771135931083399238,6150.0,1.50520675642248771135931083399238
125,6251.10682552406804324595882096046273,6249.6,1.50682552406804324595882096046273
126,6351.50843139647334154644228346086687,6350.0,1.50843139647334154644228346086687
127,6452.71002457802614049358706669219614,6451.2,1.51002457802614049358706669219614
128,6554.71160526830152775512307377778196,6553.2,1.51160526830152775512307377778196
129,6657.51317366221207313483700080825874,6656.0,1.51317366221207313483700080825874
130,6761.11472995015217462938778280475410,6759.6,1.51472995015217462938778280475410
131,6865.51627431813686552143167290092649,6864.0,1.51627431813686552143167290092649
132,6970.71780694793533486106189716746064,6969.2,1.51780694793533486106189716746064
133,7076.71932801719940190660493138781348,7075.2,1.51932801719940190660493138781348
134,7183.52083769958717382051327448973618,7182.0,1.52083769958717382051327448973618
135,7291.12233616488209780841364327524319,7289.6,1.52233616488209780841364327524319
136,7399.52382357910761520253674342938998,7398.0,1.52382357910761520253674342938998
137,7508.72530010463761168353652259074449,7507.2,1.52530010463761168353652259074449
138,7618.72676590030284422345337889969880,7617.2,1.52676590030284422345337889969880
139,7729.52822112149352322745218117263611,7728.0,1.52822112149352322745218117263611
140,7841.12966592025821290679327222959609,7839.6,1.52966592025821290679327222959609
141,7953.53110044539920835883617863765238,7952.0,1.53110044539920835883617863765238
142,8066.73252484256453975747433755499866,8065.2,1.53252484256453975747433755499866
143,8180.73393925433674540812217510757494,8179.2,1.53393925433674540812217510757494
144,8295.53534382031854824265940128804403,8294.0,1.53534382031854824265940128804403
145,8411.13673867721556614294772090576009,8409.6,1.53673867721556614294772090576009
146,8527.53812395891617861378066704156062,8526.0,1.53812395891617861378066704156062
147,8644.73949979656866412419038875062204,8643.2,1.53949979656866412419038875062204
148,8762.74086631865572347908134389919132,8761.2,1.54086631865572347908134389919132
149,8881.54222365106649105620354498364565,8880.0,1.54222365106649105620354498364565
150,9001.14357191716613758454762969175789,8999.6,1.54357191716613758454762969175789
151,9121.54491123786316041483946451494145,9120.0,1.54491123786316041483946451494145
152,9242.74624173167445161896008699394393,9241.2,1.54624173167445161896008699394393
153,9364.74756351478823290694347079851683,9363.2,1.54756351478823290694347079851683
154,9487.54887670112494130110225490561698,9486.0,1.54887670112494130110225490561698
155,9611.15018140239614384497249986624553,9609.6,1.55018140239614384497249986624553
156,9735.55147772816155925660763427739877,9734.0,1.55147772816155925660763427739877
157,9860.75276578588425761748578569900053,9859.2,1.55276578588425761748578569900053
158,9986.75404568098410996138022971226245,9985.2,1.55404568098410996138022971226245
159,10113.5553175168895514838974177036472,10112.0,1.5553175168895514838974177036472
160,10241.1565813950877247597967210627553,10239.6,1.5565813950877247597967210627553
161,10369.5578374151730615155538121613494,10368.0,1.5578374151730615155538121613494
162,10498.7590856748943624714515451672541,10497.2,1.5590856748943624714515451672541
163,10628.7603262702004301615827307262281,10627.2,1.5603262702004301615827307262281
164,10759.5615592952843094254531667325048,10758.0,1.5615592952843094254531667325048
165,10891.1627848426261842305580983798446,10889.6,1.5627848426261842305580983798446
166,11023.5640030030349814028322892063588,11022.0,1.5640030030349814028322892063588
167,11156.7652138656887285608579699899610,11155.2,1.5652138656887285608579699899610
168,11290.7664175181737090086519139986680,11289.2,1.5664175181737090086519139986680
169,11425.5676140465224587174524331217943,11424.0,1.5676140465224587174524331217943
170,11561.1688035352506452105151590697822,11559.6,1.5688035352506452105151590697822
171,11697.5699860673928686188921825418462,11696.0,1.5699860673928686188921825418462
172,11834.7711617245374228511516666235609,11833.2,1.5711617245374228511516666235609
173,11972.7723305868600523585200737537134,11971.2,1.5723305868600523585200737537134
174,12111.5734927331567404211263945749886,12110.0,1.5734927331567404211263945749886
175,12251.1746482408755630255707626867593,12249.6,1.5746482408755630255707626867593
176,12391.5757971861476381287148120691842,12390.0,1.5757971861476381287148120691842
177,12532.7769396438172036601919793810027,12531.2,1.5769396438172036601919793810027
178,12674.7780756874708535135317823593836,12673.2,1.5780756874708535135317823593836
179,12817.5792053894659580700641328355616,12816.0,1.5792053894659580700641328355616
180,12961.1803288209583003050788040626984,12959.6,1.5803288209583003050788040626984
181,13105.5814460519289502319605813895521,13104.0,1.5814460519289502319605813895521
182,13250.7825571512104054910160473091467,13249.2,1.5825571512104054910160473091467
183,13396.7836621865120212480384521567192,13395.2,1.5836621865120212480384521567192
184,13543.5847612244447537644994263117601,13542.0,1.5847612244447537644994263117601
185,13691.1858543305452395726735643256291,13689.6,1.5858543305452395726735643256291
186,13839.5869415692992313545251948012401,13838.0,1.5869415692992313545251948012401
187,13988.7880230041644144603341090387381,13987.2,1.5880230041644144603341090387381
188,14138.7890986975926196443587444117053,14137.2,1.5890986975926196443587444117053
189,14289.5901687110514558953621961498016,14288.0,1.5901687110514558953621961498016
190,14441.1912331050453791658391858942840,14439.6,1.5912331050453791658391858942840
191,14593.5922919391362163815749873781888,14592.0,1.5922919391362163815749873781888
192,14746.7933452719631612793946124926233,14745.2,1.5933452719631612793946124926233
193,14900.7943931612622605495514676795437,14899.2,1.5943931612622605495514676795437
194,15055.5954356638854038033467850786076,15054.0,1.5954356638854038033467850786076
195,15211.1964728358188354857461446388146,15209.6,1.5964728358188354857461446388146
196,15367.5975047322012026202540939805733,15366.0,1.5975047322012026202540939805733
197,15524.7985314073411529650419867894823,15523.2,1.5985314073411529650419867894823
198,15682.7995529147344979547314680433091,15681.2,1.5995529147344979547314680433091
199,15841.6005693070809534832650876987034,15840.0,1.6005693070809534832650876987034
200,16001.2015806363004726992270552367808,15999.6,1.6015806363004726992270552367808
201,16161.6025869535491820313149146284800,16160.0,1.6025869535491820313149146284800
202,16322.8035883092349340719404199575679,16321.2,1.6035883092349340719404199575679
203,16484.8045847530324882366223440330547,16483.2,1.6045847530324882366223440330547
204,16647.6055763338983310886878652139777,16646.0,1.6055763338983310886878652139777
205,16811.2065631000851465814732167443462,16809.6,1.6065631000851465814732167443462
206,16975.6075450991559495365015831707040,16974.0,1.6075450991559495365015831707040
207,17140.8085223779978885415346708916029,17139.2,1.6085223779978885415346708916029
208,17306.8094949828357328174163755685003,17305.2,1.6094949828357328174163755685003
209,17473.6104629592450491389975277652712,17472.0,1.6104629592450491389975277652712
210,17641.2114263521650806639069109133688,17639.6,1.6114263521650806639069109133688
211,17809.6123852059113354028806283845639,17808.0,1.6123852059113354028806283845639
212,17978.8133395641878949508891120052989,17977.2,1.6133395641878949508891120052989
213,18148.8142894700994482674588402042874,18147.2,1.6142894700994482674588402042874
214,18319.6152349661630659116481185000571,18318.0,1.6152349661630659116481185000571
215,18491.2161760943197143880348679288295,18489.6,1.6161760943197143880348679288295
216,18663.6171128959455250297483369254517,18662.0,1.6171128959455250297483369254517
217,18836.8180454118628218717304984742782,18835.2,1.6180454118628218717304984742782
218,19010.8189736823509180046847096347151,19009.2,1.6189736823509180046847096347151
219,19185.6198977471566842257467462027388,19184.0,1.6198977471566842257467462027388
220,19361.2208176455049030636659130788709,19359.6,1.6208176455049030636659130788709
221,19537.6217334161084066784114799102113,19536.0,1.6217334161084066784114799102113
222,19714.8226450971780164597510206239951,19713.2,1.6226450971780164597510206239951
223,19892.8235527264322785440573208636367,19891.2,1.6235527264322785440573208636367
224,20071.6244563411070110000174279093248,20070.0,1.6244563411070110000174279093248
225,20251.2253559779646659660614579202369,20249.6,1.6253559779646659660614579202369
226,20431.6262516733035110405608606295473,20430.0,1.6262516733035110405608606295473
227,20612.8271434629666393697573031424936,20611.2,1.6271434629666393697573031424936
228,20794.8280313823508110870006304332630,20793.2,1.6280313823508110870006304332630
229,20977.6289154664151341424875371234017,20976.0,1.6289154664151341424875371234017
230,21161.2297957496895901430171823799800,21159.6,1.6297957496895901430171823799800
231,21345.6306722662834079733153521785979,21344.0,1.6306722662834079733153521785979
232,21530.8315450498932966420361450588358,21529.2,1.6315450498932966420361450588358
233,21716.8324141338115334271576750360106,21715.2,1.6324141338115334271576750360106
234,21903.6332795509339246144457809657250,21902.0,1.6332795509339246144457809657250
235,22091.2341413337676332095880757140356,22089.6,1.6341413337676332095880757140356
236,22279.6349995144388845980326758192619,22278.0,1.6349995144388845980326758192619
237,22468.8358541247005551177098720413591,22467.2,1.6358541247005551177098720413591
238,22658.8367051959396466948319990104788,22657.2,1.6367051959396466948319990104788
