Eigenstate,Energy,Kinetic Energy,Potential Energy
1,0.500000000016580047863592461379301538,0.0,0.500000000016580047863592461379301538
2,1.84623093775934049118905900681187362,1.2,0.64623093775934049118905900681187362
3,3.93633761002288005653915152562964420,3.2,0.73633761002288005653915152562964420
4,6.79966527847639658294180949353329222,6.0,0.79966527847639658294180949353329222
5,10.4480465764326768450871728521095944,9.6,0.8480465764326768450871728521095944
6,14.8870659986451204206882427920880417,14.0,0.8870659986451204206882427920880417
7,20.1197208265513040633028096116298530,19.2,0.9197208265513040633028096116298530
8,26.1477838465278649805060453180555038,25.2,0.9477838465278649805060453180555038
9,32.9723835575809064547976804757679197,32.0,0.9723835575809064547976804757679197
10,40.5942802138588912441739047851426715,39.6,0.9942802138588912441739047851426715
11,49.0140093855027850857159005044531380,48.0,1.0140093855027850857159005044531380
12,58.2319621678171650843231893682470962,57.2,1.0319621678171650843231893682470962
13,68.2484326908677988575701563941308129,67.2,1.0484326908677988575701563941308129
14,79.0636476523377987817590960822094332,78.0,1.0636476523377987817590960822094332
15,90.6777854333418024833364328509265222,89.6,1.0777854333418024833364328509265222
16,103.090988903296415211207577797600526,102.0,1.090988903296415211207577797600526
17,116.303374253381712519840966634872588,115.2,1.103374253381712519840966634872588
18,130.315037247547438711576910505400138,129.2,1.115037247547438711576910505400138
19,145.126057745616983818586508490395248,144.0,1.126057745616983818586508490395248
20,160.736503040921319642534147412345632,159.6,1.136503040921319642534147412345632
21,177.146430366380696671944646786875722,176.0,1.146430366380696671944646786875722
22,194.355888805663384042717975549074665,193.2,1.155888805663384042717975549074665
23,212.364920771122194076835971770731365,211.2,1.164920771122194076835971770731365
24,231.173563161194904361744664907981936,230.0,1.173563161194904361744664907981936
25,250.781848277200184086814613604745885,249.6,1.181848277200184086814613604745885
26,271.189804557145181755679397469705516,270.0,1.189804557145181755679397469705516
27,292.397457168688100995214705749340035,291.2,1.197457168688100995214705749340035
28,314.404828492497240374918363145317125,313.2,1.204828492497240374918363145317125
29,337.211938519452945330401310599832549,336.0,1.211938519452945330401310599832549
30,360.818805179489432716415602305605034,359.6,1.218805179489432716415602305605034
31,385.225444615727510015485759771074198,384.0,1.225444615727510015485759771074198
32,410.431871414471311644005503542902422,409.2,1.231871414471311644005503542902422
33,436.438098799332526993918502886797775,435.2,1.238098799332526993918502886797775
34,463.244138795995048582241261639367237,462.0,1.244138795995048582241261639367237
35,490.850002372793773615219418642643570,489.6,1.250002372793773615219418642643570
36,519.255699561247813395546205519498679,518.0,1.255699561247813395546205519498679
37,548.461239559884280452706433510575244,547.2,1.261239559884280452706433510575244
38,578.466630824058404533490563773848220,577.2,1.266630824058404533490563773848220
39,609.271881143977879940304217175244875,608.0,1.271881143977879940304217175244875
40,640.876997712743525921433054395480195,639.6,1.276997712743525921433054395480195
41,673.281987185901591543766718592925115,672.0,1.281987185901591543766718592925115
42,706.486855733748043877032870234645085,705.2,1.286855733748043877032870234645085
43,740.491609087418691973719299174050663,739.2,1.291609087418691973719299174050663
44,775.296252579630905113393737432806489,774.0,1.296252579630905113393737432806489
45,810.900791180805114211163707387439952,809.6,1.300791180805114211163707387439952
46,847.305229531181149007450150417637216,846.0,1.305229531181149007450150417637216
47,884.509571969450987043937993157906015,883.2,1.309571969450987043937993157906015
48,922.513822558351904066336216596095354,921.2,1.313822558351904066336216596095354
49,961.317985107599352950698231284421160,960.0,1.317985107599352950698231284421160
50,1000.92206319448477553641249459970717,999.6,1.32206319448477553641249459970717
51,1041.32606018241808478651120494497304,1040.0,1.32606018241808478651120494497304
52,1082.52997923765620948165429813050138,1081.2,1.32997923765620948165429813050138
53,1124.53382334442664353560734279707876,1123.2,1.33382334442664353560734279707876
54,1167.33759531862738088858204595918774,1166.0,1.33759531862738088858204595918774
55,1210.94129782026114144230155840791882,1209.6,1.34129782026114144230155840791882
56,1255.34493336474171893053210962045196,1254.0,1.34493336474171893053210962045196
57,1300.54850433319308265370736649531720,1299.2,1.34850433319308265370736649531720
58,1346.55201298184706781998424993104903,1345.2,1.35201298184706781998424993104903
59,1393.35546145063273528779665656819866,1392.0,1.35546145063273528779665656819866
60,1440.95885177103945699727369315647069,1439.6,1.35885177103945699727369315647069
61,1489.36218587332621915038656351647134,1488.0,1.36218587332621915038656351647134
62,1538.56546559314133419457659201641294,1537.2,1.36546559314133419457659201641294
63,1588.56869267760951077559788071592657,1587.2,1.36869267760951077559788071592657
64,1639.37186879093691834538737682650007,1638.0,1.37186879093691834538737682650007
65,1690.97499551957934827080345051527061,1689.6,1.37499551957934827080345051527061
66,1743.37807437701372595002106118439086,1742.0,1.37807437701372595002106118439086
67,1796.58110680814896615204663172337805,1795.2,1.38110680814896615204663172337805
68,1850.58409419340840763400798773536558,1849.2,1.38409419340840763400798773536558
69,1905.38703785251275042014855208870888,1904.0,1.38703785251275042014855208870888
70,1960.98993904798949085819162408857551,1959.6,1.38993904798949085819162408857551
71,2017.39279898843225086500981432173746,2016.0,1.39279898843225086500981432173746
72,2074.59561883153109953115544019567987,2073.2,1.39561883153109953115544019567987
73,2132.59839968689291224740445842142315,2131.2,1.39839968689291224740445842142315
74,2191.40114261866899366791413638306514,2190.0,1.40114261866899366791413638306514
75,2251.00384864800555972349188384669009,2249.6,1.40384864800555972349188384669009
76,2311.40651875533122434171767692087605,2310.0,1.40651875533122434171767692087605
77,2372.60915388249433413224459584462808,2371.2,1.40915388249433413224459584462808
78,2434.61175493476182849742196815853782,2433.2,1.41175493476182849742196815853782
79,2497.41432278269025580839349828209960,2496.0,1.41432278269025580839349828209960
80,2561.01685826387863816117849090884223,2559.6,1.41685826387863816117849090884223
81,2625.41936218461202788576770630689495,2624.0,1.41936218461202788576770630689495
82,2690.62183532140383753071200448950285,2689.2,1.42183532140383753071200448950285
83,2756.62427842244433631189233893367272,2755.2,1.42427842244433631189233893367272
84,2823.42669220896208172244358004033779,2822.0,1.42669220896208172244358004033779
85,2891.02907737650449572463102045700384,2889.6,1.42907737650449572463102045700384
86,2959.43143459614327907908916383052647,2958.0,1.43143459614327907908916383052647
87,3028.63376451560989989603252456837438,3027.2,1.43376451560989989603252456837438
88,3098.63606776036596911531252931071197,3097.2,1.43606776036596911531252931071197
89,3169.43834493461293212003314184593933,3168.0,1.43834493461293212003314184593933
90,3241.04059662224516247170855055746092,3239.6,1.44059662224516247170855055746092
91,3313.44282338775022230289561348223619,3312.0,1.44282338775022230289561348223619
92,3386.64502577705976560569462099026394,3385.2,1.44502577705976560569462099026394
93,3460.64720431835429839945634250138134,3459.2,1.44720431835429839945634250138134
94,3535.44935952282476683229520742686534,3534.0,1.44935952282476683229520742686534
95,3611.05149188539372311697948251333609,3609.6,1.45149188539372311697948251333609
96,3687.45360188539861737965290094209638,3686.0,1.45360188539861737965290094209638
97,3764.65568998723957915773256704420072,3763.2,1.45568998723957915773256704420072
98,3842.65775664099387940903329861205768,3841.2,1.45775664099387940903329861205768
99,3921.45980228299911042197941061363472,3920.0,1.45980228299911042197941061363472
100,4001.06182733640697467634891466764621,3999.6,1.46182733640697467634891466764621
101,4081.46383221170944439984059833651667,4080.0,1.46383221170944439984059833651667
102,4162.66581730723892799103340366458070,4161.2,1.46581730723892799103340366458070
103,4244.66778300964397156569462689380078,4243.2,1.46778300964397156569462689380078
104,4327.46972969434191661868305417537301,4326.0,1.46972969434191661868305417537301
105,4411.07165772594984171993625628767730,4409.6,1.47165772594984171993625628767730
106,4495.47356745869502539878755193739532,4494.0,1.47356745869502539878755193739532
107,4580.67545923680608928890273693276270,4579.2,1.47545923680608928890273693276270
108,4666.67733339488590136657229935508340,4665.2,1.47733339488590136657229935508340
109,4753.47919025826725052156064958884489,4752.0,1.47919025826725052156064958884489
110,4841.08103014335224127958888585349293,4839.6,1.48103014335224127958888585349293
111,4929.48285335793629163432904832003176,4928.0,1.48285335793629163432904832003176
112,5018.68466020151756751315436127122140,5017.2,1.48466020151756751315436127122140
113,5108.68645096559263186509589056138998,5107.2,1.48645096559263186509589056138998
114,5199.48822593393903760169969737054626,5198.0,1.48822593393903760169969737054626
115,5291.08998538288555317297599355798104,5289.6,1.48998538288555317297599355798104
116,5383.49172958157066122898359772804809,5382.0,1.49172958157066122898359772804809
117,5476.69345879218993910458620525170177,5475.2,1.49345879218993910458620525170177
118,5570.69517327023288883381144293906241,5569.2,1.49517327023288883381144293906241
119,5665.49687326470975068652735676441091,5664.0,1.49687326470975068652735676441091
120,5761.09855901836880837791600337310845,5759.6,1.49855901836880837791600337310845
121,5857.50023076790465583397961253789785,5856.0,1.50023076790465583397961253789785
122,5954.70188874415787648318196423519055,5953.2,1.50188874415787648318196423519055
123,6052.70353317230655385139565624308758,6051.2,1.50353317230655385139565624308758
124,6151.50516427205001455751725420722467,6150.0,1.50516427205001455751725420722467
125,6251.10678225778517524084923509369992,6249.6,1.50678225778517524084923509369992
126,6351.50838733877584975405004470543983,6350.0,1.50838733877584975405004470543983
127,6452.70997971931535237756721290433659,6451.2,1.50997971931535237756721290433659
128,6554.71155959888271022427858417558610,6553.2,1.51155959888271022427858417558610
129,6657.51312717229278592982859208281891,6656.0,1.51312717229278592982859208281891
130,6761.11468262984059334227926319451767,6759.6,1.51468262984059334227926319451767
131,6865.51622615744007352057755149125177,6864.0,1.51622615744007352057755149125177
132,6970.71775793675758337413978198203429,6969.2,1.51775793675758337413978198203429
133,7076.71927814534033749427009505039989,7075.2,1.51927814534033749427009505039989
134,7183.52078695674003245217082705966037,7182.0,1.52078695674003245217082705966037
135,7291.12228454063186472996035446834983,7289.6,1.52228454063186472996035446834983
136,7399.52377106292914976358354562228972,7398.0,1.52377106292914976358354562228972
137,7508.72524668589373626855634400565398,7507.2,1.52524668589373626855634400565398
138,7618.72671156824239640749545045071327,7617.2,1.52671156824239640749545045071327
139,7729.52816586524937025247842721585276,7728.0,1.52816586524937025247842721585276
140,7841.12960972884522754931129218688781,7839.6,1.52960972884522754931129218688781
141,7953.53104330771220523329071438292213,7952.0,1.53104330771220523329071438292213
142,8066.73246674737617107278081726817834,8065.2,1.53246674737617107278081726817834
143,8180.73388019029535516675536665798329,8179.2,1.53388019029535516675536665798329
144,8295.53528377594598384281902355354512,8294.0,1.53528377594598384281902355354512
145,8411.13667764090494631446239854264761,8409.6,1.53667764090494631446239854264761
146,8527.53806191892961658755457757564557,8526.0,1.53806191892961658755457757564557
147,8644.73943674103494490311085476788333,8643.2,1.53943674103494490311085476788333
148,8762.74080223556793404534008905973004,8761.2,1.54080223556793404534008905973004
149,8881.54215852827960231590173909174272,8880.0,1.54215852827960231590173909174272
150,9001.14350574239453681522553489630613,8999.6,1.54350574239453681522553489630613
151,9121.54484399867813294512288087596609,9120.0,1.54484399867813294512288087596609
152,9242.74617341550161043183449599671633,9241.2,1.54617341550161043183449599671633
153,9364.74749410890489481918209492879925,9363.2,1.54749410890489481918209492879925
154,9487.54880619265744833103996605690176,9486.0,1.54880619265744833103996605690176
155,9611.15010977831712833909241799134747,9609.6,1.55010977831712833909241799134747
156,9735.55140497528715130221313906050936,9734.0,1.55140497528715130221313906050936
157,9860.75269189087123322404236641278855,9859.2,1.55269189087123322404236641278855
158,9986.75397063032697844683535102989111,9985.2,1.55397063032697844683535102989111
159,10113.5552412969175804543875644549308,10112.0,1.5552412969175804543875644549308
160,10241.1565039919619010215463818018463,10239.6,1.5565039919619010215463818018463
161,10369.5577588148829862064002636455021,10368.0,1.5577588148829862064002636455021
162,10498.7590058632550786462167986986099,10497.2,1.5590058632550786462167986986099
163,10628.7602452328491810103989918212763,10627.2,1.5602452328491810103989918212763
164,10759.5614770176772252470247324863415,10758.0,1.5614770176772252470247324863415
165,10891.1627013100348962231571005580374,10889.6,1.5627013100348962231571005580374
166,11023.5639182005431602744842866398137,11022.0,1.5639182005431602744842866398137
167,11156.7651277781885458965785146963559,11155.2,1.5651277781885458965785146963559
168,11290.7663301303622192666574454268747,11289.2,1.5663301303622192666574454268747
169,11425.5675253428978996579086848111348,11424.0,1.5675253428978996579086848111348
170,11561.1687135001086544894629905088245,11559.6,1.5687135001086544894629905088245
171,11697.5698946848226142064469434375138,11696.0,1.5698946848226142064469434375138
172,11834.7710689784176448567429239676255,11833.2,1.5710689784176448567429239676255
173,11972.7722364608550137667570724560864,11971.2,1.5722364608550137667570724560864
174,12111.5733972107120841596791212793214,12110.0,1.5733972107120841596791212793214
175,12251.1745513052140727011369510848136,12249.6,1.5745513052140727011369510848136
176,12391.5756988202648996785686121324807,12390.0,1.5756988202648996785686121324807
177,12532.7768398304771650748190568421899,12531.2,1.5768398304771650748190568421899
178,12674.7779744092012796903276071081576,12673.2,1.5779744092012796903276071081576
179,12817.5791026285537777588217832873748,12816.0,1.5791026285537777588217832873748
180,12961.1802245594448420028861158913504,12959.6,1.5802245594448420028861158913504
181,13105.5813402716050637779618567956664,13104.0,1.5813402716050637779618567956664
182,13250.7824498336114660001326420974700,13249.2,1.5824498336114660001326420974700
183,13396.7835533129128119069396638940184,13395.2,1.5835533129128119069396638940184
184,13543.5846507758542238927320104884386,13542.0,1.5846507758542238927320104884386
185,13691.1857422877011342266449575017274,13689.6,1.5857422877011342266449575017274
186,13839.5868279126625886217950229332299,13838.0,1.5868279126625886217950229332299
187,13988.7879077139139264561584435273595,13987.2,1.5879077139139264561584435273595
188,14138.7889817536188530814167380901895,14137.2,1.5889817536188530814167380901895
189,14289.5900500929509279508260383531406,14288.0,1.5900500929509279508260383531406
190,14441.1911127921144842171538691602981,14439.6,1.5911127921144842171538691602981
191,14593.5921699103649990232007317816501,14592.0,1.5921699103649990232007317816501
192,14746.7932215060289308670743288667394,14745.2,1.5932215060289308670743288667394
193,14900.7942676365230423460286715834654,14899.2,1.5942676365230423460286715834654
194,15055.5953083583732216196143360571470,15054.0,1.5953083583732216196143360571470
195,15211.1963437272328205244616483534908,15209.6,1.5963437272328205244616483534908
196,15367.5973737979005230325592445159758,15366.0,1.5973737979005230325592445159758
197,15524.7983986243377584283109771064957,15523.2,1.5983986243377584283109771064957
198,15682.7994182596856733663120913080678,15681.2,1.5994182596856733663120913080678
199,15841.6004327562816756436598148998812,15840.0,1.6004327562816756436598148998812
200,16001.2014421656755636269591446857650,15999.6,1.6014421656755636269591446857650
201,16161.6024465386452523104022857384584,16160.0,1.6024465386452523104022857384584
202,16322.8034459252121093810328245365144,16321.2,1.6034459252121093810328245365144
203,16484.8044403746559119458763532918317,16483.2,1.6044403746559119458763532918317
204,16647.6054299355294355357987626261246,16646.0,1.6054299355294355357987626261246
205,16811.2064146556726853514039394719605,16809.6,1.6064146556726853514039394719605
206,16975.6073945822267827696674757635752,16974.0,1.6073945822267827696674757635752
207,17140.8083697616475129819315866415483,17139.2,1.6083697616475129819315866415483
208,17306.8093402397185479846655310584052,17305.2,1.6093402397185479846655310584052
209,17473.6103060615643506658188305301846,17472.0,1.6103060615643506658188305301846
210,17641.2112672716627714823660213421788,17639.6,1.6112672716627714823660213421788
211,17809.6122239138573450879989792262276,17808.0,1.6122239138573450879989792262276
212,17978.8131760313692971380886414839223,17977.2,1.6131760313692971380886414839223
213,18148.8141236668092656498036858057881,18147.2,1.6141236668092656498036858057881
214,18319.6150668621887518930693943348060,18318.0,1.6150668621887518930693943348060
215,18491.2160056589313000185910457497414,18489.6,1.6160056589313000185910457497414
216,18663.6169400978834193773919804864482,18662.0,1.6169400978834193773919804864482
217,18836.8178702193252534909014174268509,18835.2,1.6178702193252534909014174268509
218,19010.8187960629810046440345506720841,19009.2,1.6187960629810046440345506720841
219,19185.6197176680291173741934622090085,19184.0,1.6197176680291173741934622090085
220,19361.2206350731122333643090304334888,19359.6,1.6206350731122333643090304334888
221,19537.6215483163469156422060557300665,19536.0,1.6215483163469156422060557300665
222,19714.8224574353331592836492768236514,19713.2,1.6224574353331592836492768236514
223,19892.8233624671636821798935985607438,19891.2,1.6233624671636821798935985607438
224,20071.6242634484330109290287310792876,20070.0,1.6242634484330109290287310792876
225,20251.2251604152463644076526605575614,20249.6,1.6251604152463644076526605575614
226,20431.6260534032283385608066157519255,20430.0,1.6260534032283385608066157519255
227,20612.8269424475314010530097235059744,20611.2,1.6269424475314010530097235059744
228,20794.8278275828441975905843410471765,20793.2,1.6278275828441975905843410471765
229,20977.6287088433996770674070024458470,20976.0,1.6287088433996770674070024458470
230,21161.2295862629830402203129438714620,21159.6,1.6295862629830402203129438714620
231,21345.6304598749395135834082331533752,21344.0,1.6304598749395135834082331533752
232,21530.8313297121819591501936894807195,21529.2,1.6313297121819591501936894807195
233,21716.8321958071983147289883205209272,21715.2,1.6321958071983147289883205209272
234,21903.6330581920588811377013348802667,21902.0,1.6330581920588811377013348802667
235,22091.2339168984234494090356814029130,22089.6,1.6339168984234494090356814029130
236,22279.6347719575482777048742628278596,22278.0,1.6347719575482777048742628278596
237,22468.8356234002929215599582499373519,22467.2,1.6356234002929215599582499373519
238,22658.8364712571269191858508159505009,22657.2,1.6364712571269191858508159505009
