Eigenstate,Energy,Kinetic Energy,Potential Energy
1,0.500000011136798577674984406537598446,0.0,0.500000011136798577674984406537598446
2,1.84623101035838872682475424895131997,1.2,0.64623101035838872682475424895131997
3,3.93633782333174290982913134730137870,3.2,0.73633782333174290982913134730137870
4,6.79966572293149508492987353975373969,6.0,0.79966572293149508492987353975373969
5,10.4480473466668723002469005863799498,9.6,0.8480473466668723002469005863799498
6,14.8870671911680473939840321285698624,14.0,0.8870671911680473939840321285698624
7,20.1197225389317477771192266412202338,19.2,0.9197225389317477771192266412202338
8,26.1477861770873307469201399317534362,25.2,0.9477861770873307469201399317534362
9,32.9723866052832093385565424672357927,32.0,0.9723866052832093385565424672357927
10,40.5942840782840452347683987766617546,39.6,0.9942840782840452347683987766617546
11,49.0140141668609987359136578035222666,48.0,1.0140141668609987359136578035222666
12,58.2319679669837181667795573147443593,57.2,1.0319679669837181667795573147443593
13,68.2484396094297492676406699427986856,67.2,1.0484396094297492676406699427986856
14,79.0636557926479778752681613496790074,78.0,1.0636557926479778752681613496790074
15,90.6777948985777038892451126594277654,89.6,1.0777948985777038892451126594277654
16,103.090999797522669551607590913493217,102.0,1.090999797522669551607590913493217
17,116.303386681615421818804354044554015,115.2,1.103386681615421818804354044554015
18,130.315051315825970421507241101889688,129.2,1.115051315825970421507241101889688
19,145.126073561068015637188754214964554,144.0,1.126073561068015637188754214964554
20,160.736520711835043257167109219620144,159.6,1.136520711835043257167109219620144
21,177.146450002284163165541828283695525,176.0,1.146450002284163165541828283695525
22,194.355910517397023395732764888924178,193.2,1.155910517397023395732764888924178
23,212.364944670918575905841805294095887,211.2,1.164944670918575905841805294095887
24,231.173589362759832543299405136570348,230.0,1.173589362759832543299405136570348
25,250.781876895796237718821960641953344,249.6,1.181876895796237718821960641953344
26,271.189835709677831173578190689459356,270.0,1.189835709677831173578190689459356
27,292.397490973794541666682228017207815,291.2,1.197490973794541666682228017207815
28,314.404865070638100348143200589376647,313.2,1.204865070638100348143200589376647
29,337.211977993007034116998279716955546,336.0,1.211977993007034116998279716955546
30,360.818847672851711475577287348085937,359.6,1.218847672851711475577287348085937
31,385.225490255410474978309865046272493,384.0,1.225490255410474978309865046272493
32,410.431920329209995107913049409308084,409.2,1.231920329209995107913049409308084
33,436.438151120193333110235927489351728,435.2,1.238151120193333110235927489351728
34,463.244194656488654708135997459074486,462.0,1.244194656488654708135997459074486
35,490.850061908992342338341645455009347,489.6,1.250061908992342338341645455009347
36,519.255762911906775589292228786633432,518.0,1.255762911906775589292228786633432
37,548.461306866568966000618440496518401,547.2,1.261306866568966000618440496518401
38,578.466702231275814790884121326408573,577.2,1.266702231275814790884121326408573
39,609.271956799313914700465875306209325,608.0,1.271956799313914700465875306209325
40,640.877077767005997748667564390607100,639.6,1.277077767005997748667564390607100
41,673.282071793269381959737884879574966,672.0,1.282071793269381959737884879574966
42,706.486945051926779183452563602235575,705.2,1.286945051926779183452563602235575
43,740.491703277803341618193931040456000,739.2,1.291703277803341618193931040456000
44,775.296351807475732624285201494795619,774.0,1.296351807475732624285201494795619
45,810.900895615401440025292238999579851,809.6,1.300895615401440025292238999579851
46,847.305339346043416192423149156134890,846.0,1.305339346043416192423149156134890
47,884.509687342511655195685662336177953,883.2,1.309687342511655195685662336177953
48,922.513943672165733785193553281414457,921.2,1.313943672165733785193553281414457
49,961.318112149557683534035160418391899,960.0,1.318112149557683534035160418391899
50,1000.92219635704044216841618176622549,999.6,1.32219635704044216841618176622549
51,1041.32619966332166888359553937787684,1040.0,1.32619966332166888359553937787684
52,1082.53012524020436732761954763508213,1081.2,1.33012524020436732761954763508213
53,1124.53397607772331431604477548030278,1123.2,1.33397607772331431604477548030278
54,1167.33775499785873615546995568027113,1166.0,1.33775499785873615546995568027113
55,1210.94146466698520440328495066504695,1209.6,1.34146466698520440328495066504695
56,1255.34510760719365431527992170407612,1254.0,1.34510760719365431527992170407612
57,1300.54868620660723687719879936405891,1299.2,1.34868620660723687719879936405891
58,1346.55220272879692542633021528710232,1345.2,1.35220272879692542633021528710232
59,1393.35565932139005198496647931598399,1392.0,1.35565932139005198496647931598399
60,1440.95905802395393284119822187669012,1439.6,1.35905802395393284119822187669012
61,1489.36240077522718856717093296702671,1488.0,1.36240077522718856717093296702671
62,1538.56568941976307362000608518693341,1537.2,1.36568941976307362000608518693341
63,1588.56892571404190095243755704487018,1587.2,1.36892571404190095243755704487018
64,1639.37211133210334811282327972754196,1638.0,1.37211133210334811282327972754196
65,1690.97524787074391154069802614435151,1689.6,1.37524787074391154069802614435151
66,1743.37833685431994522139275870199003,1742.0,1.37833685431994522139275870199003
67,1796.58137973919247632317543028227646,1795.2,1.38137973919247632317543028227646
68,1850.58437791784625524229219861554190,1849.2,1.38437791784625524229219861554190
69,1905.38733272271220827997876234986836,1904.0,1.38733272271220827997876234986836
70,1960.99024542971955922163958009619688,1959.6,1.39024542971955922163958009619688
71,2017.39311726160131693442700398053853,2016.0,1.39311726160131693442700398053853
72,2074.59594939097456109181892901031942,2073.2,1.39594939097456109181892901031942
73,2132.59874294321494256673004148610286,2131.2,1.39874294321494256673004148610286
74,2191.40149899914303843220617819311844,2190.0,1.40149899914303843220617819311844
75,2251.00421859753861815831613940943282,2249.6,1.40421859753861815831613940943282
76,2311.40690273749748210456943350126378,2310.0,1.40690273749748210456943350126378
77,2372.60955238064429233891472654645966,2371.2,1.40955238064429233891472654645966
78,2434.61216845321371971357276742141847,2433.2,1.41216845321371971357276742141847
79,2497.41475184801126366608354093977226,2496.0,1.41475184801126366608354093977226
80,2561.01730342626425362386341806348503,2559.6,1.41730342626425362386341806348503
81,2625.41982401937279504715590251497537,2624.0,1.41982401937279504715590251497537
82,2690.62231443056978025835698767616275,2689.2,1.42231443056978025835698767616275
83,2756.62477543649853158934618609469512,2755.2,1.42477543649853158934618609469512
84,2823.42720778871617670572675998246907,2822.0,1.42720778871617670572675998246907
85,2891.02961221513047731546924814335652,2889.6,1.42961221513047731546924814335652
86,2959.43198942137752541217118664652993,2958.0,1.43198942137752541217118664652993
87,3028.63434009214750571790264936537665,3027.2,1.43434009214750571790264936537665
88,3098.63666489246558076466559627248883,3097.2,1.43666489246558076466559627248883
89,3169.43896446893489907428479232286159,3168.0,1.43896446893489907428479232286159
90,3241.04123945094876627053208962932078,3239.6,1.44123945094876627053208962932078
91,3313.44349045187914569483197859577493,3312.0,1.44349045187914569483197859577493
92,3386.64571807024889338815493152816021,3385.2,1.44571807024889338815493152816021
93,3460.64792289089549064812458875698726,3459.2,1.44792289089549064812458875698726
94,3535.45010548613452817384212235070850,3534.0,1.45010548613452817384212235070850
95,3611.05226641693184502334064982351885,3609.6,1.45226641693184502334064982351885
96,3687.45440623409405979679643489857782,3686.0,1.45440623409405979679643489857782
97,3764.65652547948828473700137942032362,3763.2,1.45652547948828473700137942032362
98,3842.65862468730312457755705649956900,3841.2,1.45862468730312457755705649956900
99,3921.46070438536469493030400637912099,3920.0,1.46070438536469493030400637912099
100,4001.06276509652340794736972586857550,3999.6,1.46276509652340794736972586857550
101,4081.46480734012976481597216258395969,4080.0,1.46480734012976481597216258395969
102,4162.66683163362046508138197217674206,4161.2,1.46683163362046508138197217674206
103,4244.66883849423995016434666427983111,4243.2,1.46883849423995016434666427983111
104,4327.47082844092721124395140771198213,4326.0,1.47082844092721124395140771198213
105,4411.07280199640356325611274003227179,4409.6,1.47280199640356325611274003227179
106,4495.47475968950441721197940522167519,4494.0,1.47475968950441721197940522167519
107,4580.67670205780729137409943224567669,4579.2,1.47670205780729137409943224567669
108,4666.67862965061991325866311759782881,4665.2,1.47862965061991325866311759782881
109,4753.48054303240700722826150861938261,4752.0,1.48054303240700722826150861938261
110,4841.08244278675319197158779454168686,4839.6,1.48244278675319197158779454168686
111,4929.48432952098361555773214652024835,4928.0,1.48432952098361555773214652024835
112,5018.68620387159532040687067578819433,5017.2,1.48620387159532040687067578819433
113,5108.68806651069326603532816789194056,5107.2,1.48806651069326603532816789194056
114,5199.48991815367883711898194606709610,5198.0,1.48991815367883711898194606709610
115,5291.09175956851027889439979213278660,5289.6,1.49175956851027889439979213278660
116,5383.49359158695056371138070554206046,5382.0,1.49359158695056371138070554206046
117,5476.69541511834843478374085302289737,5475.2,1.49541511834843478374085302289737
118,5570.69723116667692168716917263874525,5569.2,1.49723116667692168716917263874525
119,5665.49904085180141625993735047443318,5664.0,1.49904085180141625993735047443318
120,5761.10084543629784795554541953074697,5759.6,1.50084543629784795554541953074697
121,5857.50264635963852631955224690021590,5856.0,1.50264635963852631955224690021590
122,5954.70444528228336254293333215731949,5953.2,1.50444528228336254293333215731949
123,6052.70624414327549415410347433964611,6051.2,1.50624414327549415410347433964611
124,6151.50804523653407136186412560575289,6150.0,1.50804523653407136186412560575289
125,6251.10985131348019221363233340029142,6249.6,1.50985131348019221363233340029142
126,6351.51166572346451162332363576683390,6350.0,1.51166572346451162332363576683390
127,6452.71349260963294268002591184972467,6451.2,1.51349260963294268002591184972467
128,6554.71533718808331102306346310001659,6553.2,1.51533718808331102306346310001659
129,6657.51720615564963427845842114618965,6656.0,1.51720615564963427845842114618965
130,6761.11910830270845839706918025542945,6759.6,1.51910830270845839706918025542945
131,6865.52105546499982658744562320858785,6864.0,1.52105546499982658744562320858785
132,6970.72306406078890985677445331761633,6969.2,1.52306406078890985677445331761633
133,7076.72515769225651241555099440666210,7075.2,1.52515769225651241555099440666210
134,7183.52737180746711990152587205298346,7182.0,1.52737180746711990152587205298346
135,7291.12976267783826175455369433511929,7289.6,1.52976267783826175455369433511929
136,7399.53242637414309336062749504302078,7398.0,1.53242637414309336062749504302078
137,7508.73554427198861423996070564489931,7507.2,1.53554427198861423996070564489931
138,7618.73951399817781367590897565228253,7617.2,1.53951399817781367590897565228253
139,7729.54545438748265981148441921556863,7728.0,1.54545438748265981148441921556863
140,7841.15870205186602379206944430600249,7839.6,1.55870205186602379206944430600249
