Eigenstate,Energy,Kinetic Energy,Potential Energy
1,0.500000000029973826172859868077251032,0.0,0.500000000029973826172859868077251032
2,1.84623093784676806141847618473915449,1.2,0.64623093784676806141847618473915449
3,3.93633761027969133187971508963543781,3.2,0.73633761027969133187971508963543781
4,6.79966527901130469587603684079282218,6.0,0.79966527901130469587603684079282218
5,10.4480465773592461657563186669393612,9.6,0.8480465773592461657563186669393612
6,14.8870660000789021998224128703614184,14.0,0.8870660000789021998224128703614184
7,20.1197208286087807540400069962563194,19.2,0.9197208286087807540400069962563194
8,26.1477838493260097030513721017562533,25.2,0.9477838493260097030513721017562533
9,32.9723835612369778954539902095574646,32.0,0.9723835612369778954539902095574646
10,40.5942802184903293257154877315599073,39.6,0.9942802184903293257154877315599073
11,49.0140093912271540761723479734024834,48.0,1.0140093912271540761723479734024834
12,58.2319621747521208795273329478648781,57.2,1.0319621747521208795273329478648781
13,68.2484326991310694238672149749610919,67.2,1.0484326991310694238672149749610919
14,79.0636476620471721722852400187596538,78.0,1.0636476620471721722852400187596538
15,90.6777854446151194231676019804473552,89.6,1.0777854446151194231676019804473552
16,103.090988916251564552331369414062225,102.0,1.090988916251564552331369414062225
17,116.303374268136628562801002307162656,115.2,1.103374268136628562801002307162656
18,130.315037264220099778848615086924569,129.2,1.115037264220099778848615086924569
19,145.126057764325411690114249409692367,144.0,1.126057764325411690114249409692367
20,160.736503061783579599368881139896280,159.6,1.136503061783579599368881139896280
21,177.146430389514897977972333442984635,176.0,1.146430389514897977972333442984635
22,194.355888831187680748068129190595645,193.2,1.155888831187680748068129190595645
23,212.364920799154786061599809139268367,211.2,1.164920799154786061599809139268367
24,231.173563191854038562058312929791361,230.0,1.173563191854038562058312929791361
25,250.781848310604155861345015652583414,249.6,1.181848310604155861345015652583414
26,271.189804593412336361657045518699315,270.0,1.189804593412336361657045518699315
27,292.397457207936835151006506257047896,291.2,1.197457207936835151006506257047896
28,314.404828534846003891767243840567139,313.2,1.204828534846003891767243840567139
29,337.211938565020242800059820795628742,336.0,1.211938565020242800059820795628742
30,360.818805228393825244424966346482764,359.6,1.218805228393825244424966346482764
31,385.225444668087616992109282368920548,384.0,1.225444668087616992109282368920548
32,410.431871470405812546529259977867781,409.2,1.231871470405812546529259977867781
33,436.438098858960163215332008292541354,435.2,1.238098858960163215332008292541354
34,463.244138859434625282311863642892796,462.0,1.244138859434625282311863642892796
35,490.850002440164161590752162753103727,489.6,1.250002440164161590752162753103727
36,519.255699632667950967230713732746272,518.0,1.255699632667950967230713732746272
37,548.461239635473175366434119589231095,547.2,1.261239635473175366434119589231095
38,578.466630903935135874408983980599874,577.2,1.266630903935135874408983980599874
39,609.271881228261600058182738426210987,608.0,1.271881228261600058182738426210987
40,640.876997801553462366162078076084294,639.6,1.276997801553462366162078076084294
41,673.281987279357049010014081795353794,672.0,1.281987279357049010014081795353794
42,706.486855831968406157245573698285769,705.2,1.286855831968406157245573698285769
43,740.491609190523423918793839124093874,739.2,1.291609190523423918793839124093874
44,775.296252687739554600449903822643564,774.0,1.296252687739554600449903822643564
45,810.900791294037314117949338176280949,809.6,1.300791294037314117949338176280949
46,847.305229649656619192981583173058766,846.0,1.305229649656619192981583173058766
47,884.509572093289536335045679000209694,883.2,1.309572093289536335045679000209694
48,922.513822687673432249839439188127338,921.2,1.313822687673432249839439188127338
49,961.317985242523852770978911027549354,960.0,1.317985242523852770978911027549354
50,1000.92206333513233469819711146835752,999.6,1.32206333513233469819711146835752
51,1041.32606032890888796270318125407419,1040.0,1.32606032890888796270318125407419
52,1082.52997939011054032608761904549196,1081.2,1.32997939011054032608761904549196
53,1124.53382350296488670061661562889388,1123.2,1.33382350296488670061661562889388
54,1167.33759548337002404730524670725323,1166.0,1.33759548337002404730524670725323
55,1210.94129799132877731564987251016396,1209.6,1.34129799132877731564987251016396
56,1255.34493354225504731877704422909620,1254.0,1.34493354225504731877704422909620
57,1300.54850451727291247264898894874974,1299.2,1.34850451727291247264898894874974
58,1346.55201317261431914167641566195452,1345.2,1.35201317261431914167641566195452
59,1393.35546164820844138581549712958314,1392.0,1.35546164820844138581549712958314
60,1440.95885197554476639652484960833510,1439.6,1.35885197554476639652484960833510
61,1489.36218608488239768145472888158959,1488.0,1.36218608488239768145472888158959
62,1538.56546581186976705262808083564462,1537.2,1.36546581186976705262808083564462
63,1588.56869290363170458385324984634253,1587.2,1.36869290363170458385324984634253
64,1639.37186902437450322318672275790381,1638.0,1.37186902437450322318672275790381
65,1690.97499576055407990629205571351432,1689.6,1.37499576055407990629205571351432
66,1743.37807462564748767748748374342698,1742.0,1.37807462564748767748748374342698
67,1796.58110706456377103394934926337303,1795.2,1.38110706456377103394934926337303
68,1850.58409445772640054773028886866372,1849.2,1.38409445772640054773028886866372
69,1905.38703812485621014952465427838501,1904.0,1.38703812485621014952465427838501
70,1960.98993932848083218984981471224986,1959.6,1.38993932848083218984981471224986
71,2017.39279927719402668958120153158624,2016.0,1.39279927719402668958120153158624
72,2074.59561912868600294939917413851600,2073.2,1.39561912868600294939917413851600
73,2132.59839999256377868130257608366402,2131.2,1.39839999256377868130257608366402
74,2191.40114293297880297679112749163803,2190.0,1.40114293297880297679112749163803
75,2251.00384897107743832521596866093658,2249.6,1.40384897107743832521596866093658
76,2311.40651908728844733904242010562619,2310.0,1.40651908728844733904242010562619
77,2372.60915422346032744435108561329464,2371.2,1.40915422346032744435108561329464
78,2434.61175528486017099672321516808893,2433.2,1.41175528486017099672321516808893
79,2497.41432314204468146266408241704167,2496.0,1.41432314204468146266408241704167
80,2561.01685863261303818107367110994841,2559.6,1.41685863261303818107367110994841
81,2625.41936256285045287779744691752171,2624.0,1.41936256285045287779744691752171
82,2690.62183570927049965573643224853375,2689.2,1.42183570927049965573643224853375
83,2756.62427882006361144920617121139965,2755.2,1.42427882006361144920617121139965
84,2823.42669261645851163951805435010251,2822.0,1.42669261645851163951805435010251
85,2891.02907779400279025258277868944680,2889.6,1.42907779400279025258277868944680
86,2959.43143502376831829394639318518887,2958.0,1.43143502376831829394639318518887
87,3028.63376495348673630586952592717868,3027.2,1.43376495348673630586952592717868
88,3098.63606820861982985332466838725202,3097.2,1.43606820861982985332466838725202
89,3169.43834539336922114362488733825485,3168.0,1.43834539336922114362488733825485
90,3241.04059709162946276766804865630326,3239.6,1.44059709162946276766804865630326
91,3313.44282386788829809872998144696362,3312.0,1.44282386788829809872998144696362
92,3386.64502626807756458720078359707202,3385.2,1.44502626807756458720078359707202
93,3460.64720482037795393460293431749249,3459.2,1.44720482037795393460293431749249
94,3535.44936003598060020149169282921819,3534.0,1.44936003598060020149169282921819
95,3611.05149240980824574980930084856145,3609.6,1.45149240980824574980930084856145
96,3687.45360242119853309814800827854803,3686.0,1.45360242119853309814800827854803
97,3764.65569053455178642626742176673957,3763.2,1.45569053455178642626742176673957
98,3842.65775719994547359091685169887323,3841.2,1.45775719994547359091685169887323
99,3921.45980285371738604282431871063366,3920.0,1.45980285371738604282431871063366
100,4001.06182791901942769429770856886625,3999.6,1.46182791901942769429770856886625
101,4081.46383280634377448272914886268120,4080.0,1.46383280634377448272914886268120
102,4162.66581791402304080057256100890952,4161.2,1.46581791402304080057256100890952
103,4244.66778362870598104875144448190710,4243.2,1.46778362870598104875144448190710
104,4327.46973032581014730574365356737507,4326.0,1.46973032581014730574365356737507
105,4411.07165836995283103083281226261576,4409.6,1.47165836995283103083281226261576
106,4495.47356811536152595577250874337073,4494.0,1.47356811536152595577250874337073
107,4580.67545990626507123715387985233566,4579.2,1.47545990626507123715387985233566
108,4666.67733407726655470221282412977562,4665.2,1.47733407726655470221282412977562
109,4753.47919095369898742727897799334621,4752.0,1.47919095369898742727897799334621
110,4841.08103085196469846794343977346474,4839.6,1.48103085196469846794343977346474
111,4929.48285407985933269882377736027792,4928.0,1.48285407985933269882377736027792
112,5018.68466093688128528717137110456154,5017.2,1.48466093688128528717137110456154
113,5108.68645171452735078877200605828459,5107.2,1.48645171452735078877200605828459
114,5199.48822669657531609683439952134976,5198.0,1.48822669657531609683439952134976
115,5291.08998615935418602605867831187187,5289.6,1.48998615935418602605867831187187
116,5383.49173037200268198242866178221455,5382.0,1.49173037200268198242866178221455
117,5476.69345959671662245626499935699600,5475.2,1.49345959671662245626499935699600
118,5570.69517408898575304497072238245999,5569.2,1.49517408898575304497072238245999
119,5665.49687409782055999818435931921465,5664.0,1.49687409782055999818435931921465
120,5761.09855986596957543582088863250944,5759.6,1.49855986596957543582088863250944
121,5857.50023163012764412223654426095954,5856.0,1.50023163012764412223654426095954
122,5954.70188962113560276662067526650405,5953.2,1.50188962113560276662067526650405
123,6052.70353406417179062678591082344607,6051.2,1.50353406417179062678591082344607
124,6151.50516517893579251371918656693164,6150.0,1.50516517893579251371918656693164
125,6251.10678317982478572799314538535190,6249.6,1.50678317982478572799314538535190
126,6351.50838827610284726183979058102994,6350.0,1.50838827610284726183979058102994
127,6452.70998067206355702280192452267652,6451.2,1.50998067206355702280192452267652
128,6554.71156056718621024768805091928055,6553.2,1.51156056718621024768805091928055
129,6657.51312815628594020231822323130537,6656.0,1.51312815628594020231822323130537
130,6761.11468362965803388068115780311478,6759.6,1.51468362965803388068115780311478
131,6865.51622717321670801300478246082405,6864.0,1.51622717321670801300478246082405
132,6970.71775896862859771504173553666433,6969.2,1.51775896862859771504173553666433
133,7076.71927919344119832928707560496173,7075.2,1.51927919344119832928707560496173
134,7183.52078802120648973288704583268832,7182.0,1.52078802120648973288704583268832
135,7291.12228562159995427865489564770143,7289.6,1.52228562159995427865489564770143
136,7399.52377216053519584807950127659276,7398.0,1.52377216053519584807950127659276
137,7508.72524780027435418726908291016039,7507.2,1.52524780027435418726908291016039
138,7618.72671269953449508478153062598214,7617.2,1.52671269953449508478153062598214
139,7729.52816701359015484438737349041536,7728.0,1.52816701359015484438737349041536
140,7841.12961089437220205984310674523462,7839.6,1.52961089437220205984310674523462
141,7953.53104449056317514126259106845416,7952.0,1.53104449056317514126259106845416
142,8066.73246794768924596940734257920918,8065.2,1.53246794768924596940734257920918
143,8180.73388140820895140404700866082500,8179.2,1.53388140820895140404700866082500
144,8295.53528501159882719290459156046154,8294.0,1.53528501159882719290459156046154
145,8411.13667889443607463994162323330040,8409.6,1.53667889443607463994162323330040
146,8527.53806319047838252298785794764753,8526.0,1.53806319047838252298785794764753
147,8644.73943803074101854775385667587288,8643.2,1.53943803074101854775385667587288
148,8762.74080354357130566723151760268490,8761.2,1.54080354357130566723151760268490
149,8881.54215985472058506741346899606309,8880.0,1.54215985472058506741346899606309
150,9001.14350708741376946018492989571046,8999.6,1.54350708741376946018492989571046
151,9121.54484536241658259761789295920349,9120.0,1.54484536241658259761789295920349
152,9242.74617479810057530681287586517402,9241.2,1.54617479810057530681287586517402
153,9364.74749551050600699495683709018770,9363.2,1.54749551050600699495683709018770
154,9487.54880761340267652381377918995452,9486.0,1.54880761340267652381377918995452
155,9611.15011121834878068961487029151100,9609.6,1.55011121834878068961487029151100
156,9735.55140643474787817468493387614889,9734.0,1.55140643474787817468493387614889
157,9860.75269336990403001738186978839620,9859.2,1.55269336990403001738186978839620
158,9986.75397212907518841842335177973748,9985.2,1.55397212907518841842335177973748
159,10113.5552428155248975564070887880964,10112.0,1.5552428155248975564070887880964
160,10241.1565055305723727500351409544258,10239.6,1.5565055305723727500351409544258
161,10369.5577603736410164631341489627146,10368.0,1.5577603736410164631341489627146
162,10498.7590074423054306135437063486236,10497.2,1.5590074423054306135437063486236
163,10628.7602468323369800391429376642670,10627.2,1.5602468323369800391429376642670
164,10759.5614786377479617575813145207274,10758.0,1.5614786377479617575813145207274
165,10891.1627029508344286199020771894818,10889.6,1.5627029508344286199020771894818
166,11023.5639198622177178736178249185891,11022.0,1.5639198622177178736178249185891
167,11156.7651294608847318675286792866972,11155.2,1.5651294608847318675286792866972
168,11290.7663318342270135871673914374826,11289.2,1.5663318342270135871673914374826
169,11425.5675270680786620829326968760292,11424.0,1.5675270680786620829326968760292
170,11561.1687152467531275339977155283428,11559.6,1.5687152467531275339977155283428
171,11697.5698964530789261424247969651799,11696.0,1.5698964530789261424247969651799
172,11834.7710707684343127241157933615141,11833.2,1.5710707684343127241157933615141
173,11972.7722382727809463988991636861291,11971.2,1.5722382727809463988991636861291
174,12111.5733990446965852232388883880041,12110.0,1.5733990446965852232388883880041
175,12251.1745531614068437504689938150596,12249.6,1.5745531614068437504689938150596
176,12391.5757006988160432248772342223520,12390.0,1.5757006988160432248772342223520
177,12532.7768417315371876701463283424814,12531.2,1.5768417315371876701463283424814
178,12674.7779763329210950265196581953235,12673.2,1.5779763329210950265196581953235
179,12817.5791045750847097816080380833222,12816.0,1.5791045750847097816080380833222
180,12961.1802265289386280412072416306274,12959.6,1.5802265289386280412072416306274
181,13105.5813422642138576886831303348013,13104.0,1.5813422642138576886831303348013
182,13250.7824518494878413282805205270715,13249.2,1.5824518494878413282805205270715
183,13396.7835553522097650616003596919799,13395.2,1.5835553522097650616003596919799
184,13543.5846528387251773387518626156947,13542.0,1.5846528387251773387518626156947
185,13691.1857443742999396922736387569784,13689.6,1.5857443742999396922736387569784
186,13839.5868300231435303224133159951567,13838.0,1.5868300231435303224133159951567
187,13988.7879098484317243342338252475148,13987.2,1.5879098484317243342338252475148
188,14138.7889839123286660628307437226436,14137.2,1.5889839123286660628307437226436
189,14289.5900522760083572177187252591568,14288.0,1.5900522760083572177187252591568
190,14441.1911149996755764974316620825953,14439.6,1.5911149996755764974316620825953
191,14593.5921721425862498968551006547699,14592.0,1.5921721425862498968551006547699
192,14746.7932237630672880894599098021507,14745.2,1.5932237630672880894599098021507
193,14900.7942699185359091882505474646189,14899.2,1.5942699185359091882505474646189
194,15055.5953106655184602261753596016222,15054.0,1.5953106655184602261753596016222
195,15211.1963460596687552883218572666919,15209.6,1.5963460596687552883218572666919
196,15367.5973761557859439877606296167728,15366.0,1.5973761557859439877606296167728
197,15524.7984010078319246603220655602167,15523.2,1.5984010078319246603220655602167
198,15682.7994206689483164402478759880391,15681.2,1.5994206689483164402478759880391
199,15841.6004351914730030505340321994328,15840.0,1.6004351914730030505340321994328
200,16001.2014446269562622481269278017713,15999.6,1.6014446269562622481269278017713
201,16161.6024490261764919003524773510679,16160.0,1.6024490261764919003524773510679
202,16322.8034484391555460686906789265780,16321.2,1.6034484391555460686906789265780
203,16484.8044429151736917545783689155112,16483.2,1.6044429151736917545783689155112
204,16647.6054325027841979221029182028023,16646.0,1.6054325027841979221029182028023
205,16811.2064172498275667628996631708151,16809.6,1.6064172498275667628996631708151
206,16975.6073972034454202219512444286202,16974.0,1.6073972034454202219512444286202
207,17140.8083724100940476549151215390093,17139.2,1.6083724100940476549151215390093
208,17306.8093429155576288383851324083412,17305.2,1.6093429155576288383851324083412
209,17473.6103087649611380759155981081114,17472.0,1.6103087649611380759155981081114
210,17641.2112700027829408954081053286265,17639.6,1.6112700027829408954081053286265
211,17809.6122266728670906968184242943526,17808.0,1.6122266728670906968184242943526
212,17978.8131788184353355773067425760321,17977.2,1.6131788184353355773067425760321
213,18148.8141264820988397117202246967099,18147.2,1.6141264820988397117202246967099
214,18319.6150697058696342640925319184529,18318.0,1.6150697058696342640925319184529
215,18491.2160085311717970363860785289657,18489.6,1.6160085311717970363860785289657
216,18663.6169429988523748089286952022225,18662.0,1.6169429988523748089286952022225
217,18836.8178731491920523315811057131484,18835.2,1.6178731491920523315811057131484
218,19010.8187990219155769380793936844557,19009.2,1.6187990219155769380793936844557
219,19185.6197206562019420564824016798407,19184.0,1.6197206562019420564824016798407
220,19361.2206380906943421238458195849343,19359.6,1.6206380906943421238458195849343
221,19537.6215513635098968074066618779249,19536.0,1.6215513635098968074066618779249
222,19714.8224605122491617296374196931957,19713.2,1.6224605122491617296374196931957
223,19892.8233655740054192579947345917158,19891.2,1.6233655740054192579947345917158
224,20071.6242665853737644186543514452572,20070.0,1.6242665853737644186543514452572
225,20251.2251635824599884907685058267942,20249.6,1.6251635824599884907685058267942
226,20431.6260566008892638191798940566345,20430.0,1.6260566008892638191798940566345
227,20612.8269456758146384884320625480275,20611.2,1.6269456758146384884320625480275
228,20794.8278308419253426682689625708597,20793.2,1.6278308419253426682689625708597
229,20977.6287121334549137827601805254635,20976.0,1.6287121334549137827601805254635
230,21161.2295895841891451892815442732694,21159.6,1.6295895841891451892815442732694
231,21345.6304632274738601566067880758577,21344.0,1.6304632274738601566067880758577
232,21530.8313330962225215510162984232320,21529.2,1.6313330962225215510162984232320
233,21716.8321992229236722159122528650248,21715.2,1.6321992229236722159122528650248
234,21903.6330616396482221909911440327653,21902.0,1.6330616396482221909911440327653
235,22091.2339203780565759420582862162378,22089.6,1.6339203780565759420582862162378
236,22279.6347754694056093002372305202325,22278.0,1.6347754694056093002372305202325
237,22468.8356269445554997306855880350332,22467.2,1.6356269445554997306855880350332
238,22658.8364748339764116618120499550419,22657.2,1.6364748339764116618120499550419
