Eigenstate,Energy,Kinetic Energy,Potential Energy
1,0.500000000068286749576818248638775426,0.0,0.500000000068286749576818248638775426
2,1.84623093809685550497849555161569826,1.2,0.64623093809685550497849555161569826
3,3.93633761101430596350290609671548150,3.2,0.73633761101430596350290609671548150
4,6.79966528054143149832735290073703028,6.0,0.79966528054143149832735290073703028
5,10.4480465800097574621056541694293895,9.6,0.8480465800097574621056541694293895
6,14.8870660041803677253853877206032634,14.0,0.8870660041803677253853877206032634
7,20.1197208344944514604707765789383604,19.2,0.9197208344944514604707765789383604
8,26.1477838573305611829950864650772583,25.2,0.9477838573305611829950864650772583
9,32.9723835716959272710186362360331113,32.0,0.9723835716959272710186362360331113
10,40.5942802317397403968863430179815706,39.6,0.9942802317397403968863430179815706
11,49.0140094076034781702486899998976814,48.0,1.0140094076034781702486899998976814
12,58.2319621945921068531284500960084283,57.2,1.0319621945921068531284500960084283
13,68.2484327227717113132467423648743477,67.2,1.0484327227717113132467423648743477
14,79.0636476898256785117106298795893222,78.0,1.0636476898256785117106298795893222
15,90.6777854768688956366597082536612149,89.6,1.0777854768688956366597082536612149
16,103.090988953318203558899619449415628,102.0,1.090988953318203558899619449415628
17,116.303374310353906725937716686852016,115.2,1.103374310353906725937716686852016
18,130.315037311925976441530639754298073,129.2,1.115037311925976441530639754298073
19,145.126057817858031181242081381227142,144.0,1.126057817858031181242081381227142
20,160.736503121481274985203704268836452,159.6,1.136503121481274985203704268836452
21,177.146430455716196072564344802236858,176.0,1.146430455716196072564344802236858
22,194.355888904231308049993562998843504,193.2,1.155888904231308049993562998843504
23,212.364920879379675384559333726792725,211.2,1.164920879379675384559333726792725
24,231.173563279599336193902124237915060,230.0,1.173563279599336193902124237915060
25,250.781848406209229131809198869649375,249.6,1.181848406209229131809198869649375
26,271.189804697216781530867840568601660,270.0,1.189804697216781530867840568601660
27,292.397457320280485553263480130802545,291.2,1.197457320280485553263480130802545
28,314.404828656068938285232049959171437,313.2,1.204828656068938285232049959171437
29,337.211938695462793884708676130549172,336.0,1.211938695462793884708676130549172
30,360.818805368396588319275181994034233,359.6,1.218805368396588319275181994034233
31,385.225444817991458729189032515874159,384.0,1.225444817991458729189032515874159
32,410.431871630551879863935543557752488,409.2,1.231871630551879863935543557752488
33,436.438099029689892235441136010395981,435.2,1.238099029689892235441136010395981
34,463.244139041089750364071663337508481,462.0,1.244139041089750364071663337508481
35,490.850002633086724427211987287681193,489.6,1.250002633086724427211987287681193
36,519.255699837200309741211012981461773,518.0,1.255699837200309741211012981461773
37,548.461239851958013958616919816082030,547.2,1.261239851958013958616919816082030
38,578.466631132715473119228950210288538,577.2,1.266631132715473119228950210288538
39,609.271881469680799043779237624712678,608.0,1.271881469680799043779237624712678
40,640.876998055955239775363708517473291,639.6,1.276998055955239775363708517473291
41,673.281987547085484499904698480260543,672.0,1.281987547085484499904698480260543
42,706.486856113367951775332995237455101,705.2,1.286856113367951775332995237455101
43,740.491609485938913554190568257572769,739.2,1.291609485938913554190568257572769
44,775.296252997516213468795953327292644,774.0,1.296252997516213468795953327292644
45,810.900791618520768279073867024454585,809.6,1.300791618520768279073867024454585
46,847.305229989192905100522743611858900,846.0,1.305229989192905100522743611858900
47,884.509572448225110417434875724951158,883.2,1.309572448225110417434875724951158
48,922.513823058355180522213846289668087,921.2,1.313823058355180522213846289668087
49,961.317985629299100477719550721542285,960.0,1.317985629299100477719550721542285
50,1000.92206373834885598590336008367371,999.6,1.32206373834885598590336008367371
51,1041.32606074891491558351171559696613,1040.0,1.32606074891491558351171559696613
52,1082.52997982725477537132710457851824,1081.2,1.32997982725477537132710457851824
53,1124.53382395759650836486121776130548,1123.2,1.33382395759650836486121776130548
54,1167.33759595583869942295230349751244,1166.0,1.33759595583869942295230349751244
55,1210.94129848198467121820104693661521,1209.6,1.34129848198467121820104693661521
56,1255.34493405144883214304945542984819,1254.0,1.34493405144883214304945542984819
57,1300.54850504535577808018412023361013,1299.2,1.34850504535577808018412023361013
58,1346.55201371993798277965112277131347,1345.2,1.35201371993798277965112277131347
59,1393.35546221512515763779139309368120,1392.0,1.35546221512515763779139309368120
60,1440.95885256240733716540106495193609,1439.6,1.35885256240733716540106495193609
61,1489.36218669204418220501437789524009,1488.0,1.36218669204418220501437789524009
62,1538.56546643968469195209168422567141,1537.2,1.36546643968469195209168422567141
63,1588.56869355245427394587275745974707,1587.2,1.36869355245427394587275745974707
64,1639.37186969455980871573231164692229,1638.0,1.37186969455980871573231164692229
65,1690.97499645245781092890077948442552,1689.6,1.37499645245781092890077948442552
66,1743.37807533962594154635811004001820,1742.0,1.37807533962594154635811004001820
67,1796.58110780097386320238178436652339,1795.2,1.38110780097386320238178436652339
68,1850.58409521692567486242092395415830,1849.2,1.38409521692567486242092395415830
69,1905.38703890720284914324105420183712,1904.0,1.38703890720284914324105420183712
70,1960.98994013433366741101904437810369,1959.6,1.38994013433366741101904437810369
71,2017.39280010691254906933678104079244,2016.0,1.39280010691254906933678104079244
72,2074.59561998263037320664112653081128,2073.2,1.39561998263037320664112653081128
73,2132.59840087109483776633444758387581,2131.2,1.39840087109483776633444758387581
74,2191.40114383645808255410643244309054,2190.0,1.40114383645808255410643244309054
75,2251.00384989986717129601490427931381,2249.6,1.40384989986717129601490427931381
76,2311.40652004175157840406748020564898,2310.0,1.40652004175157840406748020564898
77,2372.60915520396052370763792868119601,2371.2,1.40915520396052370763792868119601
78,2434.61175629176183261087042857019611,2433.2,1.41175629176183261087042857019611
79,2497.41432417571295231623255373275711,2496.0,1.41432417571295231623255373275711
80,2561.01685969341381662873313963902482,2559.6,1.41685969341381662873313963902482
81,2625.41936365115040251384455439985732,2624.0,1.41936365115040251384455439985732
82,2690.62183682543706013161514666378107,2689.2,1.42183682543706013161514666378107
83,2756.62427996446500933566780659207619,2755.2,1.42427996446500933566780659207619
84,2823.42669378946377133406450713766301,2822.0,1.42669378946377133406450713766301
85,2891.02907899598174493284282747924329,2889.6,1.42907899598174493284282747924329
86,2959.43143625509162091764094366397832,2958.0,1.43143625509162091764094366397832
87,3028.63376621452587065802796938917576,3027.2,1.43376621452587065802796938917576
88,3098.63606949974712164142045297636760,3097.2,1.43606949974712164142045297636760
89,3169.43834671495784914130444479439099,3168.0,1.43834671495784914130444479439099
90,3241.04059844405347000775319765915812,3239.6,1.44059844405347000775319765915812
91,3313.44282525152260311618002293025798,3312.0,1.44282525152260311618002293025798
92,3386.64502768329797271272636159146161,3385.2,1.44502768329797271272636159146161
93,3460.64720626756116863962979387916807,3459.2,1.44720626756116863962979387916807
94,3535.44936151550423449517849603654099,3534.0,1.44936151550423449517849603654099
95,3611.05149392205083362882964278995255,3609.6,1.45149392205083362882964278995255
96,3687.45360396653954104995281142419520,3686.0,1.45360396653954104995281142419520
97,3764.65569211337162498655006857971479,3763.2,1.45569211337162498655006857971479
98,3842.65775881262550895600941223836476,3841.2,1.45775881262550895600941223836476
99,3921.45980450063995173775947067817076,3920.0,1.45980450063995173775947067817076
100,4001.06182960056783629727714246695834,3999.6,1.46182960056783629727714246695834
101,4081.46383452290232940674555222097094,4080.0,1.46383452290232940674555222097094
102,4162.66581966597704813293847609877525,4161.2,1.46581966597704813293847609877525
103,4244.66778541644176144929465005856000,4243.2,1.46778541644176144929465005856000
104,4327.46973214971504796443545253980632,4326.0,1.46973214971504796443545253980632
105,4411.07166023041523768562171021921948,4409.6,1.47166023041523768562171021921948
106,4495.47357001277087497140259932714239,4494.0,1.47357001277087497140259932714239
107,4580.67546184101186174575370701629933,4579.2,1.47546184101186174575370701629933
108,4666.67733604974236080644737437369957,4665.2,1.47733604974236080644737437369957
109,4753.47919296429647046686412038593736,4752.0,1.47919296429647046686412038593736
110,4841.08103290107761935032905768062211,4839.6,1.48103290107761935032905768062211
111,4929.48285616788256429485869271336721,4928.0,1.48285616788256429485869271336721
112,5018.68466306421082489257025736677656,5017.2,1.48466306421082489257025736677656
113,5108.68645388156033265221164295153821,5107.2,1.48645388156033265221164295153821
114,5199.48822890371002401551367666616473,5198.0,1.48822890371002401551367666616473
115,5291.08998840699006600956418072530874,5289.6,1.48998840699006600956418072530874
116,5383.49173266054035498575496128705364,5382.0,1.49173266054035498575496128705364
117,5476.69346192655789718284633637786064,5475.2,1.49346192655789718284633637786064
118,5570.69517646053363882058816371505825,5569.2,1.49517646053363882058816371505825
119,5665.49687651147927971662036052924401,5664.0,1.49687651147927971662036052924401
120,5761.09856232214457857714093942192681,5759.6,1.49856232214457857714093942192681
121,5857.50023412922561984458530158146476,5856.0,1.50023412922561984458530158146476
122,5954.70189216356449307242807249392562,5953.2,1.50189216356449307242807249392562
123,6052.70353665034080360428677455596062,6051.2,1.50353665034080360428677455596062
124,6151.50516780925541565469804750948827,6150.0,1.50516780925541565469804750948827
125,6251.10678585470679932267422222493183,6249.6,1.50678585470679932267422222493183
126,6351.50839099596033787185062335332001,6350.0,1.50839099596033787185062335332001
127,6452.70998343731093103314742028904198,6451.2,1.50998343731093103314742028904198
128,6554.71156337823920749868065436165677,6553.2,1.51156337823920749868065436165677
129,6657.51313101356164770241829728972411,6656.0,1.51313101356164770241829728972411
130,6761.11468653357489960121078405518950,6759.6,1.51468653357489960121078405518950
131,6865.51623012419455476570696214988493,6864.0,1.51623012419455476570696214988493
132,6970.71776196708863711346642511640138,6969.2,1.51776196708863711346642511640138
133,7076.71928223980604483499414676347209,7075.2,1.51928223980604483499414676347209
134,7183.52079111590017478746611341503041,7182.0,1.52079111590017478746611341503041
135,7291.12228876504794052257123652352324,7289.6,1.52228876504794052257123652352324
136,7399.52377535316439142736474882605058,7398.0,1.52377535316439142736474882605058
137,7508.72525104251312714908533838586110,7507.2,1.52525104251312714908533838586110
138,7618.72671599181268786289719023451150,7617.2,1.52671599181268786289719023451150
139,7729.52817035633909883561319839774145,7728.0,1.52817035633909883561319839774145
140,7841.12961428802473229248695124377406,7839.6,1.52961428802473229248695124377406
141,7953.53104793555364503667154244824720,7952.0,1.53104793555364503667154244824720
142,8066.73247144445354219767658574300883,8065.2,1.53247144445354219767658574300883
143,8180.73388495718450883498498311713921,8179.2,1.53388495718450883498498311713921
144,8295.53528861322464394335502016937463,8294.0,1.53528861322464394335502016937463
145,8411.13668254915272721857355291518139,8409.6,1.53668254915272721857355291518139
146,8527.53806689872804107367595556811206,8526.0,1.53806689872804107367595556811206
147,8644.73944179296746219268243305676503,8643.2,1.53944179296746219268243305676503
148,8762.74080736021993795086679205685315,8761.2,1.54080736021993795086679205685315
149,8881.54216372623844950250042836488725,8880.0,1.54216372623844950250042836488725
150,9001.14351101424956517693597508380063,8999.6,1.54351101424956517693597508380063
151,9121.54484934502068009727331502704602,9120.0,1.54484934502068009727331502704602
152,9242.74617883692503232076405613063093,9241.2,1.54617883692503232076405613063093
153,9364.74749960600458445063586419705689,9363.2,1.54749960600458445063586419705689
154,9487.54881176603085461856498219883874,9486.0,1.54881176603085461856498219883874
155,9611.15011542856377507377638044088747,9609.6,1.55011542856377507377638044088747
156,9735.55141070300865624512108002559071,9734.0,1.55141070300865624512108002559071
157,9860.75269769667132732271960105840441,9859.2,1.55269769667132732271960105840441
158,9986.75397651481152517725914492920890,9985.2,1.55397651481152517725914492920890
159,10113.5552472606945952897636763150734,10112.0,1.5552472606945952897636763150734
160,10241.1565100356415710293608598168922,10239.6,1.5565100356415710293608598168922
161,10369.5577649390776897751510035443372,10368.0,1.5577649390776897751510035443372
162,10498.7590120685794053432640270291263,10497.2,1.5590120685794053432640270291263
163,10628.7602515199199515723881913837461,10627.2,1.5602515199199515723881913837461
164,10759.5614833871135117043507801595257,10758.0,1.5614833871135117043507801595257
165,10891.1627077624580421599533544814041,10889.6,1.5627077624580421599533544814041
166,11023.5639247365768012256353605499013,11022.0,1.5639247365768012256353605499013
167,11156.7651343984586298832712294986130,11155.2,1.5651343984586298832712294986130
168,11290.7663368354970274720002198985050,11289.2,1.5663368354970274720002198985050
169,11425.5675321335280672441650922374235,11424.0,1.5675321335280672441650922374235
170,11561.1687203768671915584619699254556,11559.6,1.5687203768671915584619699254556
171,11697.5699016483449269047478367188708,11696.0,1.5699016483449269047478367188708
172,11834.7710760293415566271506299495833,11833.2,1.5710760293415566271506299495833
173,11972.7722435998207867477989053350166,11971.2,1.5722435998207867477989053350166
174,12111.5734044383624407346723614775225,12110.0,1.5734044383624407346723614775225
175,12251.1745586221942171984931757410836,12249.6,1.5745586221942171984931757410836
176,12391.5757062272225402249983730438623,12390.0,1.5757062272225402249983730438623
177,12532.7768473280625356031180975799441,12531.2,1.5768473280625356031180975799441
178,12674.7779819980671621034440048582380,12673.2,1.5779819980671621034440048582380
179,12817.5791103093555242519213474381015,12816.0,1.5791103093555242519213474381015
180,12961.1802323328403975451521463658439,12959.6,1.5802323328403975451521463658439
181,13105.5813481382549887558836834239264,13104.0,1.5813481382549887558836834239264
182,13250.7824577941789590240566370703093,13249.2,1.5824577941789590240566370703093
183,13396.7835613680637327826755757608223,13395.2,1.5835613680637327826755757608223
184,13543.5846589262571167600267731816042,13542.0,1.5846589262571167600267731816042
185,13691.1857505340272508663563978244519,13689.6,1.5857505340272508663563978244519
186,13839.5868362555859119336170398419103,13838.0,1.5868362555859119336170398419103
187,13988.7879161541111941087704818170607,13987.2,1.5879161541111941087704818170607
188,14138.7889902917695813369503007756337,14137.2,1.5889902917695813369503007756337
189,14289.5900587297374356655622265626443,14288.0,1.5900587297374356655622265626443
190,14441.1911215282219170203866993228239,14439.6,1.5911215282219170203866993228239
191,14593.5921787464813536762229710211186,14592.0,1.5921787464813536762229710211186
192,14746.7932304428450798042639963446321,14745.2,1.5932304428450798042639963446321
193,14900.7942766747327584000362209462062,14899.2,1.5942766747327584000362209462062
194,15055.5953174986732029326731623196985,15054.0,1.5953174986732029326731623196985
195,15211.1963529703227156478673067518475,15209.6,1.5963529703227156478673067518475
196,15367.5973831444829562163854055893768,15366.0,1.5973831444829562163854055893768
197,15524.7984080751183551034537619106606,15523.2,1.5984080751183551034537619106606
198,15682.7994278153730858209776331181480,15681.2,1.5994278153730858209776331181480
199,15841.6004424175876088964345108843296,15840.0,1.6004424175876088964345108843296
200,16001.2014519333148014986254945761175,15999.6,1.6014519333148014986254945761175
201,16161.6024564133356836966884381844462,16160.0,1.6024564133356836966884381844462
202,16322.8034559076747547285088563770476,16321.2,1.6034559076747547285088563770476
203,16484.8044504656149499332353389988058,16483.2,1.6044504656149499332353389988058
204,16647.6054401357122299627865943670341,16646.0,1.6054401357122299627865943670341
205,16811.2064249658098122376874816955798,16809.6,1.6064249658098122376874816955798
206,16975.6074050030520576659577860044176,16974.0,1.6074050030520576659577860044176
207,17140.8083802938980184957048281436418,17139.2,1.6083802938980184957048281436418
208,17306.8093508841346615228520806763552,17305.2,1.6093508841346615228520806763552
209,17473.6103168188897723968579070109203,17472.0,1.6103168188897723968579070109203
210,17641.2112781426445525200518327808263,17639.6,1.6112781426445525200518327808263
211,17809.6122348992459158995716783519101,17808.0,1.6122348992459158995716783519101
212,17978.8131871319184961790532173784381,17977.2,1.6131871319184961790532173784381
213,18148.8141348832763682279881778026714,18147.2,1.6141348832763682279881778026714
214,18319.6150781953344992644635475387784,18318.0,1.6150781953344992644635475387784
215,18491.2160171095199287175367368715569,18489.6,1.6160171095199287175367368715569
216,18663.6169516666826907837267431835700,18662.0,1.6169516666826907837267431835700
217,18836.8178819071064836366872603918365,18835.2,1.6178819071064836366872603918365
218,19010.8188078705190942625355541424088,19009.2,1.6188078705190942625355541424088
219,19185.6197295961025821937976105815197,19184.0,1.6197295961025821937976105815197
220,19361.2206471225032346501211840454839,19359.6,1.6206471225032346501211840454839
221,19537.6215604878412909880719633114896,19536.0,1.6215604878412909880719633114896
222,19714.8224697297204536574038371079835,19713.2,1.6224697297204536574038371079835
223,19892.8233748852371792246594228573575,19891.2,1.6233748852371792246594228573575
224,20071.6242759909897645234255825535078,20070.0,1.6242759909897645234255825535078
225,20251.2251730830872304878128228827373,20249.6,1.6251730830872304878128228827373
226,20431.6260661971580072071261066392474,20430.0,1.6260661971580072071261066392474
227,20612.8269553683584288446003723366338,20611.2,1.6269553683584288446003723366338
228,20794.8278406313810402304287061660436,20793.2,1.6278406313810402304287061660436
229,20977.6287220204627222812538567596227,20976.0,1.6287220204627222812538567596227
230,21161.2295995693926409323880894954325,21159.6,1.6295995693926409323880894954325
231,21345.6304733115200213720535808889934,21344.0,1.6304733115200213720535808889934
232,21530.8313432797617579865852573500152,21529.2,1.6313432797617579865852573500152
233,21716.8322095066098550021224300785778,21715.2,1.6322095066098550021224300785778
234,21903.6330720241387139688779607089565,21902.0,1.6330720241387139688779607089565
235,22091.2339308640122612591071653962813,22089.6,1.6339308640122612591071653962813
236,22279.6347860574909252775686468837083,22278.0,1.6347860574909252775686468837083
237,22468.8356376354384670046270461009655,22467.2,1.6356376354384670046270461009655
238,22658.8364856283286656030325741640960,22657.2,1.6364856283286656030325741640960
