Eigenstate,Energy,Kinetic Energy,Potential Energy
1,0.500000000026218985285831272538276139,0.0,0.500000000026218985285831272538276139
2,1.84623093782225841098801132328400866,1.2,0.64623093782225841098801132328400866
3,3.93633761020769618447721953801149371,3.2,0.73633761020769618447721953801149371
4,6.79966527886134694761636864584711083,6.0,0.79966527886134694761636864584711083
5,10.4480465770994884891019250107663914,9.6,0.8480465770994884891019250107663914
6,14.8870659996769499688997261606081485,14.0,0.8870659996769499688997261606081485
7,20.1197208280319779209248309928322050,19.2,0.9197208280319779209248309928322050
8,26.1477838485415622235095575178949285,25.2,0.9477838485415622235095575178949285
9,32.9723835602120111524371766383047628,32.0,0.9723835602120111524371766383047628
10,40.5942802171919173023408856456889276,39.6,0.9942802171919173023408856456889276
11,49.0140093896223352296580356872750912,48.0,1.0140093896223352296580356872750912
12,58.2319621728079072381439415171842758,57.2,1.0319621728079072381439415171842758
13,68.2484326968144519944814798641264354,67.2,1.0484326968144519944814798641264354
14,79.0636476593251242246499074698796879,78.0,1.0636476593251242246499074698796879
15,90.6777854414545984932981623077473840,89.6,1.0777854414545984932981623077473840
16,103.090988912619513641280343108245371,102.0,1.090988912619513641280343108245371
17,116.303374263999976812051038139804307,115.2,1.103374263999976812051038139804307
18,130.315037259545762794713938745907247,129.2,1.115037259545762794713938745907247
19,145.126057759080291626358843680203768,144.0,1.126057759080291626358843680203768
20,160.736503055934565069260715064580959,159.6,1.136503055934565069260715064580959
21,177.146430383028863843429795359873854,176.0,1.146430383028863843429795359873854
22,194.355888824031487818528658741423877,193.2,1.155888824031487818528658741423877
23,212.364920791295280725417448479733970,211.2,1.164920791295280725417448479733970
24,231.173563183258052366669558264787306,230.0,1.173563183258052366669558264787306
25,250.781848301238505053961830745582466,249.6,1.181848301238505053961830745582466
26,271.189804583243821399132250792721829,270.0,1.189804583243821399132250792721829
27,292.397457196932240185316270730624982,291.2,1.197457196932240185316270730624982
28,314.404828522972096235976131219763556,313.2,1.204828522972096235976131219763556
29,337.211938552243772378484233574509484,336.0,1.211938552243772378484233574509484
30,360.818805214681524029862997188964414,359.6,1.218805214681524029862997188964414
31,385.225444653406198432372107121207648,384.0,1.225444653406198432372107121207648
32,410.431871454721970982031474704446922,409.2,1.231871454721970982031474704446922
33,436.438098842240573289133915014623822,435.2,1.238098842240573289133915014623822
34,463.244138841645941343726057873904248,462.0,1.244138841645941343726057873904248
35,490.850002421273017093408646483225131,489.6,1.250002421273017093408646483225131
36,519.255699612640957862323792776201944,518.0,1.255699612640957862323792776201944
37,548.461239614276923491739261887450124,547.2,1.261239614276923491739261887450124
38,578.466630881536192339550293175683183,577.2,1.266630881536192339550293175683183
39,609.271881204626508626545505042047045,608.0,1.271881204626508626545505042047045
40,640.876997776648742833775317260893192,639.6,1.276997776648742833775317260893192
41,673.281987253149196581671486645722007,672.0,1.281987253149196581671486645722007
42,706.486855804423890820087173384015259,705.2,1.286855804423890820087173384015259
43,740.491609161608689813532751428971042,739.2,1.291609161608689813532751428971042
44,775.296252657421019390397267986753560,774.0,1.296252657421019390397267986753560
45,810.900791262281368355964529676250902,809.6,1.300791262281368355964529676250902
46,847.305229616429625686453135342372086,846.0,1.305229616429625686453135342372086
47,884.509572058557829508990169245146852,883.2,1.309572058557829508990169245146852
48,922.513822651403317508190308972473342,921.2,1.313822651403317508190308972473342
49,961.317985204681605856124257932707401,960.0,1.317985204681605856124257932707401
50,1000.92206329568420104881452400568113,999.6,1.32206329568420104881452400568113
51,1041.32606028782108206993032717157366,1040.0,1.32606028782108206993032717157366
52,1082.52997934734924508805930480276058,1081.2,1.32997934734924508805930480276058
53,1124.53382345849625277539216422237517,1123.2,1.33382345849625277539216422237517
54,1167.33759543716016920420412012950144,1166.0,1.33759543716016920420412012950144
55,1210.94129794334378578500834551187432,1209.6,1.34129794334378578500834551187432
56,1255.34493349246096914013429941751616,1254.0,1.34493349246096914013429941751616
57,1300.54850446563576284136713438559244,1299.2,1.34850446563576284136713438559244
58,1346.55201311910007775399554733263433,1345.2,1.35201311910007775399554733263433
59,1393.35546159278305178234197026496356,1392.0,1.35546159278305178234197026496356
60,1440.95885191817413530414833031884752,1439.6,1.35885191817413530414833031884752
61,1489.36218602553239435368729273552297,1488.0,1.36218602553239435368729273552297
62,1538.56546575050622260835660212168209,1537.2,1.36546575050622260835660212168209
63,1588.56869284022041134449452370157246,1587.2,1.36869284022041134449452370157246
64,1639.37186895888121404823316770753615,1638.0,1.37186895888121404823316770753615
65,1690.97499569294450752723440289628701,1689.6,1.37499569294450752723440289628701
66,1743.37807455588730403009958105814915,1742.0,1.37807455588730403009958105814915
67,1796.58110699261860658891906561951399,1795.2,1.38110699261860658891906561951399
68,1850.58409438356184363961946456113712,1849.2,1.38409438356184363961946456113712
69,1905.38703804843780630404008895005680,1904.0,1.38703804843780630404008895005680
70,1960.98993924977408344940646557589895,1959.6,1.38993924977408344940646557589895
71,2017.39279919616439093713795297754461,2016.0,1.39279919616439093713795297754461
72,2074.59561904529889323054686773317693,2073.2,1.39561904529889323054686773317693
73,2132.59839990678456252458331572340573,2131.2,1.39839990678456252458331572340573
74,2191.40114284477280171222729822643147,2190.0,1.40114284477280171222729822643147
75,2251.00384888040992640102683379879585,2249.6,1.40384888040992640102683379879585
76,2311.40651899412465163652568849732736,2310.0,1.40651899412465163652568849732736
77,2372.60915412776542659090633639864357,2371.2,1.40915412776542659090633639864357
78,2434.61175518659929467699363649123425,2433.2,1.41175518659929467699363649123425
79,2497.41432304118290972777257358239937,2496.0,1.41432304118290972777257358239937
80,2561.01685852911540075592896867268618,2559.6,1.41685852911540075592896867268618
81,2625.41936245668192846644556485395346,2624.0,1.41936245668192846644556485395346
82,2690.62183560039601524473236474395567,2689.2,1.42183560039601524473236474395567
83,2756.62427870844804160898048339298753,2755.2,1.42427870844804160898048339298753
84,2823.42669250206667782371266767235913,2822.0,1.42669250206667782371266767235913
85,2891.02907767679946009532996518807096,2889.6,1.42907767679946009532996518807096
86,2959.43143490371820490506470009772559,2958.0,1.43143490371820490506470009772559
87,3028.63376483055449756395008659782373,3027.2,1.43376483055449756395008659782373
88,3098.63606808277006769668108681327155,3097.2,1.43606808277006769668108681327155
89,3169.43834526456648085907962139420336,3168.0,1.43834526456648085907962139420336
90,3241.04059695983823227714798269133465,3239.6,1.44059695983823227714798269133465
91,3313.44282373307300724364362030271246,3312.0,1.44282373307300724364362030271246
92,3386.64502613020258441056927270023178,3385.2,1.44502613020258441056927270023178
93,3460.64720467940759596091688199875133,3459.2,1.44720467940759596091688199875133
94,3535.44935989187911571426553936845825,3534.0,1.44935989187911571426553936845825
95,3611.05149226253982506680475434261481,3609.6,1.45149226253982506680475434261481
96,3687.45360227072730484423785848475961,3686.0,1.45360227072730484423785848475961
97,3764.65569038084181680391081324110039,3763.2,1.45569038084181680391081324110039
98,3842.65775704296076564821689519801657,3841.2,1.45775704296076564821689519801657
99,3921.45980269342187893913870170102092,3920.0,1.45980269342187893913870170102092
100,4001.06182775537699596337275484263452,3999.6,1.46182775537699596337275484263452
101,4081.46383263931822729332757252911183,4080.0,1.46383263931822729332757252911183
102,4162.66581774357812121456494949953322,4161.2,1.46581774357812121456494949953322
103,4244.66778345480536527664130940494492,4243.2,1.46778345480536527664130940494492
104,4327.46973014841744395959564510193403,4326.0,1.46973014841744395959564510193403
105,4411.07165818903158037457354090176370,4409.6,1.47165818903158037457354090176370
106,4495.47356793087519915283316883484628,4494.0,1.47356793087519915283316883484628
107,4580.67545971817706959542368239365739,4579.2,1.47545971817706959542368239365739
108,4666.67733388554020891627203509201334,4665.2,1.47733388554020891627203509201334
109,4753.47919075829755681788015092329842,4752.0,1.47919075829755681788015092329842
110,4841.08103065285137021870922254143592,4839.6,1.48103065285137021870922254143592
111,4929.48285387699722109012947265107312,4928.0,1.48285387699722109012947265107312
112,5018.68466073023343092718020431051172,5017.2,1.48466073023343092718020431051172
113,5108.68645150405671984159086696629951,5107.2,1.48645150405671984159086696629951
114,5199.48822648224479950775758207495263,5198.0,1.48822648224479950775758207495263
115,5291.08998594112659874386695875348659,5289.6,1.48998594112659874386695875348659
116,5383.49173014984076217871082457115584,5382.0,1.49173014984076217871082457115584
117,5476.69345937058303074172871184674551,5475.2,1.49345937058303074172871184674551
118,5570.69517385884307168270943167561015,5569.2,1.49517385884307168270943167561015
119,5665.49687386363129211386668049290866,5664.0,1.49687386363129211386668049290866
120,5761.09855962769614422476872121745936,5759.6,1.49855962769614422476872121745936
121,5857.50023138773239205335793139046721,5856.0,1.50023138773239205335793139046721
122,5954.70188937458079078316320163376778,5953.2,1.50188937458079078316320163376778
123,6052.70353381341959734387620404402367,6051.2,1.50353381341959734387620404402367
124,6151.50516492394831341265386572777474,6150.0,1.50516492394831341265386572777474
125,6251.10678292056403234724631442676301,6249.6,1.50678292056403234724631442676301
126,6351.50838801253074638475195518016509,6350.0,1.50838801253074638475195518016509
127,6452.70998040414194986191498166877581,6451.2,1.50998040414194986191498166877581
128,6554.71156029487685162569073230317574,6553.2,1.51156029487685162569073230317574
129,6657.51312787955049772956617092161731,6656.0,1.51312787955049772956617092161731
130,6761.11468334845808712925554404539533,6759.6,1.51468334845808712925554404539533
131,6865.51622688751374768727317071652012,6864.0,1.51622688751374768727317071652012
132,6970.71775867838402481868456504260851,6969.2,1.51775867838402481868456504260851
133,7076.71927889861632332875300241289384,7075.2,1.51927889861632332875300241289384
134,7183.52078772176253171724003980142942,7182.0,1.52078772176253171724003980142942
135,7291.12228531749804011577576368003283,7289.6,1.52228531749804011577576368003283
136,7399.52377185173635933718426529539568,7398.0,1.52377185173635933718426529539568
137,7508.72524748673953520770637049592478,7507.2,1.52524748673953520770637049592478
138,7618.72671238122453874107086352796066,7617.2,1.52671238122453874107086352796066
139,7729.52816669046581060745997804007963,7728.0,1.52816669046581060745997804007963
140,7841.12961056639412290444660069277308,7839.6,1.52961056639412290444660069277308
141,7953.53104415769191667949066958987608,7952.0,1.53104415769191667949066958987608
142,8066.73246760988526558031524835838568,8065.2,1.53246760988526558031524835838568
143,8180.73388106543260735931332376728619,8179.2,1.53388106543260735931332376728619
144,8295.53528466381037777849962018059084,8294.0,1.53528466381037777849962018059084
145,8411.13667854159567727376233599273745,8409.6,1.53667854159567727376233599273745
146,8527.53806283254609286841907862162887,8526.0,1.53806283254609286841907862162887
147,8644.73943766767678962311510589879941,8643.2,1.53943766767678962311510589879941
148,8762.74080317533498695106860132167112,8761.2,1.54080317533498695106860132167112
149,8881.54215948127192159959364509776986,8880.0,1.54215948127192159959364509776986
150,9001.14350670871240093875415153322366,8999.6,1.54350670871240093875415153322366
151,9121.54484497842204247137833557745921,9120.0,1.54484497842204247137833557745921
152,9242.74617440877228986357866784225269,9241.2,1.54617440877228986357866784225269
153,9364.74749511580329444544557745359086,9363.2,1.54749511580329444544557745359086
154,9487.54880721328474608113113007010634,9486.0,1.54880721328474608113113007010634
155,9611.15011081277473164428921050265375,9609.6,1.55011081277473164428921050265375
156,9735.55140602367669896520869105015156,9734.0,1.55140602367669896520869105015156
157,9860.75269295329459729621587972237387,9859.2,1.55269295329459729621587972237387
158,9986.75397170688626611342025841290358,9985.2,1.55397170688626611342025841290358
159,10113.5552423877151359276094274594462,10112.0,1.5552423877151359276094274594462
160,10241.1565050971003074418034576881863,10239.6,1.5565050971003074418034576881863
161,10369.5577599344650675515601616544226,10368.0,1.5577599344650675515601616544226
162,10498.7590069973839016491031640330836,10497.2,1.5590069973839016491031640330836
163,10628.7602463816280570845425139445529,10627.2,1.5602463816280570845425139445529
164,10759.5614781812097124207534672943519,10758.0,1.5614781812097124207534672943519
165,10891.1627024884248010821015162481811,10889.6,1.5627024884248010821015162481811
166,11023.5639193938945399125728546080440,11022.0,1.5639193938945399125728546080440
167,11156.7651289866057098756003045051790,11155.2,1.5651289866057098756003045051790
168,11290.7663313539497315844687238322381,11289.2,1.5663313539497315844687238322381
169,11425.5675265817605807253608287275533,11424.0,1.5675265817605807253608287275533
170,11561.1687147543515831161298826325182,11559.6,1.5687147543515831161298826325182
171,11697.5698959545511295952302362040825,11696.0,1.5698959545511295952302362040825
172,11834.7710702637373486074343041976303,11833.2,1.5710702637373486074343041976303
173,11972.7722377618717718886371118965176,11971.2,1.5722377618717718886371118965176
174,12111.5733985275320290932328571947758,12110.0,1.5733985275320290932328571947758
175,12251.1745526379436053489669604431217,12249.6,1.5745526379436053489669604431217
176,12391.5757001690106914455867984714532,12390.0,1.5757001690106914455867984714532
177,12532.7768411953461599177990271012154,12531.2,1.5768411953461599177990271012154
178,12674.7779757903006961769000600970392,12673.2,1.5779757903006961769000600970392
179,12817.5791040259911111359958700924634,12816.0,1.5791040259911111359958700924634
180,12961.1802259733278662751803865320409,12959.6,1.5802259733278662751803865320409
181,13105.5813417020418337952289766021981,13104.0,1.5813417020418337952289766021981
182,13250.7824512807103195551625953506237,13249.2,1.5824512807103195551625953506237
183,13396.7835547767823718429268596420481,13395.2,1.5835547767823718429268596420481
184,13543.5846522566034002206922665463913,13542.0,1.5846522566034002206922665463913
185,13691.1857437854391262528689683301898,13689.6,1.5857437854391262528689683301898
186,13839.5868294274988870854255069815539,13838.0,1.5868294274988870854255069815539
187,13988.7879092459583156769788191067596,13987.2,1.5879092459583156769788191067596
188,14138.7889833029814131179398185475478,14137.2,1.5889833029814131179398185475478
189,14289.5900516597420367687718751604440,14288.0,1.5900516597420367687718751604440
190,14441.1911143764448198684065118847473,14439.6,1.5911143764448198684065118847473
191,14593.5921715123455418353343076229356,14592.0,1.5921715123455418353343076229356
192,14746.7932231257709656435395425360226,14745.2,1.5932231257709656435395425360226
193,14900.7942692741381605770914902136397,14899.2,1.5942692741381605770914902136397
194,15055.5953100139733237041392672592449,15054.0,1.5953100139733237041392672592449
195,15211.1963454009301180026327009668050,15209.6,1.5963454009301180026327009668050
196,15367.5973754898075408296323999280791,15366.0,1.5973754898075408296323999280791
197,15524.7984003345673371094926704148166,15523.2,1.5984003345673371094926704148166
198,15682.7994199883509714028588108988217,15681.2,1.5994199883509714028588108988217
199,15841.6004345034961716902948415376082,15840.0,1.6004345034961716902948415376082
200,16001.2014439315530588107029660385595,15999.6,1.6014439315530588107029660385595
201,16161.6024483232998725309140197545133,16160.0,1.6024483232998725309140197545133
202,16322.8034477287583076225607857931617,16321.2,1.6034477287583076225607857931617
203,16484.8044421972084706009165113292461,16483.2,1.6044421972084706009165113292461
204,16647.6054317772034687405606989648458,16646.0,1.6054317772034687405606989648458
205,16811.2064165165836413331845528901535,16809.6,1.6064165165836413331845528901535
206,16975.6073964624904462062335672701575,16974.0,1.6073964624904462062335672701575
207,17140.8083716613800073730131066100667,17139.2,1.6083716613800073730131066100667
208,17306.8093421590363380356621529422035,17305.2,1.6093421590363380356621529422035
209,17473.6103080005842446838232105000296,17472.0,1.6103080005842446838232105000296
210,17641.2112692305019237846079737912258,17639.6,1.6112692305019237846079737912258
211,17809.6122258926332584228155368528311,17808.0,1.6122258926332584228155368528311
212,17978.8131780301998251185257829008123,17977.2,1.6131780301998251185257829008123
213,18148.8141256858126151999564066295747,18147.2,1.6141256858126151999564066295747
214,18319.6150689014834857072675134147598,18318.0,1.6150689014834857072675134147598
215,18491.2160077186363390335390489421910,18489.6,1.6160077186363390335390489421910
216,18663.6169421781180452573720125955371,18662.0,1.6169421781180452573720125955371
217,18836.8178723202091111261493912040434,18835.2,1.6178723202091111261493912040434
218,19010.8187981846341046624002176045050,19009.2,1.6187981846341046624002176045050
219,19185.6197198105718386661961173432517,19184.0,1.6197198105718386661961173432517
220,19361.2206372366653256217014430010542,19359.6,1.6206372366653256217014430010542
221,19537.6215505010315019101601014384756,19536.0,1.6215505010315019101601014384756
222,19714.8224596412707385266775917206817,19713.2,1.6224596412707385266775917206817
223,19892.8233646944761318616225318214602,19891.2,1.6233646944761318616225318214602
224,20071.6242656972425896059387569199124,20070.0,1.6242656972425896059387569199124
225,20251.2251626856757143369033784968186,20249.6,1.6251626856757143369033784968186
226,20431.6260556954004883222643496233590,20430.0,1.6260556954004883222643496233590
227,20612.8269447615697681855966523003987,20611.2,1.6269447615697681855966523003987
228,20794.8278299188725912430691343122958,20793.2,1.6278299188725912430691343122958
229,20977.6287112015423006637578106207237,20976.0,1.6287112015423006637578106207237
230,21161.2295886433644941397345789596434,21159.6,1.6295886433644941397345789596434
231,21345.6304622776847978551864383581769,21344.0,1.6304622776847978551864383581769
232,21530.8313321374164761634702423998613,21529.2,1.6313321374164761634702423998613
233,21716.8321982550478719575918340837669,21715.2,1.6321982550478719575918340837669
234,21903.6330606626496938801595954961487,21902.0,1.6330606626496938801595954961487
235,22091.2339193918821435438963521176364,22089.6,1.6339193918821435438963521176364
236,22279.6347744740018924614618225274051,22278.0,1.6347744740018924614618225274051
237,22468.8356259398689123046961933870054,22467.2,1.6356259398689123046961933870054
238,22658.8364738199531602242789658757073,22657.2,1.6364738199531602242789658757073
