Eigenstate,Energy,Kinetic Energy,Potential Energy
1,0.500000000019977756080129871474840554,0.0,0.500000000019977756080129871474840554
2,1.84623093778151893589263505367640628,1.2,0.64623093778151893589263505367640628
3,3.93633761008802733945527877032634454,3.2,0.73633761008802733945527877032634454
4,6.79966527861209062397247091153079369,6.0,0.79966527861209062397247091153079369
5,10.4480465766677260068306144009935781,9.6,0.8480465766677260068306144009935781
6,14.8870659990088368114686898809811795,14.0,0.8870659990088368114686898809811795
7,20.1197208270732356623603238116298091,19.2,0.9197208270732356623603238116298091
8,26.1477838472376838113905903495459543,25.2,0.9477838472376838113905903495459543
9,32.9723835585083564832485255993955328,32.0,0.9723835585083564832485255993955328
10,40.5942802150337618394267782995735409,39.6,0.9942802150337618394267782995735409
11,49.0140093869548965158424302564893966,48.0,1.0140093869548965158424302564893966
12,58.2319621695763601438712210228468574,57.2,1.0319621695763601438712210228468574
13,68.2484326929639378335936022479488723,67.2,1.0484326929639378335936022479488723
14,79.0636476548007563410389256331874905,78.0,1.0636476548007563410389256331874905
15,90.6777854362014657185634179145401575,89.6,1.0777854362014657185634179145401575
16,103.090988906582682415112296186425556,102.0,1.090988906582682415112296186425556
17,116.303374257124492432789997746736568,115.2,1.103374257124492432789997746736568
18,130.315037251776650086634199224551462,129.2,1.115037251776650086634199224551462
19,145.126057750362555205210410756934360,144.0,1.126057750362555205210410756934360
20,160.736503046213189324456272208998631,159.6,1.136503046213189324456272208998631
21,177.146430372248812716098448869840594,176.0,1.146430372248812716098448869840594
22,194.355888812137704429681904787979154,193.2,1.155888812137704429681904787979154
23,212.364920778232686892144835919124523,211.2,1.164920778232686892144835919124523
24,231.173563168971548033365481396813160,230.0,1.173563168971548033365481396813160
25,250.781848285672967658137518595696663,249.6,1.181848285672967658137518595696663
26,271.189804566344105186191622323751710,270.0,1.189804566344105186191622323751710
27,292.397457178643175483016769205367191,291.2,1.197457178643175483016769205367191
28,314.404828503238488696670648829766823,313.2,1.204828503238488696670648829766823
29,337.211938531010402195329422592176244,336.0,1.211938531010402195329422592176244
30,360.818805191893145131770046316167361,359.6,1.218805191893145131770046316167361
31,385.225444629007537661424142366789352,384.0,1.225444629007537661424142366789352
32,410.431871428657727256297701547788934,409.2,1.231871428657727256297701547788934
33,436.438098814455416753204957601169034,435.2,1.238098814455416753204957601169034
34,463.244138812084512508828483951001218,462.0,1.244138812084512508828483951001218
35,490.850002389879925968594134807257553,489.6,1.250002389879925968594134807257553
36,519.255699579360783077944251558022022,518.0,1.255699579360783077944251558022022
37,548.461239579054211416194706425686634,547.2,1.261239579054211416194706425686634
38,578.466630844315456190117602861101707,577.2,1.266630844315456190117602861101707
39,609.271881165352227574952949075790574,608.0,1.271881165352227574952949075790574
40,640.876997735265361107072147718743185,639.6,1.276997735265361107072147718743185
41,673.281987209601122558848062842138033,672.0,1.281987209601122558848062842138033
42,706.486855758655496124824416724761384,705.2,1.286855758655496124824416724761384
43,740.491609113564308403396761956443613,739.2,1.291609113564308403396761956443613
44,775.296252607044946642742948669756157,774.0,1.296252607044946642742948669756157
45,810.900791209517860150768893303074957,809.6,1.300791209517860150768893303074957
46,847.305229561222897486262982170237698,846.0,1.305229561222897486262982170237698
47,884.509572000852055436138665868379229,883.2,1.309572000852055436138665868379229
48,922.513822591142629419411610281667669,921.2,1.313822591142629419411610281667669
49,961.317985141810092414673872086856937,960.0,1.317985141810092414673872086856937
50,1000.92206323014590679418491823873108,999.6,1.32206323014590679418491823873108
51,1041.32606021956000648523576140784966,1040.0,1.32606021956000648523576140784966
52,1082.52997927630934166515062782078763,1081.2,1.32997927630934166515062782078763
53,1124.53382338462142807775092836080794,1123.2,1.33382338462142807775092836080794
54,1167.33759536039428192765557109143177,1166.0,1.33759536039428192765557109143177
55,1210.94129786363064581628438260647006,1209.6,1.34129786363064581628438260647006
56,1255.34493340974433661331015388940085,1254.0,1.34493340974433661331015388940085
57,1300.54850437985934719218915213287141,1299.2,1.34850437985934719218915213287141
58,1346.55201303020753677211185632259357,1345.2,1.35201303020753677211185632259357
59,1393.35546150071799066144298551503102,1392.0,1.35546150071799066144298551503102
60,1440.95885182288010569001973810119972,1439.6,1.35885182288010569001973810119972
61,1489.36218592695289339017441352533463,1488.0,1.36218592695289339017441352533463
62,1538.56546564858469198123568896772584,1537.2,1.36546564858469198123568896772584
63,1588.56869273490023632324362649074984,1587.2,1.36869273490023632324362649074984
64,1639.37186885010572252569258381888923,1638.0,1.37186885010572252569258381888923
65,1690.97499558065696905714438541368568,1689.6,1.37499558065696905714438541368568
66,1743.37807444003092886250092697763560,1742.0,1.37807444003092886250092697763560
67,1796.58110687313654470340032841443535,1795.2,1.38110687313654470340032841443535
68,1850.58409426039718377639287763992158,1849.2,1.38409426039718377639287763992158
69,1905.38703792153357499282675702936561,1904.0,1.38703792153357499282675702936561
70,1960.98993911907324403611007984753606,1959.6,1.38993911907324403611007984753606
71,2017.39279906160984260828497535705268,2016.0,1.39279906160984260828497535705268
72,2074.59561890683347003547008930195393,2073.2,1.39561890683347003547008930195393
73,2132.59839976435103239532462395375592,2131.2,1.39839976435103239532462395375592
74,2191.40114269831386548113458639609361,2190.0,1.40114269831386548113458639609361
75,2251.00384872986821681601911075562080,2249.6,1.40384872986821681601911075562080
76,2311.40651883944273237399969045731198,2310.0,1.40651883944273237399969045731198
77,2372.60915396888579126625719647965812,2371.2,1.40915396888579126625719647965812
78,2434.61175502346436585272151421516260,2433.2,1.41175502346436585272151421516260
79,2497.41432287373503791914650979305624,2496.0,1.41432287373503791914650979305624
80,2561.01685835729686343417868045319299,2559.6,1.41685835729686343417868045319299
81,2625.41936228043492905945132480557270,2624.0,1.41936228043492905945132480557270
82,2690.62183541966268213518262538437254,2689.2,1.42183541966268213518262538437254
83,2756.62427852317042712996642882602467,2755.2,1.42427852317042712996642882602467
84,2823.42669231218675725172841832900656,2822.0,1.42669231218675725172841832900656
85,2891.02907748225913064064674119898620,2889.6,1.42907748225913064064674119898620
86,2959.43143470445928469944686441685107,2958.0,1.43143470445928469944686441685107
87,3028.63376462651872464568057649259000,3027.2,1.43376462651872464568057649259000
88,3098.63606787389909899286338853474428,3097.2,1.43606787389909899286338853474428
89,3169.43834505080189116518311185296450,3168.0,1.43834505080189116518311185296450
90,3241.04059674112151323376310290259224,3239.6,1.44059674112151323376310290259224
91,3313.44282350934556631041301565988204,3312.0,1.44282350934556631041301565988204
92,3386.64502590140574383726075892647845,3385.2,1.44502590140574383726075892647845
93,3460.64720444548259175560375105625929,3459.2,1.44720444548259175560375105625929
94,3535.44935965276709660857944573058713,3534.0,1.44935965276709660857944573058713
95,3611.05149201818185147822613070189316,3609.6,1.45149201818185147822613070189316
96,3687.45360202106434783538854335399907,3686.0,1.45360202106434783538854335399907
97,3764.65569012581475703881326293939082,3763.2,1.45569012581475703881326293939082
98,3842.65775678251039234548413239674596,3841.2,1.45775678251039234548413239674596
99,3921.45980242748888882205884234265066,3920.0,1.45980242748888882205884234265066
100,4001.06182748390199220685173505722287,3999.6,1.46182748390199220685173505722287
101,4081.46383236224171846765340313084910,4080.0,1.46383236224171846765340313084910
102,4162.66581746084052022595660278378186,4161.2,1.46581746084052022595660278378186
103,4244.66778316634698830454508995192917,4243.2,1.46778316634698830454508995192917
104,4327.46972985417850939069160795959416,4326.0,1.46972985417850939069160795959416
105,4411.07165788895220773345433003300839,4409.6,1.47165788895220773345433003300839
106,4495.47356762489540802931736316879703,4494.0,1.47356762489540802931736316879703
107,4580.67545940623677856846550385290340,4579.2,1.47545940623677856846550385290340
108,4666.67733356757923447442904292408345,4665.2,1.47733356757923447442904292408345
109,4753.47919043425561227630027211323488,4752.0,1.47919043425561227630027211323488
110,4841.08103032266806463259825791781027,4839.6,1.48103032266806463259825791781027
111,4929.48285354061205816465995925850494,4928.0,1.48285354061205816465995925850494
112,5018.68466038758580792380225792128344,5017.2,1.48466038758580792380225792128344
113,5108.68645115508592648070542734360582,5107.2,1.48645115508592648070542734360582
114,5199.48822612689001686771219529671786,5198.0,1.48822612689001686771219529671786
115,5291.08998557932689815623400452846504,5289.6,1.48998557932689815623400452846504
116,5383.49172978153510411980785491831842,5382.0,1.49172978153510411980785491831842
117,5476.69345899571026372034032286991667,5475.2,1.49345899571026372034032286991667
118,5570.69517347734193112396981917286119,5569.2,1.49517347734193112396981917286119
119,5665.49687347544039923926181821715610,5664.0,1.49687347544039923926181821715610
120,5761.09855923275400492821682028544988,5759.6,1.49855923275400492821682028544988
121,5857.50023098597739577332659867941085,5856.0,1.50023098597739577332659867941085
122,5954.70188896595120937078146709200701,5953.2,1.50188896595120937078146709200701
123,6052.70353339785358392699931421273794,6051.2,1.50353339785358392699931421273794
124,6151.50516450138390125583851761412354,6150.0,1.50516450138390125583851761412354
125,6251.10678249093913370759370130316546,6249.6,1.50678249093913370759370130316546
126,6351.50838757578315136357577240457027,6350.0,1.50838757578315136357577240457027
127,6452.70997996020932525219125602052846,6451.2,1.50997996020932525219125602052846
128,6554.71155984369673975524608259464026,6553.2,1.51155984369673975524608259464026
129,6657.51312742106031529996084331967722,6656.0,1.51312742106031529996084331967722
130,6761.11468288259512405031728976960263,6759.6,1.51468288259512405031728976960263
131,6865.51622641421516590723777295211793,6864.0,1.51622641421516590723777295211793
132,6970.71775819758685714989849832084551,6969.2,1.51775819758685714989849832084551
133,7076.71927841025747226889355906105016,7075.2,1.51927841025747226889355906105016
134,7183.52078722577876826600780808074168,7182.0,1.52078722577876826600780808074168
135,7291.12228481382600258701416666705725,7289.6,1.52228481382600258701416666705725
136,7399.52377134031255216638061236838319,7398.0,1.52377134031255216638061236838319
137,7508.72524696750032775482847837842950,7507.2,1.52524696750032775482847837842950
138,7618.72671185410616408869311223947481,7617.2,1.52671185410616408869311223947481
139,7729.52816615540436435413232224257549,7728.0,1.52816615540436435413232224257549
140,7841.12961002332556195325978442227966,7839.6,1.52961002332556195325978442227966
141,7953.53104360655205802179059826072156,7952.0,1.53104360655205802179059826072156
142,8066.73246705060978507451912206835509,8065.2,1.53246705060978507451912206835509
143,8180.73388049795703850477995283424702,8179.2,1.53388049795703850477995283424702
144,8295.53528408807011048440583142687034,8294.0,1.53528408807011048440583142687034
145,8411.13667795752595662293731126191054,8409.6,1.53667795752595662293731126191054
146,8527.53806224008201787608796592374162,8526.0,1.53806224008201787608796592374162
147,8644.73943706675331199050300831307080,8643.2,1.53943706675331199050300831307080
148,8762.74080256588690981381574774084516,8761.2,1.54080256588690981381574774084516
149,8881.54215886323389827093216142071083,8880.0,1.54215886323389827093216142071083
150,9001.14350608201893364739657865747879,8999.6,1.54350608201893364739657865747879
151,9121.54484434300748109406767166701086,9120.0,1.54484434300748109406767166701086
152,9242.74617376457083065224941692971460,9241.2,1.54617376457083065224941692971460
153,9364.74749446274897874894492524660529,9363.2,1.54749446274897874894492524660529
154,9487.54880655131145906144904211441679,9486.0,1.54880655131145906144904211441679
155,9611.15011014181620098724591199295114,9609.6,1.55011014181620098724591199295114
156,9735.55140534366649358554758222754877,9734.0,1.55140534366649358554758222754877
157,9860.75269226416612603704968457967725,9859.2,1.55269226416612603704968457967725
158,9986.75397100857277643997780136011633,9985.2,1.55397100857277643997780136011633
159,10113.5552416801497126152300494783099,10112.0,1.5552416801497126152300494783099
160,10241.1565043802158712581257876216603,10239.6,1.5565043802158712581257876216603
161,10369.5577592081943739328515220841809,10368.0,1.5577592081943739328515220841809
162,10498.7590062616595393706755646319641,10497.2,1.5590062616595393706755646319641
163,10628.7602456363824469252008637554030,10627.2,1.5602456363824469252008637554030
164,10759.5614774263751058212211351205753,10758.0,1.5614774263751058212211351205753
165,10891.1627017239332787973680632653042,10889.6,1.5627017239332787973680632653042
166,11023.5639186196780106581084253958946,11022.0,1.5639186196780106581084253958946
167,11156.7651282025959089673806970045793,11155.2,1.5651282025959089673806970045793
168,11290.7663305600782195727547549622106,11289.2,1.5663305600782195727547549622106
169,11425.5675257779587420221753660264080,11424.0,1.5675257779587420221753660264080
170,11561.1687139405506246163752615594800,11559.6,1.5687139405506246163752615594800
171,11697.5698951306820792913886186245373,11696.0,1.5698951306820792913886186245373
172,11834.7710694297310541977930050991356,11833.2,1.5710694297310541977930050991356
173,11972.7722369176588993789805193229768,11971.2,1.5722369176588993789805193229768
174,12111.5733976730430613919421660645695,12110.0,1.5733976730430613919421660645695
175,12251.1745517731088408554685229913391,12249.6,1.5745517731088408554685229913391
176,12391.5756992937602426320894735355359,12390.0,1.5756992937602426320894735355359
177,12532.7768403096099519042604461315218,12531.2,1.5768403096099519042604461315218
178,12674.7779748940084652991613477212909,12673.2,1.5779748940084652991613477212909
179,12817.5791031190724035070238822361818,12816.0,1.5791031190724035070238822361818
180,12961.1802250557120363393560921840650,12959.6,1.5802250557120363393560921840650
181,13105.5813407736580428756201375560609,13104.0,1.5813407736580428756201375560609
182,13250.7824503414875343937185188963286,13249.2,1.5824503414875343937185188963286
183,13396.7835538266493631335324667281024,13395.2,1.5835538266493631335324667281024
184,13543.5846512954887411350182743795603,13542.0,1.5846512954887411350182743795603
185,13691.1857428132711909589545378838237,13689.6,1.5857428132711909589545378838237
186,13839.5868284442058492589292315383178,13838.0,1.5868284442058492589292315383178
187,13988.7879082514681470050334462708122,13987.2,1.5879082514681470050334462708122
188,14138.7889822972218817955456164997585,14137.2,1.5889822972218817955456164997585
189,14289.5900506426407059876630629340772,14288.0,1.5900506426407059876630629340772
190,14441.1911133479290462983246868930931,14439.6,1.5911133479290462983246868930931
191,14593.5921704723424740976423181310746,14592.0,1.5921704723424740976423181310746
192,14746.7932220742075427771087414330058,14745.2,1.5932220742075427771087414330058
193,14900.7942682109411104963947743627134,14899.2,1.5942682109411104963947743627134
194,15055.5953089390691616494818482229788,15054.0,1.5953089390691616494818482229788
195,15211.1963443142451449824520076218557,15209.6,1.5963443142451449824520076218557
196,15367.5973743912678420547979688227029,15366.0,1.5973743912678420547979688227029
197,15524.7983992240987804195363829441481,15523.2,1.5983992240987804195363829441481
198,15682.7994188658792056840653174713093,15681.2,1.5994188658792056840653174713093
199,15841.6004333689466252855813983015729,15840.0,1.6004333689466252855813983015729
200,16001.2014427848509379212174382710197,15999.6,1.6014427848509379212174382710197
201,16161.6024471643701596092792772516382,16160.0,1.6024471643701596092792772516382
202,16322.8034465575257597576930476542325,16321.2,1.6034465575257597576930476542325
203,16484.8044410135976178943447392995365,16483.2,1.6044410135976178943447392995365
204,16647.6054305811386126741735337609324,16646.0,1.6054305811386126741735337609324
205,16811.2064153079888531283307132459113,16809.6,1.6064153079888531283307132459113
206,16975.6073952412895651741010335466585,16974.0,1.6073952412895651741010335466585
207,17140.8083704274966392562118976822832,17139.2,1.6083704274966392562118976822832
208,17306.8093409123938533409348072719412,17305.2,1.6093409123938533409348072719412
209,17473.6103067411057770058065970107783,17472.0,1.6103067411057770058065970107783
210,17641.2112679581103681205693278594514,17639.6,1.6112679581103681205693278594514
211,17809.6122246072512694782851245717910,17808.0,1.6122246072512694782851245717910
212,17978.8131767317498156037479635856212,17977.2,1.6131767317498156037479635856212
213,18148.8141243742167541170801152702821,18147.2,1.6141243742167541170801152702821
214,18319.6150675766636966281967263833151,18318.0,1.6150675766636966281967263833151
215,18491.2160063805142983683630617592435,18489.6,1.6160063805142983683630617592435
216,18663.6169408266151805132947317648450,18662.0,1.6169408266151805132947317648450
217,18836.8178709552465991568362113176432,18835.2,1.6178709552465991568362113176432
218,19010.8187968061328699076603760743741,19009.2,1.6187968061328699076603760743741
219,19185.6197184184525513819177816725139,19184.0,1.6197184184525513819177816725139
220,19361.2206358308484000999560973814137,19359.6,1.6206358308484000999560973814137
221,19537.6215490814370946893921120695115,19536.0,1.6215490814370946893921120695115
222,19714.8224582078187465918942081836760,19713.2,1.6224582078187465918942081836760
223,19892.8233632470861908344987892833200,19891.2,1.6233632470861908344987892833200
224,20071.6242642358340719247511595921327,20070.0,1.6242642358340719247511595921327
225,20251.2251612101677274262054337719536,20249.6,1.6251612101677274262054337719536
226,20431.6260542057118727522163747723807,20430.0,1.6260542057118727522163747723807
227,20612.8269432576190958208615855288387,20611.2,1.6269432576190958208615855288387
228,20794.8278284005781633811852568314924,20793.2,1.6278284005781633811852568314924
229,20977.6287096688221461628986089681781,20976.0,1.6287096688221461628986089681781
230,21161.2295870961363675357652991841163,21159.6,1.6295870961363675357652991841163
231,21345.6304607158661774679259409034360,21344.0,1.6304607158661774679259409034360
232,21530.8313305609245621920662719884542,21529.2,1.6313305609245621920662719884542
233,21716.8321966637995845649168102029595,21715.2,1.6321966637995845649168102029595
234,21903.6330590565616712661334094969457,21902.0,1.6330590565616712661334094969457
235,22091.2339177708707400076418311465977,22089.6,1.6339177708707400076418311465977
236,22279.6347728379831764521976930754845,22278.0,1.6347728379831764521976930754845
237,22468.8356242887586644612716180108648,22467.2,1.6356242887586644612716180108648
238,22658.8364721536668714032529554496211,22657.2,1.6364721536668714032529554496211
