Eigenstate,Energy,Kinetic Energy,Potential Energy
1,0.500000000926667331961650622356358384,0.0,0.500000000926667331961650622356358384
2,1.84623094370008295556220175638198352,1.2,0.64623094370008295556220175638198352
3,3.93633762747409320351827269296274793,3.2,0.73633762747409320351827269296274793
4,6.79966531482745420173376086867283009,6.0,0.79966531482745420173376086867283009
5,10.4480466394049449616562449195368506,9.6,0.8480466394049449616562449195368506
6,14.8870660960981412489354031946500806,14.0,0.8870660960981412489354031946500806
7,20.1197209664118785078691098916086451,19.2,0.9197209664118785078691098916086451
8,26.1477840367609349012111236496997431,25.2,0.9477840367609349012111236496997431
9,32.9723838061764362321069202445164767,32.0,0.9723838061764362321069202445164767
10,40.5942805288255986595588537944719742,39.6,0.9942805288255986595588537944719742
11,49.0140097748650978115650696419233972,48.0,1.0140097748650978115650696419233972
12,58.2319626396138221940662903335354162,57.2,1.0319626396138221940662903335354162
13,68.2484332531513492224523294576322197,67.2,1.0484332531513492224523294576322197
14,79.0636483131746169893149665496259786,78.0,1.0636483131746169893149665496259786
15,90.6777862008124183566354290062962576,89.6,1.0777862008124183566354290062962576
16,103.090989785496041731321928052402070,102.0,1.090989785496041731321928052402070
17,116.303375258420904244120647894629138,115.2,1.103375258420904244120647894629138
18,130.315038383552839162761819290527086,129.2,1.115038383552839162761819290527086
19,145.126059020732135637095537491165450,144.0,1.126059020732135637095537491165450
20,160.736504463307520505302298891011081,159.6,1.136504463307520505302298891011081
21,177.146431944217889695543343852411337,176.0,1.146431944217889695543343852411337
22,194.355890547151075033613780821939028,193.2,1.155890547151075033613780821939028
23,212.364922684480390375693140555889328,211.2,1.164922684480390375693140555889328
24,231.173565254665071623598942731719434,230.0,1.173565254665071623598942731719434
25,250.781850559046218428136093332322631,249.6,1.181850559046218428136093332322631
26,271.189807035654395457325330881720435,270.0,1.189807035654395457325330881720435
27,292.397459852172220487034222578880253,291.2,1.197459852172220487034222578880253
28,314.404831389293415614087427126086721,313.2,1.204831389293415614087427126086721
29,337.211941637924769967873786206254806,336.0,1.211941637924769967873786206254806
30,360.818808528027974655183545902308878,359.6,1.218808528027974655183545902308878
31,385.225448202752352121699225676195962,384.0,1.225448202752352121699225676195962
32,410.431875248431602491912896739921141,409.2,1.231875248431602491912896739921141
33,436.438102888708041618194153178806345,435.2,1.238102888708041618194153178806345
34,463.244143149297259283744170697548107,462.0,1.244143149297259283744170697548107
35,490.850006998566930923725528899483141,489.6,1.250006998566930923725528899483141
36,519.255704468070037339243938560798709,518.0,1.255704468070037339243938560798709
37,548.461244756368662321982576633231259,547.2,1.261244756368662321982576633231259
38,578.466636318854119357780571623101852,577.2,1.266636318854119357780571623101852
39,609.271886945771309923055591501358825,608.0,1.271886945771309923055591501358825
40,640.877003830259395100674814074683538,639.6,1.277003830259395100674814074683538
41,673.281993627904111965258666236062605,672.0,1.281993627904111965258666236062605
42,706.486862509042073584157292122013458,705.2,1.286862509042073584157292122013458
43,740.491616204850905133687756575154277,739.2,1.291616204850905133687756575154277
44,775.296260048090974613376183253332434,774.0,1.296260048090974613376183253332434
45,810.900799009226907070923931824564937,809.6,1.300799009226907070923931824564937
46,847.305237728543934967239906815504047,846.0,1.305237728543934967239906815504047
47,884.509580544780660697962905854325322,883.2,1.309580544780660697962905854325322
48,922.513831520722220923219916850066493,921.2,1.313831520722220923219916850066493
49,961.317994466133179813168585728665246,960.0,1.317994466133179813168585728665246
50,1000.92207295835535560301966603049093,999.6,1.32207295835535560301966603049093
51,1041.32607036085031788865416722319515,1040.0,1.32607036085031788865416722319515
52,1082.52998983992794787960711351908079,1081.2,1.32998983992794787960711351908079
53,1124.53383437987000370766604158470304,1123.2,1.33383437987000370766604158470304
54,1167.33760679663007175794651983996830,1166.0,1.33760679663007175794651983996830
55,1210.94130975026780949691062004667396,1209.6,1.34130975026780949691062004667396
56,1255.34494575625531070182134529596646,1254.0,1.34494575625531070182134529596646
57,1300.54851719577622503119212707160487,1299.2,1.34851719577622503119212707160487
58,1346.55202632512346668972146458468557,1345.2,1.35202632512346668972146458468557
59,1393.35547528428859299416192618951471,1392.0,1.35547528428859299416192618951471
60,1440.95886610482490913914596500606761,1439.6,1.35886610482490913914596500606761
61,1489.36220071705679123477158171671491,1488.0,1.36220071705679123477158171671491
62,1538.56548095669941868295355733991083,1537.2,1.36548095669941868295355733991083
63,1588.56870857094586507085236912151418,1587.2,1.36870857094586507085236912151418
64,1639.37188522407218428012429983946877,1638.0,1.37188522407218428012429983946877
65,1690.97501250260559367113672882337369,1689.6,1.37501250260559367113672882337369
66,1743.37809192009600886261955751879733,1742.0,1.37809192009600886261955751879733
67,1796.58112492152692233631075907109575,1795.2,1.38112492152692233631075907109575
68,1850.58411288739786193576593835154812,1849.2,1.38411288739786193576593835154812
69,1905.38705713750735265822301248488380,1904.0,1.38705713750735265822301248488380
70,1960.98995893446237687059861967604693,1959.6,1.38995893446237687059861967604693
71,2017.39281948693772937745657586421318,2016.0,1.39281948693772937745657586421318
72,2074.59563995270636552688968229479531,2073.2,1.39563995270636552688968229479531
73,2132.59842144145978753438483603676382,2131.2,1.39842144145978753438483603676382
74,2191.40116501743569535671230434089018,2190.0,1.40116501743569535671230434089018
75,2251.00387170186849734734310027616518,2249.6,1.40387170186849734734310027616518
76,2311.40654247527682636871014735746174,2310.0,1.40654247527682636871014735746174
77,2372.60917827960090463881836433274765,2371.2,1.40917827960090463881836433274765
78,2434.61178002020143479214238371240643,2433.2,1.41178002020143479214238371240643
79,2497.41434856773064781540246172095447,2496.0,1.41434856773064781540246172095447
80,2561.01688475988520039382802782924899,2559.6,1.41688475988520039382802782924899
81,2625.41938940304976486273727985410142,2624.0,1.41938940304976486273727985410142
82,2690.62186327383939350941435476178683,2689.2,1.42186327383939350941435476178683
83,2756.62430712054805023722698710400721,2755.2,1.42430712054805023722698710400721
84,2823.42672166451007831296679140071086,2822.0,1.42672166451007831296679140071086
85,2891.02910760138081364302904368790359,2889.6,1.42910760138081364302904368790359
86,2959.43146560234203715947357505531164,2958.0,1.43146560234203715947357505531164
87,3028.63379631523750242707293731660454,3027.2,1.43379631523750242707293731660454
88,3098.63610036564335120559893287890301,3097.2,1.43610036564335120559893287890301
89,3169.43837835787784620035545823488929,3168.0,1.43837835787784620035545823488929
90,3241.04063087595450701819749890439538,3239.6,1.44063087595450701819749890439538
91,3313.44285848448241389520300422622990,3312.0,1.44285848448241389520300422622990
92,3386.64506172951715546566335178625697,3385.2,1.44506172951715546566335178625697
93,3460.64724113936563458805465283554694,3459.2,1.44724113936563458805465283554694
94,3535.44939722534770331602660409545639,3534.0,1.44939722534770331602660409545639
95,3611.05153048251737694956098770454811,3609.6,1.45153048251737694956098770454811
96,3687.45364139034617528051816825141420,3686.0,1.45364139034617528051816825141420
97,3764.65573041337095480593012852578630,3763.2,1.45573041337095480593012852578630
98,3842.65779800180842280936487591954537,3841.2,1.45779800180842280936487591954537
99,3921.45984459213837073985079536824735,3920.0,1.45984459213837073985079536824735
100,4001.06187060765751797880044949179024,3999.6,1.46187060765751797880044949179024
101,4081.46387645900572778266450891794695,4080.0,1.46387645900572778266450891794695
102,4162.66586254466623161581172588062711,4161.2,1.46586254466623161581172588062711
103,4244.66782925144139017607269161794966,4243.2,1.46782925144139017607269161794966
104,4327.46977695490541215229008642513830,4326.0,1.46977695490541215229008642513830
105,4411.07170601983535868112758256145749,4409.6,1.47170601983535868112758256145749
106,4495.47361680062167070789699691889130,4494.0,1.47361680062167070789699691889130
107,4580.67550964165937837601522162917770,4579.2,1.47550964165937837601522162917770
108,4666.67738487772107233203427500126207,4665.2,1.47738487772107233203427500126207
109,4753.47924283431264824161775215350295,4752.0,1.47924283431264824161775215350295
110,4841.08108382801277339374379314946012,4839.6,1.48108382801277339374379314946012
111,4929.48290816679695841134651232108688,4928.0,1.48290816679695841134651232108688
112,5018.68471615034706765518396427113180,5017.2,1.48471615034706765518396427113180
113,5108.68650807034704637422268146513327,5107.2,1.48650807034704637422268146513327
114,5199.48828421076559390047208580888791,5198.0,1.48828421076559390047208580888791
115,5291.09004484812647174019695577055492,5289.6,1.49004484812647174019695577055492
116,5383.49179025176708708438072965697296,5382.0,1.49179025176708708438072965697296
117,5476.69352068408596055102096477131538,5475.2,1.49352068408596055102096477131538
118,5570.69523640077964594354907808418297,5569.2,1.49523640077964594354907808418297
119,5665.49693765106963609889875433893145,5664.0,1.49693765106963609889875433893145
120,5761.09862467791976305957293756128212,5759.6,1.49862467791976305957293756128212
121,5857.50029771824456254001678244767806,5856.0,1.50029771824456254001678244767806
122,5954.70195700310905374781040282450072,5953.2,1.50195700310905374781040282450072
123,6052.70360275792035343073120530053746,6051.2,1.50360275792035343073120530053746
124,6151.50523520261152534457219720707585,6150.0,1.50523520261152534457219720707585
125,6251.10685455181803677411995528451420,6249.6,1.50685455181803677411995528451420
126,6351.50846101504717854635394112552696,6350.0,1.50846101504717854635394112552696
127,6452.71005479684078440117462293335825,6451.2,1.51005479684078440117462293335825
128,6554.71163609693156300209380971667445,6553.2,1.51163609693156300209380971667445
129,6657.51320511039334380057625454357115,6656.0,1.51320511039334380057625454357115
130,6761.11476202778551959056992387893789,6759.6,1.51476202778551959056992387893789
131,6865.51630703529195319056241653133774,6864.0,1.51630703529195319056241653133774
132,6970.71784031485460071843963019495668,6969.2,1.51784031485460071843963019495668
133,7076.71936204430209214819749841179218,7075.2,1.51936204430209214819749841179218
134,7183.52087239747349856725046659183777,7182.0,1.52087239747349856725046659183777
135,7291.12237154433749745058989062142565,7289.6,1.52237154433749745058989062142565
136,7399.52385965110714358666623704733789,7398.0,1.52385965110714358666623704733789
137,7508.72533688035043998837690341391532,7507.2,1.52533688035043998837690341391532
138,7618.72680339109688951727502883454019,7617.2,1.52680339109688951727502883454019
139,7729.52825933894020585025257486658134,7728.0,1.52825933894020585025257486658134
140,7841.12970487613734697939482019557143,7839.6,1.52970487613734697939482019557143
141,7953.53114015170402988591157649682729,7952.0,1.53114015170402988591157649682729
142,8066.73256531150687696392080625578998,8065.2,1.53256531150687696392080625578998
143,8180.73398049835233612816725155884015,8179.2,1.53398049835233612816725155884015
144,8295.53538585207250936902501264016217,8294.0,1.53538585207250936902501264016217
145,8411.13678150960802033971370099938173,8409.6,1.53678150960802033971370099938173
146,8527.53816760508804370169863421337294,8526.0,1.53816760508804370169863421337294
147,8644.73954426990761076154250900314285,8643.2,1.53954426990761076154250900314285
148,8762.74091163280230698522740167447100,8761.2,1.54091163280230698522740167447100
149,8881.54226981992046345920470482118982,8880.0,1.54226981992046345920470482118982
150,9001.14361895489294621922008598087368,8999.6,1.54361895489294621922008598087368
151,9121.54495915890063965382915220322443,9120.0,1.54495915890063965382915220322443
152,9242.74629055073971458751416499994434,9241.2,1.54629055073971458751416499994434
153,9364.74761324688477031263823286567668,9363.2,1.54761324688477031263823286567668
154,9487.54892736154993480344086214624061,9486.0,1.54892736154993480344086214624061
155,9611.15023300674800169730495881896960,9609.6,1.55023300674800169730495881896960
156,9735.55153029234768227486128442658808,9734.0,1.55153029234768227486128442658808
157,9860.75281932612904386756705024059717,9859.2,1.55281932612904386756705024059717
158,9986.75410021383720691064201409828816,9985.2,1.55410021383720691064201409828816
159,10113.5553730592343647325767163067389,10112.0,1.5553730592343647325767163067389
160,10241.1566379641501928568167399585022,10239.6,1.5566379641501928568167399585022
161,10369.5578950285307067704548603715787,10368.0,1.5578950285307067704548603715787
162,10498.7591443504856281015421774841703,10497.2,1.5591443504856281015421774841703
163,10628.7603860263343145617935650724884,10627.2,1.5603860263343145617935650724884
164,10759.5616201506503088189756431125899,10758.0,1.5616201506503088189756431125899
165,10891.1628468163045554524181436122458,10889.6,1.5628468163045554524181436122458
166,11023.5640661145073370873732014467014,11022.0,1.5640661145073370873732014467014
167,11156.7652781348489775491569770321426,11155.2,1.5652781348489775491569770321426
168,11290.7664829653393553645625534829357,11289.2,1.5664829653393553645625534829357
169,11425.5676806924462733429091800216080,11424.0,1.5676806924462733429091800216080
170,11561.1688714011327246836239728446069,11559.6,1.5688714011327246836239728446069
171,11697.5700551748930965439378882991538,11696.0,1.5700551748930965439378882991538
172,11834.7712320957883497098942820350129,11833.2,1.5712320957883497098942820350129
173,11972.7724022444802105890651787299614,11971.2,1.5724022444802105890651787299614
174,12111.5735657002644122264322993480768,12110.0,1.5735657002644122264322993480768
175,12251.1747225411030192305308078775454,12249.6,1.5747225411030192305308078775454
176,12391.5758728436558672652976481198626,12390.0,1.5758728436558672652976481198626
177,12532.7770166833111513668448460309232,12531.2,1.5770166833111513668448460309232
178,12674.7781541342151932908586774674463,12673.2,1.5781541342151932908586774674463
179,12817.5792852693014154426132918926833,12816.0,1.5792852693014154426132918926833
180,12961.1804101603185535021279812648424,12959.6,1.5804101603185535021279812648424
181,13105.5815288778581316219003746193688,13104.0,1.5815288778581316219003746193688
182,13250.7826414913812291879370905412864,13249.2,1.5826414913812291879370905412864
183,13396.7837480692445635593490685336609,13395.2,1.5837480692445635593490685336609
184,13543.5848486787259144690133872213059,13542.0,1.5848486787259144690133872213059
185,13691.1859433860489134140849244544574,13689.6,1.5859433860489134140849244544574
186,13839.5870322564072206103320668737746,13838.0,1.5870322564072206103320668737746
187,13988.7881153539881150062232735308599,13987.2,1.5881153539881150062232735308599
188,14138.7891927419955145843058954363091,14137.2,1.5891927419955145843058954363091
189,14289.5902644826724525741844283176358,14288.0,1.5902644826724525741844283176358
190,14441.1913306373230272299714181229528,14439.6,1.5913306373230272299714181229528
191,14593.5923912663338465122277420649156,14592.0,1.5923912663338465122277420649156
192,14746.7934464291949862973398145341750,14745.2,1.5934464291949862973398145341750
193,14900.7944961845204827903887944809622,14899.2,1.5944961845204827903887944809622
194,15055.5955405900683749947263448764602,15054.0,1.5955405900683749947263448764602
195,15211.1965797027603178327065081814854,15209.6,1.5965797027603178327065081814854
196,15367.5976135787007824314154636673306,15366.0,1.5976135787007824314154636673306
197,15524.7986422731958609413799854300975,15523.2,1.5986422731958609413799854300975
198,15682.7996658407716932254295493726201,15681.2,1.5996658407716932254295493726201
199,15841.6006843351925316219794414056435,15840.0,1.6006843351925316219794414056435
200,16001.2016978094784613021450744909571,15999.6,1.6016978094784613021450744909571
201,16161.6027063159227910000065756814402,16160.0,1.6027063159227910000065756814402
202,16322.8037099061091315345677945512435,16321.2,1.6037099061091315345677945512435
203,16484.8047086309281770772198126204653,16483.2,1.6047086309281770772198126204653
204,16647.6057025405942053540478163263672,16646.0,1.6057025405942053540478163263672
205,16811.2066916846613116181220153244639,16809.6,1.6066916846613116181220153244639
206,16975.6076761120393945974299472819321,16974.0,1.6076761120393945974299472819321
207,17140.8086558710099058167328191988864,17139.2,1.6086558710099058167328191988864
208,17306.8096310092413824085574013004064,17305.2,1.6096310092413824085574013004064
209,17473.6106015738047754438056252805121,17472.0,1.6106015738047754438056252805121
210,17641.2115676111885919890832381671440,17639.6,1.6115676111885919890832381671440
211,17809.6125291673138654176184660735342,17808.0,1.6125291673138654176184660735342
212,17978.8134862875489718606413075328493,17977.2,1.6134862875489718606413075328493
213,18148.8144390167243053671845085923835,18147.2,1.6144390167243053671845085923835
214,18319.6153873991468355102502298266493,18318.0,1.6153873991468355102502298266493
215,18491.2163314786145560256464615153530,18489.6,1.6163314786145560256464615153530
216,18663.6172712984308484855474276526328,18662.0,1.6172712984308484855474276526328
217,18836.8182069014187757351268452821899,18835.2,1.6182069014187757351268452821899
218,19010.8191383299353256149038320635776,19009.2,1.6191383299353256149038320635776
219,19185.6200656258856206374722112006886,19184.0,1.6200656258856206374722112006886
220,19361.2209888307371194386104907498778,19359.6,1.6209888307371194386104907498778
221,19537.6219079855338222104584723418133,19536.0,1.6219079855338222104584723418133
222,19714.8228231309105126976336976755357,19713.2,1.6228231309105126976336976755357
223,19892.8237343071070468715786363359544,19891.2,1.6237343071070468715786363359544
224,20071.6246415539827211696367859563459,20070.0,1.6246415539827211696367859563459
225,20251.2255449110307420670994190642178,20249.6,1.6255449110307420670994190642178
226,20431.6264444173928212392146000959074,20430.0,1.6264444173928212392146000959074
227,20612.8273401118739273175122719743017,20611.2,1.6273401118739273175122719743017
228,20794.8282320329572202034406258822413,20793.2,1.6282320329572202034406258822413
229,20977.6291202188192011995242686296269,20976.0,1.6291202188192011995242686296269
230,21161.2300047073451118885052917727034,21159.6,1.6300047073451118885052917727034
231,21345.6308855361446141300031328161284,21344.0,1.6308855361446141300031328161284
232,21530.8317627425677947208188022389567,21529.2,1.6317627425677947208188022389567
233,21716.8326363637215256429760199604436,21715.2,1.6326363637215256429760199604436
234,21903.6335064364862350565239282406677,21902.0,1.6335064364862350565239282406677
235,22091.2343729975331245918755240480789,22089.6,1.6343729975331245918755240480789
236,22279.6352360833418887304979507879280,22278.0,1.6352360833418887304979507879280
237,22468.8360957302189900614574960784743,22467.2,1.6360957302189900614574960784743
238,22658.8369519743165468022705057846449,22657.2,1.6369519743165468022705057846449
