Eigenstate,Energy,Kinetic Energy,Potential Energy
1,0.500000000029796159588044865667236423,0.0,0.500000000029796159588044865667236423
2,1.84623093784560834600360802178490439,1.2,0.64623093784560834600360802178490439
3,3.93633761027628475897266811335687931,3.2,0.73633761027628475897266811335687931
4,6.79966527900420918648518946066821274,6.0,0.79966527900420918648518946066821274
5,10.4480465773469552760337190460591121,9.6,0.8480465773469552760337190460591121
6,14.8870660000598831115816161994228134,14.0,0.8870660000598831115816161994228134
7,20.1197208285814882733987372106538362,19.2,0.9197208285814882733987372106538362
8,26.1477838492888920992867205017334580,25.2,0.9477838492888920992867205017334580
9,32.9723835611884796168497698568593074,32.0,0.9723835611884796168497698568593074
10,40.5942802184288923786880665945990416,39.6,0.9942802184288923786880665945990416
11,49.0140093911512187751288844082392100,48.0,1.0140093911512187751288844082392100
12,58.2319621746601262760586273026780718,57.2,1.0319621746601262760586273026780718
13,68.2484326990214535613689409043812046,67.2,1.0484326990214535613689409043812046
14,79.0636476619183722401127216327324851,78.0,1.0636476619183722401127216327324851
15,90.6777854444655718501808200944429020,89.6,1.0777854444655718501808200944429020
16,103.090988916079705062367562567063989,102.0,1.090988916079705062367562567063989
17,116.303374267940892205381238256497340,115.2,1.103374267940892205381238256497340
18,130.315037263998920943275149798869580,129.2,1.115037263998920943275149798869580
19,145.126057764077224108125965325645080,144.0,1.126057764077224108125965325645080
20,160.736503061506816339724578741530695,159.6,1.136503061506816339724578741530695
21,177.146430389207991435216717623245894,176.0,1.146430389207991435216717623245894
22,194.355888830849062627024343703156775,193.2,1.155888830849062627024343703156775
23,212.364920798782887358667565539160667,211.2,1.164920798782887358667565539160667
24,231.173563191447289544085915509545859,230.0,1.173563191447289544085915509545859
25,250.781848310160986042631580606965531,249.6,1.181848310160986042631580606965531
26,271.189804592931174479493882917169761,270.0,1.189804592931174479493882917169761
27,292.397457207416109140062514879706429,291.2,1.197457207416109140062514879706429
28,314.404828534284140857548441390811419,313.2,1.204828534284140857548441390811419
29,337.211938564415668991618736381152489,336.0,1.211938564415668991618736381152489
30,360.818805227744966026455504466523867,359.6,1.218805227744966026455504466523867
31,385.225444667392896816532722060485714,384.0,1.225444667392896816532722060485714
32,410.431871469663654923654448610343576,409.2,1.231871469663654923654448610343576
33,436.438098858168990684655565328636645,435.2,1.238098858168990684655565328636645
34,463.244138858592859383010930126703407,462.0,1.244138858592859383010930126703407
35,490.850002439270222831911913294800461,489.6,1.250002439270222831911913294800461
36,519.255699631720258797840753902658615,518.0,1.255699631720258797840753902658615
37,548.461239634470148145181503957789956,547.2,1.261239634470148145181503957789956
38,578.466630902875190839290496910849932,577.2,1.266630902875190839290496910849932
39,609.271881227143153295955005702262772,608.0,1.271881227143153295955005702262772
40,640.876997800374928781644784570395224,639.6,1.276997800374928781644784570395224
41,673.281987278116842295258898299489688,672.0,1.281987278116842295258898299489688
42,706.486855830664938760581207603801847,705.2,1.286855830664938760581207603801847
43,740.491609189155107013755837404027552,739.2,1.291609189155107013755837404027552
44,775.296252686304798054602351806512316,774.0,1.296252686304798054602351806512316
45,810.900791292534526461604363414362224,809.6,1.300791292534526461604363414362224
46,847.305229648084207587821558251129386,846.0,1.305229648084207587821558251129386
47,884.509572091645906542652145048431796,883.2,1.309572091645906542652145048431796
48,922.513822685956988600132055834703222,921.2,1.313822685956988600132055834703222
49,961.317985240732998130567125629049287,960.0,1.317985240732998130567125629049287
50,1000.92206333326547043864671567875402,999.6,1.32206333326547043864671567875402
51,1041.32606032696441392871948635199981,1040.0,1.32606032696441392871948635199981
52,1082.52997938808685480361659935648270,1081.2,1.32997938808685480361659935648270
53,1124.53382350086038638486504409181821,1123.2,1.33382350086038638486504409181821
54,1167.33759548118310401068056656926548,1166.0,1.33759548118310401068056656926548
55,1210.94129798905783097562030545178788,1209.6,1.34129798905783097562030545178788
56,1255.34493353989846640565222567301933,1254.0,1.34493353989846640565222567301933
57,1300.54850451482908699728123861629778,1299.2,1.34850451482908699728123861629778
58,1346.55201317008163736308258848116182,1345.2,1.35201317008163736308258848116182
59,1393.35546164558528977871922028705666,1392.0,1.35546164558528977871922028705666
60,1440.95885197282952961881883050354367,1439.6,1.35885197282952961881883050354367
61,1489.36218608207345854158270658945772,1488.0,1.36218608207345854158270658945772
62,1538.56546580896550647688589648057301,1537.2,1.36546580896550647688589648057301
63,1588.56869290063050158360842876040172,1587.2,1.36869290063050158360842876040172
64,1639.37186902127473486201588295963482,1638.0,1.37186902127473486201588295963482
65,1690.97499575735412126703538983290278,1689.6,1.37499575735412126703538983290278
66,1743.37807462234571182921949559640009,1742.0,1.37807462234571182921949559640009
67,1796.58110706115854899886498227701156,1795.2,1.38110706115854899886498227701156
68,1850.58409445421610126794552422363759,1849.2,1.38409445421610126794552422363759
69,1905.38703812123920045379061145949895,1904.0,1.38703812123920045379061145949895
70,1960.98993932475547676017935248865227,1959.6,1.38993932475547676017935248865227
71,2017.39279927335868802778697613615844,2016.0,1.39279927335868802778697613615844
72,2074.59561912473904134354207544929575,2073.2,1.39561912473904134354207544929575
73,2132.59839998850355217204943627398767,2131.2,1.39839998850355217204943627398767
74,2191.40114292880366732368056916719040,2190.0,1.40114292880366732368056916719040
75,2251.00384896678574697283121763044943,2249.6,1.40384896678574697283121763044943
76,2311.40651908287855138308990525499841,2310.0,1.40651908287855138308990525499841
77,2372.60915421893057559764361175012141,2371.2,1.40915421893057559764361175012141
78,2434.61175528020890955506647127490694,2433.2,1.41175528020890955506647127490694
79,2497.41432313727025427064523648891885,2496.0,1.41432313727025427064523648891885
80,2561.01685862771378659775077697738662,2559.6,1.41685862771378659775077697738662
81,2625.41936255782471574228837387729714,2624.0,1.41936255782471574228837387729714
82,2690.62183570411661325270600748976475,2689.2,1.42183570411661325270600748976475
83,2756.62427881477990947425021579385253,2755.2,1.42427881477990947425021579385253
84,2823.42669261104332516444296924038531,2822.0,1.42669261104332516444296924038531
85,2891.02907778845444769057932757646877,2889.6,1.42907778845444769057932757646877
86,2959.43143501808514536465631132935938,2958.0,1.43143501808514536465631132935938
87,3028.63376494766705600034357448315289,3027.2,1.43376494766705600034357448315289
88,3098.63606820266196239887074300631362,3097.2,1.43606820266196239887074300631362
89,3169.43834538727148396854476074515596,3168.0,1.43834538727148396854476074515596
90,3241.04059708539017046588133786051124,3239.6,1.44059708539017046588133786051124
91,3313.44282386150576239428389504648747,3312.0,1.44282386150576239428389504648747
92,3386.64502626155009429866420713064564,3385.2,1.44502626155009429866420713064564
93,3460.64720481370385493934340107255996,3459.2,1.44720481370385493934340107255996
94,3535.44936002915817539983376220866285,3534.0,1.44936002915817539983376220866285
95,3611.05149240283579502907286638768946,3609.6,1.45149240283579502907286638768946
96,3687.45360241407435329656503870727357,3686.0,1.45360241407435329656503870727357
97,3764.65569052727417129677564207601940,3763.2,1.45569052727417129677564207601940
98,3842.65775719251271376482883983391952,3841.2,1.45775719251271376482883983391952
99,3921.45980284612776899337049333801917,3920.0,1.45980284612776899337049333801917
100,4001.06182791127123770004167607166892,3999.6,1.46182791127123770004167607166892
101,4081.46383279843529259085384873459836,4080.0,1.46383279843529259085384873459836
102,4162.66581790595254479003566983512817,4161.2,1.46581790595254479003566983512817
103,4244.66778362047174539330846194065131,4243.2,1.46778362047174539330846194065131
104,4327.46973031741044313683707156786504,4326.0,1.46973031741044313683707156786504
105,4411.07165836138592610034580184000657,4409.6,1.47165836138592610034580184000657
106,4495.47356810662568459864551140067096,4494.0,1.47356810662568459864551140067096
107,4580.67545989735855433386248902433105,4579.2,1.47545989735855433386248902433105
108,4666.67733406818761964110533307229180,4665.2,1.47733406818761964110533307229180
109,4753.47919094444588806677196014066428,4752.0,1.47919094444588806677196014066428
110,4841.08103084253568509857371519616297,4839.6,1.48103084253568509857371519616297
111,4929.48285407025265200515511124127473,4928.0,1.48285407025265200515511124127473
112,5018.68466092709518030955422821508590,5017.2,1.48466092709518030955422821508590
113,5108.68645170456006088495468773903113,5107.2,1.48645170456006088495468773903113
114,5199.48822668642507690342387353109461,5198.0,1.48822668642507690342387353109461
115,5291.08998614901922941982938699648584,5289.6,1.48998614901922941982938699648584
116,5383.49173036148123604147761257153629,5382.0,1.49173036148123604147761257153629
117,5476.69345958600691142101140345612518,5475.2,1.49345958600691142101140345612518
118,5570.69517407808599727899844246525733,5569.2,1.49517407808599727899844246525733
119,5665.49687408672897594892541614033377,5664.0,1.49687408672897594892541614033377
120,5761.09855985468437559507828011686433,5759.6,1.49855985468437559507828011686433
121,5857.50023161864703698654458935888223,5856.0,1.50023161864703698654458935888223
122,5954.70188960945779279744109926323713,5953.2,1.50188960945779279744109926323713
123,6052.70353405229497821053788798211416,6051.2,1.50353405229497821053788798211416
124,6151.50516516685817392164151883792520,6150.0,1.50516516685817392164151883792520
125,6251.10678316754455307583676173522537,6249.6,1.50678316754455307583676173522537
126,6351.50838826361818846938873032429647,6350.0,1.50838826361818846938873032429647
127,6452.70998065937265577322096227751024,6451.2,1.50998065937265577322096227751024
128,6554.71156055428724594669509111740688,6553.2,1.51156055428724594669509111740688
129,6657.51312814317708793717962518028507,6656.0,1.51312814317708793717962518028507
130,6761.11468361633746437902806766709743,6759.6,1.51468361633746437902806766709743
131,6865.51622715968258760146858496918181,6864.0,1.51622715968258760146858496918181
132,6970.71775895487908827770672587322966,6969.2,1.51775895487908827770672587322966
133,7076.71927917947445726595842949709173,7075.2,1.51927917947445726595842949709173
134,7183.52078800702066991717213519963667,7182.0,1.52078800702066991717213519963667
135,7291.12228560719320401585598984225794,7289.6,1.52228560719320401585598984225794
136,7399.52377214590565883289591105068684,7398.0,1.52377214590565883289591105068684
137,7508.72524778542016946130675363951504,7507.2,1.52524778542016946130675363951504
138,7618.72671268445379699386809613410926,7617.2,1.52671268445379699386809613410926
139,7729.52816699828107299569065865876624,7728.0,1.52816699828107299569065865876624
140,7841.12961087883286127879104531468178,7839.6,1.52961087883286127879104531468178
141,7953.53104447479169542826254336753357,7952.0,1.53104447479169542826254336753357
142,8066.73246793168374245636275791738640,8065.2,1.53246793168374245636275791738640
143,8180.73388139196753431066934340668076,8179.2,1.53388139196753431066934340668076
144,8295.53528499511960178281840995306849,8294.0,1.53528499511960178281840995306849
145,8411.13667887771714117658079720280749,8409.6,1.53667887771714117658079720280749
146,8527.53806317351783622528073770071736,8526.0,1.53806317351783622528073770071736
147,8644.73943801353694954559527771100562,8643.2,1.53943801353694954559527771100562
148,8762.74080352612179895673952106908510,8761.2,1.54080352612179895673952106908510
149,8881.54215983702372046596857329348382,8880.0,1.54215983702372046596857329348382
150,9001.14350706946762156124974035767948,8999.6,1.54350706946762156124974035767948
151,9121.54484534421922072533489326865791,9120.0,1.54484534421922072533489326865791
152,9242.74617477965006347037818942721653,9241.2,1.54617477965006347037818942721653
153,9364.74749549180040384276771448395769,9363.2,1.54749549180040384276771448395769
154,9487.54880759444003529738756464103225,9486.0,1.54880759444003529738756464103225
155,9611.15011119912714917727721448760809,9609.6,1.55011119912714917727721448760809
156,9735.55140641526529866502496928333256,9734.0,1.55140641526529866502496928333256
157,9860.75269335015853925247201335155947,9859.2,1.55269335015853925247201335155947
158,9986.75397210906481754680147780272309,9985.2,1.55397210906481754680147780272309
159,10113.5552427952476720858187092974750,10112.0,1.5552427952476720858187092974750
160,10241.1565055100263124999332347687796,10239.6,1.5565055100263124999332347687796
161,10369.5577603528241355169343068813046,10368.0,1.5577603528241355169343068813046
162,10498.7590074212157372706321808830258,10497.2,1.5590074212157372706321808830258
163,10628.7602468109724767666352150313876,10627.2,1.5602468109724767666352150313876
164,10759.5614786161066451418287554973591,10758.0,1.5614786161066451418287554973591
165,10891.1627029289142893177441909666297,10889.6,1.5627029289142893177441909666297
166,11023.5639198400167405633777527209489,11022.0,1.5639198400167405633777527209489
167,11156.7651294384008951997493632122780,11155.2,1.5651294384008951997493632122780
168,11290.7663318114582901350859346025113,11289.2,1.5663318114582901350859346025113
169,11425.5675270450230182926904039770097,11424.0,1.5675270450230182926904039770097
170,11561.1687152234085236745832850733008,11559.6,1.5687152234085236745832850733008
171,11697.5698964294433162553480842099436,11696.0,1.5698964294433162553480842099436
172,11834.7710707445056445728095515750248,11833.2,1.5710707445056445728095515750248
173,11972.7722382485571614178461831798402,11971.2,1.5722382485571614178461831798402
174,12111.5733990201756184668219165256546,12110.0,1.5733990201756184668219165256546
175,12251.1745531365866238415407510748434,12249.6,1.5745531365866238415407510748434
176,12391.5757006736944923030478982009610,12390.0,1.5757006736944923030478982009610
177,12532.7768417061122213397857980945314,12531.2,1.5768417061122213397857980945314
178,12674.7779763071906223044718328090224,12673.2,1.5779763071906223044718328090224
179,12817.5791045490466330446144448380063,12816.0,1.5791045490466330446144448380063
180,12961.1802265025908429730372155876644,12959.6,1.5802265025908429730372155876644
181,13105.5813422375542532269677849899469,13104.0,1.5813422375542532269677849899469
182,13250.7824518225142996110477147648831,13249.2,1.5824518225142996110477147648831
183,13396.7835553249201613735077889946376,13395.2,1.5835553249201613735077889946376
184,13543.5846528111173800570154951372499,13542.0,1.5846528111173800570154951372499
185,13691.1857443463718102322885608621112,13689.6,1.5857443463718102322885608621112
186,13839.5868299948929230830641116555044,13838.0,1.5868299948929230830641116555044
187,13988.7879098198564866428916102079015,13987.2,1.5879098198564866428916102079015
188,14138.7889838834266381200338431039317,14137.2,1.5889838834266381200338431039317
189,14289.5900522467773720415340622692617,14288.0,1.5900522467773720415340622692617
190,14441.1911149701134598674938557362523,14439.6,1.5911149701134598674938557362523
191,14593.5921721126908202980802228006792,14592.0,1.5921721126908202980802228006792
192,14746.7932237328363566554308908140023,14745.2,1.5932237328363566554308908140023
193,14900.7942698879672796442711480704616,14899.2,1.5942698879672796442711480704616
194,15055.5953106346099288319895949734534,15054.0,1.5953106346099288319895949734534
195,15211.1963460284181107804957779880463,15209.6,1.5963460284181107804957779880463
196,15367.5973761241909675217232576088915,15366.0,1.5973761241909675217232576088915
197,15524.7984009758903897520623169903790,15523.2,1.5984009758903897520623169903790
198,15682.7994206366579889076643055065389,15681.2,1.5994206366579889076643055065389
199,15841.6004351588316409544341277922799,15840.0,1.6004351588316409544341277922799
200,16001.2014445939616158328726576274464,15999.6,1.6014445939616158328726576274464
201,16161.6024489928263035341488575625308,16160.0,1.6024489928263035341488575625308
202,16322.8034484054475501835140343645663,16321.2,1.6034484054475501835140343645663
203,16484.8044428811056147857408814218228,16483.2,1.6044428811056147857408814218228
204,16647.6054324683537582474501210364841,16646.0,1.6054324683537582474501210364841
205,16811.2064172150324746416374687870964,16809.6,1.6064172150324746416374687870964
206,16975.6073971682833777330990456301187,16974.0,1.6073971682833777330990456301187
207,17140.8083723745627486353815257017340,17139.2,1.6083723745627486353815257017340
208,17306.8093428796547588206628049772421,17305.2,1.6093428796547588206628049772421
209,17473.6103087286843742253916607106505,17472.0,1.6103087286843742253916607106505
210,17641.2112699661299519472865745780798,17639.6,1.6112699661299519472865745780798
211,17809.6122266358355368926510610177605,17808.0,1.6122266358355368926510610177605
212,17978.8131787810228686011286573911840,17977.2,1.6131787810228686011286573911840
213,18148.8141264443031026257866407821402,18147.2,1.6141264443031026257866407821402
214,18319.6150696676882614442129741012686,18318.0,1.6150696676882614442129741012686
215,18491.2160084926024141068522366533516,18489.6,1.6160084926024141068522366533516
216,18663.6169429598925985770322107143259,18662.0,1.6169429598925985770322107143259
217,18836.8178731098394907217175391954260,18835.2,1.6178731098394907217175391954260
218,19010.8187989821678289254344770841936,19009.2,1.6187989821678289254344770841936
219,19185.6197206160565976002967278447274,19184.0,1.6197206160565976002967278447274
220,19361.2206380501489821002540787698490,19359.6,1.6206380501489821002540787698490
221,19537.6215513225620929418474533983588,19536.0,1.6215513225620929418474533983588
222,19714.8224604708964765288297281975753,19713.2,1.6224604708964765288297281975753
223,19892.8233655322454059414769823751154,19891.2,1.6233655322454059414769823751154
224,20071.6242665432039668498820445582033,20070.0,1.6242665432039668498820445582033
225,20251.2251635398779411077663782972264,20249.6,1.6251635398779411077663782972264
226,20431.6260565578924915647443762567138,20430.0,1.6260565578924915647443762567138
227,20612.8269456324006567398799705738517,20611.2,1.6269456324006567398799705738517
228,20794.8278307980916571667281952322566,20793.2,1.6278307980916571667281952322566
229,20977.6287120891990205619981508152268,20976.0,1.6287120891990205619981508152268
230,21161.2295895395085305040671066072685,21159.6,1.6295895395085305040671066072685
231,21345.6304631823660004106013589741195,21344.0,1.6304631823660004106013589741195
232,21530.8313330506848832241897519451291,21529.2,1.6313330506848832241897519451291
233,21716.8321991769537117914792180615888,21715.2,1.6321991769537117914792180615888
234,21903.6330615932433860818632906990177,21902.0,1.6330615932433860818632906990177
235,22091.2339203312143004168080756923565,22089.6,1.6339203312143004168080756923565
236,22279.6347754221233204085686361800789,22278.0,1.6347754221233204085686361800789
237,22468.8356268968306132284071975897679,22467.2,1.6356268968306132284071975897679
238,22658.8364747858063329353079329770190,22657.2,1.6364747858063329353079329770190
