Eigenstate,Energy,Kinetic Energy,Potential Energy
1,0.500000000022940676231889118430291957,0.0,0.500000000022940676231889118430291957
2,1.84623093780085932241558983119087364,1.2,0.64623093780085932241558983119087364
3,3.93633761014483810892872052319632008,3.2,0.73633761014483810892872052319632008
4,6.79966527873042081194469761062734256,6.0,0.79966527873042081194469761062734256
5,10.4480465768726977584864008150679072,9.6,0.8480465768726977584864008150679072
6,14.8870659993260117180473631152707622,14.0,0.8870659993260117180473631152707622
7,20.1197208275283812065459979803629085,19.2,0.9197208275283812065459979803629085
8,26.1477838478566758922175486046233463,25.2,0.9477838478566758922175486046233463
9,32.9723835593171340228747819520983928,32.0,0.9723835593171340228747819520983928
10,40.5942802160583036821391611405732070,39.6,0.9942802160583036821391611405732070
11,49.0140093882212088211870743300204209,48.0,1.0140093882212088211870743300204209
12,58.2319621711104691273936422729573419,57.2,1.0319621711104691273936422729573419
13,68.2484326947918854188008363690436827,67.2,1.0484326947918854188008363690436827
14,79.0636476569485974867384738703387104,78.0,1.0636476569485974867384738703387104
15,90.6777854386952667568899240883525828,89.6,1.0777854386952667568899240883525828
16,103.090988909448520024384064711733088,102.0,1.090988909448520024384064711733088
17,116.303374260388453023280943799877194,115.2,1.103374260388453023280943799877194
18,130.315037255464829463224977853609286,129.2,1.115037255464829463224977853609286
19,145.126057754501058420738134581419485,144.0,1.126057754501058420738134581419485
20,160.736503050828130667559017774248792,159.6,1.136503050828130667559017774248792
21,177.146430377366315795944188309596280,176.0,1.146430377366315795944188309596280
22,194.355888817783902331828468622904462,193.2,1.155888817783902331828468622904462
23,212.364920784433722387528929905192914,211.2,1.164920784433722387528929905192914
24,231.173563175753573827600977193337251,230.0,1.173563175753573827600977193337251
25,250.781848293062146671838741956598591,249.6,1.181848293062146671838741956598591
26,271.189804574366610859494287320778425,270.0,1.189804574366610859494287320778425
27,292.397457187325192099205564501274625,291.2,1.197457187325192099205564501274625
28,314.404828512606211721068650587049159,313.2,1.204828512606211721068650587049159
29,337.211938541090038626511630681170399,336.0,1.211938541090038626511630681170399
30,360.818805202710913862832337046302771,359.6,1.218805202710913862832337046302771
31,385.225444640589669849538307824239390,384.0,1.225444640589669849538307824239390
32,410.431871441030466699160198382529686,409.2,1.231871441030466699160198382529686
33,436.438098827645020271274510658987559,435.2,1.238098827645020271274510658987559
34,463.244138826117250332469133521118642,462.0,1.244138826117250332469133521118642
35,490.850002404782082129412418931080323,489.6,1.250002404782082129412418931080323
36,519.255699595158655803744100302576010,518.0,1.255699595158655803744100302576010
37,548.461239595774113529080204281621506,547.2,1.261239595774113529080204281621506
38,578.466630861983715507358597297468312,577.2,1.266630861983715507358597297468312
39,609.271881183995187312296473409145682,608.0,1.271881183995187312296473409145682
40,640.876997754909380284237500538315799,639.6,1.276997754909380284237500538315799
41,673.281987230272576406987923667054767,672.0,1.281987230272576406987923667054767
42,706.486855780380776495770772338316364,705.2,1.286855780380776495770772338316364
43,740.491609136369824180540304682151633,739.2,1.291609136369824180540304682151633
44,775.296252630957124153419279395529126,774.0,1.296252630957124153419279395529126
45,810.900791234563143580045355974250030,809.6,1.300791234563143580045355974250030
46,847.305229587427749292037035070511055,846.0,1.305229587427749292037035070511055
47,884.509572028242956765473001575992015,883.2,1.309572028242956765473001575992015
48,922.513822619746080526043292239596465,921.2,1.313822619746080526043292239596465
49,961.317985171652613077644922288228667,960.0,1.317985171652613077644922288228667
50,1000.92206326125403673755043003609811,999.6,1.32206326125403673755043003609811
51,1041.32606025196030579881296885647469,1040.0,1.32606025196030579881296885647469
52,1082.52997931002839122627864710911229,1081.2,1.32997931002839122627864710911229
53,1124.53382341968582997403628708207658,1123.2,1.33382341968582997403628708207658
54,1167.33759539683065988068328159477852,1166.0,1.33759539683065988068328159477852
55,1210.94129790146564560627833018283696,1209.6,1.34129790146564560627833018283696
56,1255.34493344900462650473005312161469,1254.0,1.34493344900462650473005312161469
57,1300.54850442057161836025433702551336,1299.2,1.34850442057161836025433702551336
58,1346.55201307239850373024482341572013,1345.2,1.35201307239850373024482341572013
59,1393.35546154441439168962789857916729,1392.0,1.35546154441439168962789857916729
60,1440.95885186810870326407314023872409,1439.6,1.35885186810870326407314023872409
61,1489.36218597374047461192716193406234,1488.0,1.36218597374047461192716193406234
62,1538.56546569695806900962670948916680,1537.2,1.36546569695806900962670948916680
63,1588.56869278488624680632746603943272,1587.2,1.36869278488624680632746603943272
64,1639.37186890173123003356397127548765,1638.0,1.37186890173123003356397127548765
65,1690.97499563394886351578412050832428,1689.6,1.37499563394886351578412050832428
66,1743.37807449501612698854838048256238,1742.0,1.37807449501612698854838048256238
67,1796.58110692984199043985872283598698,1795.2,1.38110692984199043985872283598698
68,1850.58409431884984872927429157830516,1849.2,1.38409431884984872927429157830516
69,1905.38703798176045886874452354974164,1904.0,1.38703798176045886874452354974164
70,1960.98993918110137508082685626960888,1959.6,1.38993918110137508082685626960888
71,2017.39279912546627804622536535864815,2016.0,1.39279912546627804622536535864815
72,2074.59561897254529651020720482307389,2073.2,1.39561897254529651020720482307389
73,2132.59839983194536641105045123129332,2131.2,1.39839983194536641105045123129332
74,2191.40114276781785384512446058862763,2190.0,1.40114276781785384512446058862763
75,2251.00384880130903708210099228482418,2249.6,1.40384880130903708210099228482418
76,2311.40651891284759328703930348225807,2310.0,1.40651891284759328703930348225807
77,2372.60915404428193320767041978089292,2371.2,1.40915404428193320767041978089292
78,2434.61175510087906128702572950882568,2433.2,1.41175510087906128702572950882568
79,2497.41432295319559184156289285384396,2496.0,1.41432295319559184156289285384396
80,2561.01685843883061381929768547729324,2559.6,1.41685843883061381929768547729324
81,2625.41936236406924731097386463139198,2624.0,1.41936236406924731097386463139198
82,2690.62183550542497353674967387479135,2689.2,1.42183550542497353674967387479135
83,2756.62427861108813129708998373888171,2755.2,1.42427861108813129708998373888171
84,2823.42669240228734858483698409422537,2822.0,1.42669240228734858483698409422537
85,2891.02907757457011877925866091916803,2889.6,1.42907757457011877925866091916803
86,2959.43143479900821497748501794632467,2958.0,1.43143479900821497748501794632467
87,3028.63376472333317854794214210699801,3027.2,1.43376472333317854794214210699801
88,3098.63606797300669461265851943337350,3097.2,1.43606797300669461265851943337350
89,3169.43834515223028366315652878854977,3168.0,1.43834515223028366315652878854977
90,3241.04059684489839529791276777460522,3239.6,1.44059684489839529791276777460522
91,3313.44282361549866861732018719352449,3312.0,1.44282361549866861732018719352449
92,3386.64502600996283551454586027306597,3385.2,1.44502600996283551454586027306597
93,3460.64720455647148084562262517027503,3459.2,1.44720455647148084562262517027503
94,3535.44935976621563053337469738386608,3534.0,1.44935976621563053337469738386608
95,3611.05149213411791750574837860403972,3609.6,1.45149213411791750574837860403972
96,3687.45360213951587354700251693576442,3686.0,1.45360213951587354700251693576442
97,3764.65569024680971079810382453388250,3763.2,1.45569024680971079810382453388250
98,3842.65775690607678376837738659078824,3841.2,1.45775690607678376837738659078824
99,3921.45980255365476924827363536241563,3920.0,1.45980255365476924827363536241563
100,4001.06182761269545517269693521005626,3999.6,1.46182761269545517269693521005626
101,4081.46383249369090018018648356001010,4080.0,1.46383249369090018018648356001010
102,4162.66581759497360003851914076907633,4161.2,1.46581759497360003851914076907633
103,4244.66778330319218919369090266032542,4243.2,1.46778330319218919369090266032542
104,4327.46972999376409843452336955149220,4326.0,1.46972999376409843452336955149220
105,4411.07165803130649659138458951304711,4409.6,1.47165803130649659138458951304711
106,4495.47356777004675342327000668948636,4494.0,1.47356777004675342327000668948636
107,4580.67545955421358276553379935329622,4579.2,1.47545955421358276553379935329622
108,4666.67733371840994577100651054607416,4665.2,1.47733371840994577100651054607416
109,4753.47919058796872548370071798481654,4752.0,1.47919058796872548370071798481654
110,4841.08103047929212156418142341951808,4839.6,1.48103047929212156418142341951808
111,4929.48285370017564812447932372363521,4928.0,1.48285370017564812447932372363521
112,5018.68466055011756819679164609713962,5017.2,1.48466055011756819679164609713962
113,5108.68645132061454282442115715243039,5107.2,1.48645132061454282442115715243039
114,5199.48822629544422400564762319809751,5198.0,1.48822629544422400564762319809751
115,5291.08998575093548027272341713640509,5289.6,1.48998575093548027272341713640509
116,5383.49172995622689535653674370358649,5382.0,1.49172995622689535653674370358649
117,5476.69345917351414867447920243708621,5475.2,1.49345917351414867447920243708621
118,5570.69517365828684534794884307434317,5569.2,1.49517365828684534794884307434317
119,5665.49687365955532974220353023026879,5664.0,1.49687365955532974220353023026879
120,5761.09855942006799067904451792007854,5759.6,1.49855942006799067904451792007854
121,5857.50023117651952820556585513015561,5856.0,1.50023117651952820556585513015561
122,5954.70188915975063288907247586152626,5953.2,1.50188915975063288907247586152626
123,6052.70353359493949641533783408479091,6051.2,1.50353359493949641533783408479091
124,6151.50516470178555458756327014065464,6150.0,1.50516470178555458756327014065464
125,6251.10678269468583425713821846546038,6249.6,1.50678269468583425713821846546038
126,6351.50838778290426052000276037617564,6350.0,1.50838778290426052000276037617564
127,6452.70998017073425993452768125353180,6451.2,1.50998017073425993452768125353180
128,6554.71156005765497292963726679438555,6553.2,1.51156005765497292963726679438555
129,6657.51312763848137649866197809392366,6656.0,1.51312763848137649866197809392366
130,6761.11468310350859989254088397194427,6759.6,1.51468310350859989254088397194427
131,6865.51622663865070062187566041646311,6864.0,1.51622663865070062187566041646311
132,6970.71775842557415310013715286654784,6969.2,1.51775842557415310013715286654784
133,7076.71927864182629047874154261634176,7075.2,1.51927864182629047874154261634176
134,7183.52078746095892894875433201074358,7182.0,1.52078746095892894875433201074358
135,7291.12228505264738567563784588558209,7289.6,1.52228505264738567563784588558209
136,7399.52377158280509784592758555361422,7398.0,1.52377158280509784592758555361422
137,7508.72524721369403699677921297121415,7507.2,1.52524721369403699677921297121415
138,7618.72671210403109918733731525976530,7617.2,1.52671210403109918733731525976530
139,7729.52816640909064946497150919724751,7728.0,1.52816640909064946497150919724751
140,7841.12961028080338363345715779127004,7839.6,1.52961028080338363345715779127004
141,7953.53104386785166577268799654128671,7952.0,1.53104386785166577268799654128671
142,8066.73246731576149188624099236289635,8065.2,1.53246731576149188624099236289635
143,8180.73388076699122140294430062677390,8179.2,1.53388076699122140294430062677390
144,8295.53528436101721107896238953344317,8294.0,1.53528436101721107896238953344317
145,8411.13667823441648165915312916581446,8409.6,1.53667823441648165915312916581446
146,8527.53806252094653978770083520297118,8526.0,1.53806252094653978770083520297118
147,8644.73943735162246945506327354962360,8643.2,1.53943735162246945506327354962360
148,8762.74080285479140831023713417354559,8761.2,1.54080285479140831023713417354559
149,8881.54215915620451063927242637552808,8880.0,1.54215915620451063927242637552808
150,9001.14350637908650065088888292438260,8999.6,1.54350637908650065088888292438260
151,9121.54484464420291198342372688507223,9120.0,1.54484464420291198342372688507223
152,9242.74617406992510373225562096668923,9241.2,1.54617406992510373225562096668923
153,9364.74749477229314194737275438872299,9363.2,1.54749477229314194737275438872299
154,9487.54880686507663050030117988498725,9486.0,1.54880686507663050030117988498725
155,9611.15011045983356955635971157022163,9609.6,1.55011045983356955635971157022163
156,9735.55140566596731951857759689248676,9734.0,1.55140566596731951857759689248676
157,9860.75269259078174148985112174284805,9859.2,1.55269259078174148985112174284805
158,9986.75397133953458607141292004583599,9985.2,1.55397133953458607141292004583599
159,10113.5552420154891941704196555474446,10112.0,1.5552420154891941704196555474446
160,10241.1565047199645761541681526084778,10239.6,1.5565047199645761541681526084778
161,10369.5577595523839278470311413857215,10368.0,1.5577595523839278470311413857215
162,10498.7590066103216428311843614984117,10497.2,1.5590066103216428311843614984117
163,10628.7602459895488759043945836593061,10627.2,1.5602459895488759043945836593061
164,10759.5614777840777123314338319766012,10758.0,1.5614777840777123314338319766012
165,10891.1627020862039914893077288370481,10889.6,1.5627020862039914893077288370481
166,11023.5639189865488354218569491611891,11022.0,1.5639189865488354218569491611891
167,11156.7651285740989295360215172356333,11155.2,1.5651285740989295360215172356333
168,11290.7663309362455981286517195773923,11289.2,1.5663309362455981286517195773923
169,11425.5675261588227198059264734592865,11424.0,1.5675261588227198059264734592865
170,11561.1687143261435225384651129427271,11559.6,1.5687143261435225384651129427271
171,11697.5698955210362985465635749776007,11696.0,1.5698955210362985465635749776007
172,11834.7710698248790768821832072417117,11833.2,1.5710698248790768821832072417117
173,11972.7722373176332891099930790416500,11971.2,1.5722373176332891099930790416500
174,12111.5733980778764639309500373084062,12110.0,1.5733980778764639309500373084062
175,12251.1745521828339847333196968230475,12249.6,1.5745521828339847333196968230475
176,12391.5756997084099397774613309537286,12390.0,1.5756997084099397774613309537286
177,12532.7768407292170982748842551452051,12531.2,1.5768407292170982748842551452051
178,12674.7779753186060415159420887295335,12673.2,1.5779753186060415159420887295335
179,12817.5791035486934754910807264927101,12816.0,1.5791035486934754910807264927101
180,12961.1802254903897559520091012608172,12959.6,1.5802254903897559520091012608172
181,13105.5813412134256485613488278996587,13104.0,1.5813412134256485613488278996587
182,13250.7824507863783518261182156627881,13249.2,1.5824507863783518261182156627881
183,13396.7835542766968058642945051350202,13395.2,1.5835542766968058642945051350202
184,13543.5846517507263112459602652588958,13542.0,1.5846517507263112459602652588958
185,13691.1857432737324797171271939168423,13689.6,1.5857432737324797171271939168423
186,13839.5868289099245377748263150776284,13838.0,1.5868289099245377748263150776284
187,13988.7879087224780068939316885848747,13987.2,1.5879087224780068939316885848747
188,14138.7889827735567758420015891479692,14137.2,1.5889827735567758420015891479692
189,14289.5900511243345888131942267262704,14288.0,1.5900511243345888131942267262704
190,14441.1911138350159650323019964385917,14439.6,1.5911138350159650323019964385917
191,14593.5921709648565690514219467687153,14592.0,1.5921709648565690514219467687153
192,14746.7932225721830481214307846666501,14745.2,1.5932225721830481214307846666501
193,14900.7942687144123549420768504708663,14899.2,1.5942687144123549420768504708663
194,15055.5953094480705691314358311812372,15054.0,1.5953094480705691314358311812372
195,15211.1963448288112353470522964817913,15209.6,1.5963448288112353470522964817913
196,15367.5973749114332317506298843072637,15366.0,1.5973749114332317506298843072637
197,15524.7983997498981831915535062525270,15523.2,1.5983997498981831915535062525270
198,15682.7994193973474332711848402647589,15681.2,1.5994193973474332711848402647589
199,15841.6004339061185881217466711678727,15840.0,1.6004339061185881217466711678727
200,16001.2014433277616458399572372965371,15999.6,1.6014433277616458399572372965371
201,16161.6024477130547225517934097132690,16160.0,1.6024477130547225517934097132690
202,16322.8034471120193884844942574842133,16321.2,1.6034471120193884844942574842133
203,16484.8044415739356247004869897895994,16483.2,1.6044415739356247004869897895994
204,16647.6054311473564121080970184000019,16646.0,1.6054311473564121080970184000019
205,16811.2064158801219627143541972689742,16809.6,1.6064158801219627143541972689742
206,16975.6073958193736061385923201290642,16974.0,1.6073958193736061385923201290642
207,17140.8083710115673372574674190120595,17139.2,1.6083710115673372574674190120595
208,17306.8093415024870392027996703683589,17305.2,1.6093415024870392027996703683589
209,17473.6103073372573874550665380319506,17472.0,1.6103073372573874550665380319506
210,17641.2112685603564465281463755785265,17639.6,1.6112685603564465281463755785265
211,17809.6122252156279666042689097397448,17808.0,1.6122252156279666042689097397448
212,17978.8131773462933903462949026940538,17977.2,1.6131773462933903462949026940538
213,18148.8141249949635742652130252793098,18147.2,1.6141249949635742652130252793098
214,18319.6150682036502396185374957349831,18318.0,1.6150682036502396185374957349831
215,18491.2160070137771520458314189197995,18489.6,1.6160070137771520458314189197995
216,18663.6169414661910438958063331663196,18662.0,1.6169414661910438958063331663196
217,18836.8178716011722832040335076770719,18835.2,1.6178716011722832040335076770719
218,19010.8187974584452982937100292352268,19009.2,1.6187974584452982937100292352268
219,19185.6197190771887612724086482663581,19184.0,1.6197190771887612724086482663581
220,19361.2206364960455429329320247625713,19359.6,1.6206364960455429329320247625713
221,19537.6215497531324369605540978594866,19536.0,1.6215497531324369605540978594866
222,19714.8224588860496706440067502563847,19713.2,1.6224588860496706440067502563847
223,19892.8233639318901956510354723353789,19891.2,1.6233639318901956510354723353789
224,20071.6242649272487739278148428948751,20070.0,1.6242649272487739278148428948751
225,20251.2251619082308612787587201497289,20249.6,1.6251619082308612787587201497289
226,20431.6260549104612921646582228158095,20430.0,1.6260549104612921646582228158095
227,20612.8269439690927743619862626794584,20611.2,1.6269439690927743619862626794584
228,20794.8278291188141952935601314876695,20793.2,1.6278291188141952935601314876695
229,20977.6287103938587471826975864417464,20976.0,1.6287103938587471826975864417464
230,21161.2295878280118757170949068748283,21159.6,1.6295878280118757170949068748283
231,21345.6304614546190540116814673038580,21344.0,1.6304614546190540116814673038580
232,21530.8313313065933922793555898850127,21529.2,1.6313313065933922793555898850127
233,21716.8321974164230781950898671367075,21715.2,1.6321974164230781950898671367075
234,21903.6330598161786640994556486371768,21902.0,1.6330598161786640994556486371768
235,22091.2339185375201942126500760836401,22089.6,1.6339185375201942126500760836401
236,22279.6347736117041815577774231704917,22278.0,1.6347736117041815577774231704917
237,22468.8356250695904382134947966263263,22467.2,1.6356250695904382134947966263263
238,22658.8364729416487606270159422852894,22657.2,1.6364729416487606270159422852894
