Eigenstate,Energy,Kinetic Energy,Potential Energy
1,0.500000000052912579271827982844590921,0.0,0.500000000052912579271827982844590921
2,1.84623093799650055466965027327359899,1.2,0.64623093799650055466965027327359899
3,3.93633761071951966782757940064528941,3.2,0.73633761071951966782757940064528941
4,6.79966527992742037672648481251613574,6.0,0.79966527992742037672648481251613574
5,10.4480465789461536737868193773972900,9.6,0.8480465789461536737868193773972900
6,14.8870660025345149426454378351356289,14.0,0.8870660025345149426454378351356289
7,20.1197208321326146315338542061335414,19.2,0.9197208321326146315338542061335414
8,26.1477838541184301955086184724070266,25.2,0.9477838541184301955086184724070266
9,32.9723835674988503680632819804703043,32.0,0.9723835674988503680632819804703043
10,40.5942802264228419197143933811629187,39.6,0.9942802264228419197143933811629187
11,49.0140094010317218464227906142389862,48.0,1.0140094010317218464227906142389862
12,58.2319621866303313345270897912735375,57.2,1.0319621866303313345270897912735375
13,68.2484327132846506058955264072489172,67.2,1.0484327132846506058955264072489172
14,79.0636476786779737099294189360961094,78.0,1.0636476786779737099294189360961094
15,90.6777854639251014103496850908258068,89.6,1.0777854639251014103496850908258068
16,103.090988938442791344078010525452237,102.0,1.090988938442791344078010525452237
17,116.303374293411265769828302555367627,115.2,1.103374293411265769828302555367627
18,130.315037292780413407902324328204830,129.2,1.115037292780413407902324328204830
19,145.126057796373768762989151895644481,144.0,1.126057796373768762989151895644481
20,160.736503097522449815612551858928583,159.6,1.136503097522449815612551858928583
21,177.146430429146856130229936219420787,176.0,1.146430429146856130229936219420787
22,194.355888874915409690822600544160302,193.2,1.155888874915409690822600544160302
23,212.364920847181080094074200928620057,211.2,1.164920847181080094074200928620057
24,231.173563244381807126168481927879992,230.0,1.173563244381807126168481927879992
25,250.781848367836427482963512556315707,249.6,1.181848367836427482963512556315707
26,271.189804655552262782471287910721673,270.0,1.189804655552262782471287910721673
27,292.397457275187695611697867562847417,291.2,1.197457275187695611697867562847417
28,314.404828607411209536886163141348005,313.2,1.204828607411209536886163141348005
29,337.211938643103341181995584852276020,336.0,1.211938643103341181995584852276020
30,360.818805312198504909048763355613209,359.6,1.218805312198504909048763355613209
31,385.225444757817712132535867387326954,384.0,1.225444757817712132535867387326954
32,410.431871566265307714361497533113661,409.2,1.231871566265307714361497533113661
33,436.438098961153198080979124079338558,435.2,1.238098961153198080979124079338558
34,463.244138968165499437687177946465355,462.0,1.244138968165499437687177946465355
35,490.850002555637339388989058429684183,489.6,1.250002555637339388989058429684183
36,519.255699755088066395100445898442674,518.0,1.255699755088066395100445898442674
37,548.461239765045036945974739288568217,547.2,1.261239765045036945974739288568217
38,578.466631040863731590931917569717457,577.2,1.266631040863731590931917569717457
39,609.271881372752102312350542899137408,608.0,1.271881372752102312350542899137408
40,640.876997953811232948256275024917275,639.6,1.276997953811232948256275024917275
41,673.281987439587644094857422393426508,672.0,1.281987439587644094857422393426508
42,706.486856000377581318525415413788169,705.2,1.286856000377581318525415413788169
43,740.491609367317139161765336449904642,739.2,1.291609367317139161765336449904642
44,775.296252873123979412189401330942671,774.0,1.296252873123979412189401330942671
45,810.900791488218832534487573890910577,809.6,1.300791488218832534487573890910577
46,847.305229852841834882779267835676505,846.0,1.305229852841834882779267835676505
47,884.509572305685277698385440200677530,883.2,1.309572305685277698385440200677530
48,922.513822909486757533802109808888614,921.2,1.313822909486757533802109808888614
49,961.317985473962055199751599691964251,960.0,1.317985473962055199751599691964251
50,1000.92206357640294761852807320929248,999.6,1.32206357640294761852807320929248
51,1041.32606058021969000437620960355985,1040.0,1.32606058021969000437620960355985
52,1082.52997965166956057733810784370341,1081.2,1.32997965166956057733810784370341
53,1124.53382377498040989845395349391441,1123.2,1.33382377498040989845395349391441
54,1167.33759576605059578274298485587176,1166.0,1.33759576605059578274298485587176
55,1210.94129828488320925387697002557553,1209.6,1.34129828488320925387697002557553
56,1255.34493384689242243433123066583685,1254.0,1.34493384689242243433123066583685
57,1300.54850483320259029967750654844737,1299.2,1.34850483320259029967750654844737
58,1346.55201350004594103939074786422705,1345.2,1.35201350004594103939074786422705
59,1393.35546198735193581926531806269634,1392.0,1.35546198735193581926531806269634
60,1440.95885232661035423283304803583917,1439.6,1.35885232661035423283304803583917
61,1489.36218644808059750167001305693807,1488.0,1.36218644808059750167001305693807
62,1538.56546618741140047936480081786178,1537.2,1.36546618741140047936480081786178
63,1588.56869329172790162489972877343657,1587.2,1.36869329172790162489972877343657
64,1639.37186942523670763127388379457761,1638.0,1.37186942523670763127388379457761
65,1690.97499617439405455522366582189455,1689.6,1.37499617439405455522366582189455
66,1743.37807505267731995484184667802908,1742.0,1.37807505267731995484184667802908
67,1796.58110750499587825057008884776942,1795.2,1.38110750499587825057008884776942
68,1850.58409491177353536423097796395968,1849.2,1.38409491177353536423097796395968
69,1905.38703859273146602003860954638569,1904.0,1.38703859273146602003860954638569
70,1960.98993981039764882326226308090232,1959.6,1.38993981039764882326226308090232
71,2017.39279977336619552848672662267378,2016.0,1.39279977336619552848672662267378
72,2074.59561963932767266703234638482022,2073.2,1.39561963932767266703234638482022
73,2132.59840051788946069669462699226269,2131.2,1.39840051788946069669462699226269
74,2191.40114347320337698840991940733136,2190.0,1.40114347320337698840991940733136
75,2251.00384952641615786335083257165375,2249.6,1.40384952641615786335083257165375
76,2311.40651965795694533719935269046666,2310.0,1.40651965795694533719935269046666
77,2372.60915480967462182992766628671969,2371.2,1.40915480967462182992766628671969
78,2434.61175588683667030123619852162730,2433.2,1.41175588683667030123619852162730
79,2497.41432376000019045180610843036902,2496.0,1.41432376000019045180610843036902
80,2561.01685926676476350487877429035809,2559.6,1.41685926676476350487877429035809
81,2625.41936321341600874119837101501709,2624.0,1.41936321341600874119837101501709
82,2690.62183637646791350979978397992876,2689.2,1.42183637646791350979978397992876
83,2756.62427950411132970333446119059095,2755.2,1.42427950411132970333446119059095
84,2823.42669331757540539491062500216870,2822.0,1.42669331757540539491062500216870
85,2891.02907851240816105725048728080356,2889.6,1.42907851240816105725048728080356
86,2959.43143575968190391957764558774075,2958.0,1.43143575968190391957764558774075
87,3028.63376570712871654684815253362783,3027.2,1.43376570712871654684815253362783
88,3098.63606898021083234820272452093251,3097.2,1.43606898021083234820272452093251
89,3169.43834618313032721935619412961085,3168.0,1.43834618313032721935619412961085
90,3241.04059789978221330691090353908651,3239.6,1.44059789978221330691090353908651
91,3313.44282469465469943053016353881379,3312.0,1.44282469465469943053016353881379
92,3386.64502711368009440136850439589969,3385.2,1.44502711368009440136850439589969
93,3460.64720568503956722010004756602459,3459.2,1.44720568503956722010004756602459
94,3535.44936091992473520914801353727022,3534.0,1.44936091992473520914801353727022
95,3611.05149331325882997968953398245623,3609.6,1.45149331325882997968953398245623
96,3687.45360334437998931189325521320022,3686.0,1.45360334437998931189325521320022
97,3764.65569147768903868473798599997472,3763.2,1.45569147768903868473798599997472
98,3842.65775816326395331746542635810291,3841.2,1.45775816326395331746542635810291
99,3921.45980383744303811253148318192184,3920.0,1.45980383744303811253148318192184
100,4001.06182892337871654950406155955217,3999.6,1.46182892337871654950406155955217
101,4081.46383383156369027520112153746885,4080.0,1.46383383156369027520112153746885
102,4162.66581896033110556064159825931012,4161.2,1.46581896033110556064159825931012
103,4244.66778469633025488176876858881171,4243.2,1.46778469633025488176876858881171
104,4327.46973141497923461619567120081291,4326.0,1.46973141497923461619567120081291
105,4411.07165948089588677446475809686480,4409.6,1.47165948089588677446475809686480
106,4495.47356924830826192007068700773458,4494.0,1.47356924830826192007068700773458
107,4580.67546106144576235053955239710944,4579.2,1.47546106144576235053955239710944
108,4666.67733525491204537230363656514527,4665.2,1.47733525491204537230363656514527
109,4753.47919215404069790857644268782707,4752.0,1.47919215404069790857644268782707
110,4841.08103207523463125930799447249262,4839.6,1.48103207523463125930799447249262
111,4929.48285532629007897110151467323776,4928.0,1.48285532629007897110151467323776
112,5018.68466220670603134133961361667966,5017.2,1.48466220670603134133961361667966
113,5108.68645300797988454497371514455630,5107.2,1.48645300797988454497371514455630
114,5199.48822801389003361467426516278105,5198.0,1.48822801389003361467426516278105
115,5291.08998750076609805653675622309732,5289.6,1.48998750076609805653675622309732
116,5383.49173173774742055189035369343944,5382.0,1.49173173774742055189035369343944
117,5476.69346098703044748274932695788330,5475.2,1.49346098703044748274932695788330
118,5570.69517550410555898734161539231847,5569.2,1.49517550410555898734161539231847
119,5665.49687553798388253843301871977858,5664.0,1.49687553798388253843301871977858
120,5761.09856133141459819493036572523107,5759.6,1.49856133141459819493036572523107
121,5857.50023312109320541000271962935756,5856.0,1.50023312109320541000271962935756
122,5954.70189113786120236582705289815099,5953.2,1.50189113786120236582705289815099
123,6052.70353560689759661213301293899444,6051.2,1.50353560689759661213301293899444
124,6151.50516674790264810591236106359530,6150.0,1.50516674790264810591236106359530
125,6251.10678477527421618339611884105205,6249.6,1.50678477527421618339611884105205
126,6351.50838989827706679810455323137670,6350.0,1.50838989827706679810455323137670
127,6452.70998232120547578088891575252571,6451.2,1.50998232120547578088891575252571
128,6554.71156224353944129069413030284893,6553.2,1.51156224353944129069413030284893
129,6657.51312986009480655153327544483114,6656.0,1.51312986009480655153327544483114
130,6761.11468536116757558929775327928903,6759.6,1.51468536116757558929775327928903
131,6865.51622893267268927790886880373218,6864.0,1.51622893267268927790886880373218
132,6970.71776075627751402711601453962556,6969.2,1.51776075627751402711601453962556
133,7076.71928100953028366266219621693765,7075.2,1.51928100953028366266219621693765
134,7183.52078986598372377357956127754211,7182.0,1.52078986598372377357956127754211
135,7291.12228749531406969303476603315182,7289.6,1.52228749531406969303476603315182
136,7399.52377406343568559161343247435012,7398.0,1.52377406343568559161343247435012
137,7508.72524973261147885399015041480866,7507.2,1.52524973261147885399015041480866
138,7618.72671466155929029793914481997484,7617.2,1.52671466155929029793914481997484
139,7729.52816900555443868873576804088009,7728.0,1.52816900555443868873576804088009
140,7841.12961291652858255603049649588162,7839.6,1.52961291652858255603049649588162
141,7953.53104654316505776278699982676677,7952.0,1.53104654316505776278699982676677
142,8066.73247003099084120260939463199744,8065.2,1.53247003099084120260939463199744
143,8180.73388352246528235161402383178861,8179.2,1.53388352246528235161402383178861
144,8295.53528715706573722136457285705020,8294.0,1.53528715706573722136457285705020
145,8411.13668107137023507162978596735009,8409.6,1.53668107137023507162978596735009
146,8527.53806539913730037297290575234367,8526.0,1.53806539913730037297290575234367
147,8644.73944027138304430621531307724223,8643.2,1.53944027138304430621531307724223
148,8762.74080581645564112778407024899777,8761.2,1.54080581645564112778407024899777
149,8881.54216216010729120187855118464017,8880.0,1.54216216010729120187855118464017
150,9001.14350942556377434031421631067561,8999.6,1.54350942556377434031421631067561
151,9121.54484773359168936427833125283879,9120.0,1.54484773359168936427833125283879
152,9242.74617720256347018714709399912743,9241.2,1.54617720256347018714709399912743
153,9364.74749794852026736803770114292606,9363.2,1.54749794852026736803770114292606
154,9487.54881008523277903531644432232397,9486.0,1.54881008523277903531644432232397
155,9611.15011372426010941603468368830261,9609.6,1.55011372426010941603468368830261
156,9735.55140897500673283763437877065710,9734.0,1.55140897500673283763437877065710
157,9860.75269594477763424850446090382805,9859.2,1.55269594477763424850446090382805
158,9986.75397473883169807546766446570603,9985.2,1.55397473883169807546766446570603
159,10113.5552454604334090910089686691012,10112.0,1.5552454604334090910089686691012
160,10241.1565082109029316277614087269054,10239.6,1.5565082109029316277614087269054
161,10369.5577630896646256363461366268060,10368.0,1.5577630896646256363461366268060
162,10498.7590101942940590476445139279392,10497.2,1.5590101942940590476445139279392
163,10628.7602496205635712927771241571493,10627.2,1.5602496205635712927771241571493
164,10759.5614814624864426173616773283194,10758.0,1.5614814624864426173616773283194
165,10891.1627058123597177902433135932215,10889.6,1.5627058123597177902433135932215
166,11023.5639227608057347222624454296353,11022.0,1.5639227608057347222624454296353
167,11156.7651323968124052273560986986663,11155.2,1.5651323968124052273560986986663
168,11290.7663348077722906148829638509426,11289.2,1.5663348077722906148829638509426
169,11425.5675300795205171752390167552541,11424.0,1.5675300795205171752390167552541
170,11561.1687182963715713018564733352591,11559.6,1.5687182963715713018564733352591
171,11697.5698995411550144440232089247449,11696.0,1.5698995411550144440232089247449
172,11834.7710738952501557571577396263471,11833.2,1.5710738952501557571577396263471
173,11972.7722414386197178528470603375624,11971.2,1.5722414386197178528470603375624
174,12111.5734022498425314921386159217855,12110.0,1.5734022498425314921386159217855
175,12251.1745564061452932069961977109060,12249.6,1.5745564061452932069961977109060
176,12391.5757039834334155562497951805994,12390.0,1.5757039834334155562497951805994
177,12532.7768450563210032765539915737822,12531.2,1.5768450563210032765539915737822
178,12674.7779796981599844827283135608914,12673.2,1.5779796981599844827283135608914
179,12817.5791079810684233624026303281243,12816.0,1.5791079810684233624026303281243
180,12961.1802299759580453113439355564853,12959.6,1.5802299759580453113439355564853
181,13105.5813457525609971580280655473944,13104.0,1.5813457525609971580280655473944
182,13250.7824553794558701728191118277641,13249.2,1.5824553794558701728191118277641
183,13396.7835589240930089110081459352183,13395.2,1.5835589240930089110081459352183
184,13543.5846564528191301312247524573163,13542.0,1.5846564528191301312247524573163
185,13691.1857480309012735973224449775491,13689.6,1.5857480309012735973224449775491
186,13839.5868337225501057323345407843465,13838.0,1.5868337225501057323345407843465
187,13988.7879135909425999249760397411334,13987.2,1.5879135909425999249760397411334
188,14138.7889876982441089249830451456200,14137.2,1.5889876982441089249830451456200
189,14289.5900561056298530583552692404228,14288.0,1.5900561056298530583552692404228
190,14441.1911188733058399135536666562954,14439.6,1.5911188733058399135536666562954
191,14593.5921760605292347211793878839051,14592.0,1.5921760605292347211793878839051
192,14746.7932277256281978093107656193283,14745.2,1.5932277256281978093107656193283
193,14900.7942739260212074383193216611062,14899.2,1.5942739260212074383193216611062
194,15055.5953147182358813559203755157549,15054.0,1.5953147182358813559203755157549
195,15211.1963501579273150047889003111048,15209.6,1.5963501579273150047889003111048
196,15367.5973802998959500746126544452426,15366.0,1.5973802998959500746126544452426
197,15524.7984051981049877738747150785860,15523.2,1.5984051981049877738747150785860
198,15682.7994249056973609833158846329468,15681.2,1.5994249056973609833158846329468
199,15841.6004394750122781249020165513757,15840.0,1.6004394750122781249020165513757
200,16001.2014489576013526864663966309374,15999.6,1.6014489576013526864663966309374
201,16161.6024534042443293784156653695471,16160.0,1.6024534042443293784156653695471
202,16322.8034528649644202986207096172188,16321.2,1.6034528649644202986207096172188
203,16484.8044473890432617601837481837700,16483.2,1.6044473890432617601837481837700
204,16647.6054370250355033969536507130935,16646.0,1.6054370250355033969536507130935
205,16811.2064218207830395121111601676306,16809.6,1.6064218207830395121111601676306
206,16975.6074018234288956885315161256001,16974.0,1.6074018234288956885315161256001
207,17140.8083770794307765315601971018571,17139.2,1.6083770794307765315601971018571
208,17306.8093476345742887656167482262460,17305.2,1.6093476345742887656167482262460
209,17473.6103135339858454274650297803195,17472.0,1.6103135339858454274650297803195
210,17641.2112748221452626517599276767481,17639.6,1.6112748221452626517599276767481
211,17809.6122315428980564078371282069439,17808.0,1.6122315428980564078371282069439
212,17978.8131837394674494148797235187954,17977.2,1.6131837394674494148797235187954
213,18148.8141314544660926133607353182394,18147.2,1.6141314544660926133607353182394
214,18319.6150747299075161684557105730843,18318.0,1.6150747299075161684557105730843
215,18491.2160136072173092116625284004763,18489.6,1.6160136072173092116625284004763
216,18663.6169481272440422750897479788616,18662.0,1.6169481272440422750897479788616
217,18836.8178783302699363774608161405385,18835.2,1.6178783302699363774608161405385
218,19010.8188042560212877342892387044074,19009.2,1.6188042560212877342892387044074
219,19185.6197259436786513651655078683800,19184.0,1.6197259436786513651655078683800
220,19361.2206434318867961062881146891118,19359.6,1.6206434318867961062881146891118
221,19537.6215567587644289305344543043451,19536.0,1.6215567587644289305344543043451
222,19714.8224659619137057724412344096191,19713.2,1.6224659619137057724412344096191
223,19892.8233710784295224189315650751156,19891.2,1.6233710784295224189315650751156
224,20071.6242721449086005250915389440963,20070.0,1.6242721449086005250915389440963
225,20251.2251691974583713115447905651360,20249.6,1.6251691974583713115447905651360
226,20431.6260622717056604813705195890684,20430.0,1.6260622717056604813705195890684
227,20612.8269514028051829994175746700424,20611.2,1.6269514028051829994175746700424
228,20794.8278366254478495442190904877867,20793.2,1.6278366254478495442190904877867
229,20977.6287179738688917846569508137019,20976.0,1.6287179738688917846569508137019
230,21161.2295954818558111676181508833931,21159.6,1.6295954818558111676181508833931
231,21345.6304691827561530059119643660411,21344.0,1.6304691827561530059119643660411
232,21530.8313391094851162753661011221910,21529.2,1.6313391094851162753661011221910
233,21716.8322052945329941066050673074202,21715.2,1.6322052945329941066050673074202
234,21903.6330677699724611175746180744588,21902.0,1.6330677699724611175746180744588
235,22091.2339265674657007579103223443448,22089.6,1.6339265674657007579103223443448
236,22279.6347817182713823639170571187469,22278.0,1.6347817182713823639170571187469
237,22468.8356332532514915442847149485628,22467.2,1.6356332532514915442847149485628
238,22658.8364812028780156275486424090437,22657.2,1.6364812028780156275486424090437
