Eigenstate,Energy,Kinetic Energy,Potential Energy
1,0.500000000042673651418963998166614347,0.0,0.500000000042673651418963998166614347
2,1.84623093792966600352400119474673150,1.2,0.64623093792966600352400119474673150
3,3.93633761052319780957600006671981347,3.2,0.73633761052319780957600006671981347
4,6.79966527951850220220067290090238255,6.0,0.79966527951850220220067290090238255
5,10.4480465782378189468017477713458007,9.6,0.8480465782378189468017477713458007
6,14.8870660014384209469644416738163392,14.0,0.8870660014384209469644416738163392
7,20.1197208305597022650929646857423481,19.2,0.9197208305597022650929646857423481
8,26.1477838519792598153226931304065779,25.2,0.9477838519792598153226931304065779
9,32.9723835647037576555092204941855109,32.0,0.9723835647037576555092204941855109
10,40.5942802228820167099100591592012347,39.6,0.9942802228820167099100591592012347
11,49.0140093966552506922765592045489652,48.0,1.0140093966552506922765592045489652
12,58.2319621813282215901873779933718583,57.2,1.0319621813282215901873779933718583
13,68.2484327069668444489537091421747285,67.2,1.0484327069668444489537091421747285
14,79.0636476712543563730176006973296314,78.0,1.0636476712543563730176006973296314
15,90.6777854553055059190287286034087280,89.6,1.0777854553055059190287286034087280
16,103.090988928537001059794886217530360,102.0,1.090988928537001059794886217530360
17,116.303374282129015504737048892985965,115.2,1.103374282129015504737048892985965
18,130.315037280031389581571830226720181,129.2,1.115037280031389581571830226720181
19,145.126057782067608898733166544131922,144.0,1.126057782067608898733166544131922
20,160.736503081568741570585247985628643,159.6,1.136503081568741570585247985628643
21,177.146430411455135989175959799641733,176.0,1.146430411455135989175959799641733
22,194.355888855395161412395548462956095,193.2,1.155888855395161412395548462956095
23,212.364920825741732971850160489642513,211.2,1.164920825741732971850160489642513
24,231.173563220932734108572530814689607,230.0,1.173563220932734108572530814689607
25,250.781848342286943184108883709162661,249.6,1.181848342286943184108883709162661
26,271.189804627811621407420025441662973,270.0,1.189804627811621407420025441662973
27,292.397457245165088813651025955299975,291.2,1.197457245165088813651025955299975
28,314.404828575015764219504806827654142,313.2,1.204828575015764219504806827654142
29,337.211938608244117256918711486836720,336.0,1.211938608244117256918711486836720
30,360.818805274784493016362057072185660,359.6,1.218805274784493016362057072185660
31,385.225444717757831330219134786120453,384.0,1.225444717757831330219134786120453
32,410.431871523468403141439646448175537,409.2,1.231871523468403141439646448175537
33,436.438098915528038598107606248873207,435.2,1.238098915528038598107606248873207
34,463.244138919620775248137234653419850,462.0,1.244138919620775248137234653419850
35,490.850002504081659642403027377462978,489.6,1.250002504081659642403027377462978
36,519.255699700429956775920901250575327,518.0,1.255699700429956775920901250575327
37,548.461239707192937248082600236476518,547.2,1.261239707192937248082600236476518
38,578.466630979725993279735182148584255,577.2,1.266630979725993279735182148584255
39,609.271881308236986075329965310021030,608.0,1.271881308236986075329965310021030
40,640.876997885826906234784345365486498,639.6,1.276997885826906234784345365486498
41,673.281987368042178645952687908034860,672.0,1.281987368042178645952687908034860
42,706.486855925178950687078062331648565,705.2,1.286855925178950687078062331648565
43,740.491609288373216223666272421955781,739.2,1.291609288373216223666272421955781
44,775.296252790342533868709396769968512,774.0,1.296252790342533868709396769968512
45,810.900791401507528406181843847716460,809.6,1.300791401507528406181843847716460
46,847.305229762108227995133398933727056,846.0,1.305229762108227995133398933727056
47,884.509572210836813159368714679876837,883.2,1.309572210836813159368714679876837
48,922.513822810430767203452198732618351,921.2,1.313822810430767203452198732618351
49,961.317985370605755151878999230261330,960.0,1.317985370605755151878999230261330
50,1000.92206346865343559459836347416292,999.6,1.32206346865343559459836347416292
51,1041.32606046798394285960232173947199,1040.0,1.32606046798394285960232173947199
52,1082.52997953485443171899258652345788,1081.2,1.32997953485443171899258652345788
53,1124.53382365349262671639208572264820,1123.2,1.33382365349262671639208572264820
54,1167.33759563979675707211110578411891,1166.0,1.33759563979675707211110578411891
55,1210.94129815376978262996587683338352,1209.6,1.34129815376978262996587683338352
56,1255.34493371082574173952212669843708,1254.0,1.34493371082574173952212669843708
57,1300.54850469208885300241690682934420,1299.2,1.34850469208885300241690682934420
58,1346.55201335379120562512111368003776,1345.2,1.35201335379120562512111368003776
59,1393.35546183586211917322970133202743,1392.0,1.35546183586211917322970133202743
60,1440.95885216979122901466445116534243,1439.6,1.35885216979122901466445116534243
61,1489.36218628583778951166945263294731,1488.0,1.36218628583778951166945263294731
62,1538.56546601965038601636604921466881,1537.2,1.36546601965038601636604921466881
63,1588.56869311835400483561331572443752,1587.2,1.36869311835400483561331572443752
64,1639.37186924615509785099809496496694,1638.0,1.37186924615509785099809496496694
65,1690.97499598950974363980581158206297,1689.6,1.37499598950974363980581158206297
66,1743.37807486189515960376912087946964,1742.0,1.37807486189515960376912087946964
67,1796.58110730822055732106565209822817,1795.2,1.38110730822055732106565209822817
68,1850.58409470890957717622752720826072,1849.2,1.38409470890957717622752720826072
69,1905.38703838368322565189857435111071,1904.0,1.38703838368322565189857435111071
70,1960.98993959506931039811095016239137,1959.6,1.38993959506931039811095016239137
71,2017.39279955166176949102197923419263,2016.0,1.39279955166176949102197923419263
72,2074.59561941115099305067184437708793,2073.2,1.39561941115099305067184437708793
73,2132.59840028314418238091954812158718,2131.2,1.39840028314418238091954812158718
74,2191.40114323179297294616149250914164,2190.0,1.40114323179297294616149250914164
75,2251.00384927824391639833416419461954,2249.6,1.40384927824391639833416419461954
76,2311.40651940292596731094696585228345,2310.0,1.40651940292596731094696585228345
77,2372.60915454768781787847319109816188,2371.2,1.40915454768781787847319109816188
78,2434.61175561779675804124687461382211,2433.2,1.41175561779675804124687461382211
79,2497.41432348380969167602091522854857,2496.0,1.41432348380969167602091522854857
80,2561.01685898332600136669737069298833,2559.6,1.41685898332600136669737069298833
81,2625.41936292263110492826425812168147,2624.0,1.41936292263110492826425812168147
82,2690.62183607823878540641953766818568,2689.2,1.42183607823878540641953766818568
83,2756.62427919833968754157327373338851,2755.2,1.42427919833968754157327373338851
84,2823.42669300416274939420281531183224,2822.0,1.42669300416274939420281531183224
85,2891.02907819125577855236211796574582,2889.6,1.42907819125577855236211796574582
86,2959.43143543069086647675689232334199,2958.0,1.43143543069086647675689232334199
87,3028.63376537019987706799750985186944,3027.2,1.43376537019987706799750985186944
88,3098.63606863524482216290571852577143,3097.2,1.43606863524482216290571852577143
89,3169.43834583002755316458975204809917,3168.0,1.43834583002755316458975204809917
90,3241.04059753844285479427310935849881,3239.6,1.44059753844285479427310935849881
91,3313.44282432497870550081161447407982,3312.0,1.44282432497870550081161447407982
92,3386.64502673556718076629408789378047,3385.2,1.44502673556718076629408789378047
93,3460.64720529838921329106646396227195,3459.2,1.44720529838921329106646396227195
94,3535.44936052463618111278093313251874,3534.0,1.44936052463618111278093313251874
95,3611.05149290923107356004279825805532,3609.6,1.45149290923107356004279825805532
96,3687.45360293151178311911112287393822,3686.0,1.45360293151178311911112287393822
97,3764.65569105587888694999986769275611,3763.2,1.45569105587888694999986769275611
98,3842.65775773241010891403120764493146,3841.2,1.45775773241010891403120764493146
99,3921.45980339744349950270389353583995,3920.0,1.45980339744349950270389353583995
100,4001.06182847413122471732319736873547,3999.6,1.46182847413122471732319736873547
101,4081.46383337296572564468465515571313,4080.0,1.46383337296572564468465515571313
102,4162.66581849227988489938268488991045,4161.2,1.46581849227988489938268488991045
103,4244.66778421872272818970221277688060,4243.2,1.46778421872272818970221277688060
104,4327.46973092771208199934126352388002,4326.0,1.46973092771208199934126352388002
105,4411.07165898386551530345522153533087,4409.6,1.47165898386551530345522153533087
106,4495.47356874141080247327008371614830,4494.0,1.47356874141080247327008371614830
107,4580.67546054457706644155644292739886,4579.2,1.47546054457706644155644292739886
108,4666.67733472796768196170156750904651,4665.2,1.47733472796768196170156750904651
109,4753.47919161691595019958293239605684,4752.0,1.47919161691595019958293239605684
110,4841.08103152782449347732127512432812,4839.6,1.48103152782449347732127512432812
111,4929.48285476848925312679296051148082,4928.0,1.48285476848925312679296051148082
112,5018.68466163840892397714784417333318,5017.2,1.48466163840892397714784417333318
113,5108.68645242908060346478475070762809,5107.2,1.48645242908060346478475070762809
114,5199.48822742428238459648051339816752,5198.0,1.48822742428238459648051339816752
115,5291.08998690034358154786570590126447,5289.6,1.48998690034358154786570590126447
116,5383.49173112640322834779225911611411,5382.0,1.49173112640322834779225911611411
117,5476.69346036465745938613123873441141,5475.2,1.49346036465745938613123873441141
118,5570.69517487059633945143345493509696,5569.2,1.49517487059633945143345493509696
119,5665.49687489323067729116952321070928,5664.0,1.49687489323067729116952321070928
120,5761.09856067530933084503088696997075,5759.6,1.49856067530933084503088696997075
121,5857.50023245352747403452897109068635,5856.0,1.50023245352747403452897109068635
122,5954.70189045872627607899713250511039,5953.2,1.50189045872627607899713250511039
123,6052.70353491608441211516792871577627,6051.2,1.50353491608441211516792871577627
124,6151.50516604530180621768957181791190,6150.0,1.50516604530180621768957181791190
125,6251.10678406077597835168246596802151,6249.6,1.50678406077597835168246596802151
126,6351.50838917177135159113907656506978,6350.0,1.50838917177135159113907656506978
127,6452.70998158258185535908404556464240,6451.2,1.50998158258185535908404556464240
128,6554.71156149268713785822159706513201,6553.2,1.51156149268713785822159706513201
129,6657.51312909690268878755919303190066,6656.0,1.51312909690268878755919303190066
130,6761.11468458552415505862912348476456,6759.6,1.51468458552415505862912348476456
131,6865.51622814446611682081166337117854,6864.0,1.51622814446611682081166337117854
132,6970.71775995539557612806288914674816,6969.2,1.51775995539557612806288914674816
133,7076.71928019586039879776567996387923,7075.2,1.51928019586039879776567996387923
134,7183.52078903941293873646441271374694,7182.0,1.52078903941293873646441271374694
135,7291.12228665572905589890089572788590,7289.6,1.52228665572905589890089572788590
136,7399.52377321072273535923863586651037,7398.0,1.52377321072273535923863586651037
137,7508.72524886665650166541950478824229,7507.2,1.52524886665650166541950478824229
138,7618.72671378224780903560569379557973,7617.2,1.52671378224780903560569379557973
139,7729.52816811277158584975475428358047,7728.0,1.52816811277158584975475428358047
140,7841.12961201015909644340693096842912,7839.6,1.52961201015909644340693096842912
141,7953.53104562309327865327417415823636,7952.0,1.53104562309327865327417415823636
142,8066.73246909710070749095329293125151,8065.2,1.53246909710070749095329293125151
143,8180.73388257464032667091619839258154,8179.2,1.53388257464032667091619839258154
144,8295.53528619518908253929353654479676,8294.0,1.53528619518908253929353654479676
145,8411.13668009532459076220853841650861,8409.6,1.53668009532459076220853841650861
146,8527.53806440880495826366746104347918,8526.0,1.53806440880495826366746104347918
147,8644.73943926664587470004666941392795,8643.2,1.53943926664587470004666941392795
148,8762.74080479719508880018328722881024,8761.2,1.54080479719508880018328722881024
149,8881.54216112620437137200204676145813,8880.0,1.54216112620437137200204676145813
150,9001.14350837689906861653363819810802,8999.6,1.54350837689906861653363819810802
151,9121.54484667004534166355662553548759,9120.0,1.54484667004534166355662553548759
152,9242.74617612401518262800956282851473,9241.2,1.54617612401518262800956282851473
153,9364.74749685484929613684413767461186,9363.2,1.54749685484929613684413767461186
154,9487.54880897631793022553754940526635,9486.0,1.54880897631793022553754940526635
155,9611.15011259997973484023303407656142,9609.6,1.55011259997973484023303407656142
156,9735.55140783523872581184724200028332,9734.0,1.55140783523872581184724200028332
157,9860.75269478939942534872300651188760,9859.2,1.55269478939942534872300651188760
158,9986.75397356772025086590390365957591,9985.2,1.55397356772025086590390365957591
159,10113.5552442734652158238388090945665,10112.0,1.5552442734652158238388090945665
160,10241.1565070079540089140290687902407,10239.6,1.5565070079540089140290687902407
161,10369.5577618706105100877122185995480,10368.0,1.5577618706105100877122185995480
162,10498.7590089590098028886565184355457,10497.2,1.5590089590098028886565184355457
163,10628.7602483689237379433384519513852,10627.2,1.5602483689237379433384519513852
164,10759.5614801943651022450714866149736,10758.0,1.5614801943651022450714866149736
165,10891.1627045276304428322765743234355,10889.6,1.5627045276304428322765743234355
166,11023.5639214593415953764560856670977,11022.0,1.5639214593415953764560856670977
167,11156.7651310784859649121638843715871,11155.2,1.5651310784859649121638843715871
168,11290.7663334724556013978581459597483,11289.2,1.5663334724556013978581459597483
169,11425.5675287270851151697004592319801,11424.0,1.5675287270851151697004592319801
170,11561.1687169266884720313903890386682,11559.6,1.5687169266884720313903890386682
171,11697.5698981540947081744691427746560,11696.0,1.5698981540947081744691427746560
172,11834.7710724906826027957237764222174,11833.2,1.5710724906826027957237764222174
173,11972.7722400164143438139955769828304,11971.2,1.5722400164143438139955769828304
174,12111.5734008098682225298802301933861,12110.0,1.5734008098682225298802301933861
175,12251.1745549482703912132258192706505,12249.6,1.5745549482703912132258192706505
176,12391.5757025075257133247548731947829,12390.0,1.5757025075257133247548731947829
177,12532.7768435622477396323211265876048,12531.2,1.5768435622477396323211265876048
178,12674.7779781857878393761706399727393,12673.2,1.5779781857878393761706399727393
179,12817.5791064502635129281263766454827,12816.0,1.5791064502635129281263766454827
180,12961.1802284265859168910684782002679,12959.6,1.5802284265859168910684782002679
181,13105.5813441844866242872698488892500,13104.0,1.5813441844866242872698488892500
182,13250.7824537925436475309456187406294,13249.2,1.5824537925436475309456187406294
183,13396.7835573182067472342639926408510,13395.2,1.5835573182067472342639926408510
184,13543.5846548278220510883276675465856,13542.0,1.5846548278220510883276675465856
185,13691.1857463866560046272227911076086,13689.6,1.5857463866560046272227911076086
186,13839.5868320589186748437275253013677,13838.0,1.5868320589186748437275253013677
187,13988.7879119077864304571514109014319,13987.2,1.5879119077864304571514109014319
188,14138.7889859954240142695927056432549,14137.2,1.5889859954240142695927056432549
189,14289.5900543830060313416745820721902,14288.0,1.5900543830060313416745820721902
190,14441.1911171307378686388078611969453,14439.6,1.5911171307378686388078611969453
191,14593.5921742978760653705016283331221,14592.0,1.5921742978760653705016283331221
192,14746.7932259427481504048938733922666,14745.2,1.5932259427481504048938733922666
193,14900.7942721227719650623184409887255,14899.2,1.5942721227719650623184409887255
194,15055.5953128944744846286588095915928,15054.0,1.5953128944744846286588095915928
195,15211.1963483135101565208148340590440,15209.6,1.5963483135101565208148340590440
196,15367.5973784346787687961490946248232,15366.0,1.5973784346787687961490946248232
197,15524.7984033119428633812004013912990,15523.2,1.5984033119428633812004013912990
198,15682.7994229984447081816095347510636,15681.2,1.5994229984447081816095347510636
199,15841.6004375465228409070771965520022,15840.0,1.6004375465228409070771965520022
200,16001.2014470077281985515191757742549,15999.6,1.6014470077281985515191757742549
201,16161.6024514328398435048018219740774,16160.0,1.6024514328398435048018219740774
202,16322.8034508718802996721739327230375,16321.2,1.6034508718802996721739327230375
203,16484.8044453741305092560808226656992,16483.2,1.6044453741305092560808226656992
204,16647.6054349881444218152271357409441,16646.0,1.6054349881444218152271357409441
205,16811.2064197617632255662045157619525,16809.6,1.6064197617632255662045157619525
206,16975.6073997421292339463859800826342,16974.0,1.6073997421292339463859800826342
207,17140.8083749756994333087167297742710,17139.2,1.6083749756994333087167297742710
208,17306.8093455082587059698110544643659,17305.2,1.6093455082587059698110544643659
209,17473.6103113849327343541873259968687,17472.0,1.6103113849327343541873259968687
210,17641.2112726502005977302452509674742,17639.6,1.6112726502005977302452509674742
211,17809.6122293479070688969462200909947,17808.0,1.6122293479070688969462200909947
212,17978.8131815212746210483240231442334,17977.2,1.6131815212746210483240231442334
213,18148.8141292129151491937188278471171,18147.2,1.6141292129151491937188278471171
214,18319.6150724648414211094227821310465,18318.0,1.6150724648414211094227821310465
215,18491.2160113184782570279671561237784,18489.6,1.6160113184782570279671561237784
216,18663.6169458146734520195065579488876,18662.0,1.6169458146734520195065579488876
217,18836.8178759937084450243408940460583,18835.2,1.6178759937084450243408940460583
218,19010.8188018953087435090231153668599,19009.2,1.6188018953087435090231153668599
219,19185.6197235586541070189871059835101,19184.0,1.6197235586541070189871059835101
220,19361.2206410223885021358214448665148,19359.6,1.6206410223885021358214448665148
221,19537.6215543246298267414772079604868,19536.0,1.6215543246298267414772079604868
222,19714.8224635029794207867733480983081,19713.2,1.6224635029794207867733480983081
223,19892.8233685945313571250286682808906,19891.2,1.6233685945313571250286682808906
224,20071.6242696358815274701170869719029,20070.0,1.6242696358815274701170869719029
225,20251.2251666631365260354861558225053,20249.6,1.6251666631365260354861558225053
226,20431.6260597119223343920781904251926,20430.0,1.6260597119223343920781904251926
227,20612.8269488173928161879978469721998,20611.2,1.6269488173928161879978469721998
228,20794.8278340142380235401240005094324,20793.2,1.6278340142380235401240005094324
229,20977.6287153366923222498068764752681,20976.0,1.6287153366923222498068764752681
230,21161.2295928185423405288848951563635,21159.6,1.6295928185423405288848951563635
231,21345.6304664931347430252821488522001,21344.0,1.6304664931347430252821488522001
232,21530.8313363933838405570966916657310,21529.2,1.6313363933838405570966916657310
233,21716.8322025517790305406745760000006,21715.2,1.6322025517790305406745760000006
234,21903.6330650003920842587252618997155,21902.0,1.6330650003920842587252618997155
235,22091.2339237708842741395681787871506,22089.6,1.6339237708842741395681787871506
236,22279.6347788945133507462686537414319,22278.0,1.6347788945133507462686537414319
237,22468.8356304021403730957794884928489,22467.2,1.6356304021403730957794884928489
238,22658.8364783242363940390886911232662,22657.2,1.6364783242363940390886911232662
