Eigenstate,Energy,Kinetic Energy,Potential Energy
1,0.500000000490071786524333132934296351,0.0,0.500000000490071786524333132934296351
2,1.84623094085010017414879164915058801,1.2,0.64623094085010017414879164915058801
3,3.93633761910197608156565211722276550,3.2,0.73633761910197608156565211722276550
4,6.79966529738779853606617883854405799,6.0,0.79966529738779853606617883854405799
5,10.4480466091925996038485333642652225,9.6,0.8480466091925996038485333642652225
6,14.8870660493410215866169602614505763,14.0,0.8870660493410215866169602614505763
7,20.1197208993048215011025892199855801,19.2,0.9197208993048215011025892199855801
8,26.1477839454795010740980272032910214,25.2,0.9477839454795010740980272032910214
9,32.9723836868830357988463596125577461,32.0,0.9723836868830357988463596125577461
10,40.5942803776723312430541046061213709,39.6,0.9942803776723312430541046061213709
11,49.0140095879950440891789497823958325,48.0,1.0140095879950440891789497823958325
12,58.2319624131615456580989782370001413,57.2,1.0319624131615456580989782370001413
13,68.2484329832429668860949198974809102,67.2,1.0484329832429668860949198974809102
14,79.0636479959276209571930699315956935,78.0,1.0636479959276209571930699315956935
15,90.6777858323353460114847965109276695,89.6,1.0777858323353460114847965109276695
16,103.090989361888049723581006165986655,102.0,1.090989361888049723581006165986655
17,116.303374775771278783447248780461080,115.2,1.103374775771278783447248780461080
18,130.315037837940462452874129764620014,129.2,1.115037837940462452874129764620014
19,145.126058408224920946079043736414129,144.0,1.126058408224920946079043736414129
20,160.736503779961823943662717537882119,159.6,1.136503779961823943662717537882119
21,177.146431186077904031886854158948806,176.0,1.146431186077904031886854158948806
22,194.355889710248209128103872254199496,193.2,1.155889710248209128103872254199496
23,212.364921764832636666650081616431296,211.2,1.164921764832636666650081616431296
24,231.173564248276363336359432323051817,230.0,1.173564248276363336359432323051817
25,250.781849461905777651616218647586206,249.6,1.181849461905777651616218647586206
26,271.189805843736072868899787423497972,270.0,1.189805843736072868899787423497972
27,292.397458561433827247591126569905665,291.2,1.197458561433827247591126569905665
28,314.404829995676047768483965222147272,313.2,1.204829995676047768483965222147272
29,337.211940137352125549223365557458429,336.0,1.211940137352125549223365557458429
30,360.818806916405663589571817241532659,359.6,1.218806916405663589571817241532659
31,385.225446475967198952953738383627237,384.0,1.225446475967198952953738383627237
32,410.431873402350941886979163633890046,409.2,1.231873402350941886979163633890046
33,436.438100919179006567632102840146320,435.2,1.238100919179006567632102840146320
34,463.244141052146061875408844747216374,462.0,1.244141052146061875408844747216374
35,490.850004769598135538361763892880538,489.6,1.250004769598135538361763892880538
36,519.255702103065826092716474969786405,518.0,1.255702103065826092716474969786405
37,548.461242251088092558863500226113650,547.2,1.261242251088092558863500226113650
38,578.466633669032372984054265893636006,577.2,1.266633669032372984054265893636006
39,609.271884147118934351047385520919950,608.0,1.271884147118934351047385520919950
40,640.877000878461535566412660362077516,639.6,1.277000878461535566412660362077516
41,673.281990518619734966920163034735473,672.0,1.281990518619734966920163034735473
42,706.486859237903181179711930925756629,705.2,1.286859237903181179711930925756629
43,740.491612767461739826068620957217432,739.2,1.291612767461739826068620957217432
44,775.296256440027214542309787316171722,774.0,1.296256440027214542309787316171722
45,810.900795226034851221756952875563372,809.6,1.300795226034851221756952875563372
46,847.305233765739678098605413334761532,846.0,1.305233765739678098605413334761532
47,884.509576397849257681825369949355556,883.2,1.309576397849257681825369949355556
48,922.513827185116840182651034014706783,921.2,1.313827185116840182651034014706783
49,961.317989937274245535065474840053838,960.0,1.317989937274245535065474840053838
50,1000.92206823162967839483288386526751,999.6,1.32206823162967839483288386526751
51,1041.32606543161021353999581760619512,1040.0,1.32606543161021353999581760619512
52,1082.52998470349034388132461173836672,1081.2,1.32998470349034388132461173836672
53,1124.53382903151553317255847637555003,1123.2,1.33382903151553317255847637555003
54,1167.33760123160215437874229710889948,1166.0,1.33760123160215437874229710889948
55,1210.94130396377171916838885673680022,1209.6,1.34130396377171916838885673680022
56,1255.34493974345722942502565212036585,1254.0,1.34493974345722942502565212036585
57,1300.54851095180228270853282912235446,1299.2,1.34851095180228270853282912235446
58,1346.55201984505876641036885270281160,1345.2,1.35201984505876641036885270281160
59,1393.35546856317622139948805624524055,1392.0,1.35546856317622139948805624524055
60,1440.95885913766493144805150737480651,1439.6,1.35885913766493144805150737480651
61,1489.36219349880523049852859959077523,1488.0,1.36219349880523049852859959077523
62,1538.56547348226721882868266681865399,1537.2,1.36547348226721882868266681865399
63,1588.56870083519783728192533390253134,1587.2,1.36870083519783728192533390253134
64,1639.37187722182593625062135102695036,1638.0,1.37187722182593625062135102695036
65,1690.97500422863044125997669912240797,1689.6,1.37500422863044125997669912240797
66,1743.37808336911186966111127594926771,1742.0,1.37808336911186966111127594926771
67,1796.58111608820319065062359709691321,1795.2,1.38111608820319065062359709691321
68,1850.58410376635226467317722807541738,1849.2,1.38410376635226467317722807541738
69,1905.38704772330478559294940468520447,1904.0,1.38704772330478559294940468520447
70,1960.98994922161372075155040682089045,1959.6,1.38994922161372075155040682089045
71,2017.39280946989864532633937229450127,2016.0,1.39280946989864532633937229450127
72,2074.59562962587606916071585941097980,2073.2,1.39562962587606916071585941097980
73,2132.59841079917980123161582416898516,2131.2,1.39841079917980123161582416898516
74,2191.40115405398857807092803087995040,2190.0,1.40115405398857807092803087995040
75,2251.00386041147655135649745349990043,2249.6,1.40386041147655135649745349990043
76,2311.40653085210078033167346799341466,2310.0,1.40653085210078033167346799341466
77,2372.60916631773857231399924997189756,2371.2,1.40916631773857231399924997189756
78,2434.61176771368634875551052926144924,2433.2,1.41176771368634875551052926144924
79,2497.41433591053066749717765810942937,2496.0,1.41433591053066749717765810942937
80,2561.01687174590109373443667402796149,2559.6,1.41687174590109373443667402796149
81,2625.41937602611376286934279191439250,2624.0,1.41937602611376286934279191439250
82,2690.62184952771371697438459669372595,2689.2,1.42184952771371697438459669372595
83,2756.62429299892340785927375885931163,2755.2,1.42429299892340785927375885931163
84,2823.42670716100413544037567036050947,2822.0,1.42670716100413544037567036050947
85,2891.02909270953663083633982670928457,2889.6,1.42909270953663083633982670928457
86,2959.43145031562647774816964969875591,2958.0,1.43145031562647774816964969875591
87,3028.63378062703960821124612682147102,3027.2,1.43378062703960821124612682147102
88,3098.63608426927268542915597887177769,3097.2,1.43608426927268542915597887177769
89,3169.43836184656280289709115095183171,3168.0,1.43836184656280289709115095183171
90,3241.04061394284058580593643063054058,3239.6,1.44061394284058580593643063054058
91,3313.44284112263045926619299894174508,3312.0,1.44284112263045926619299894174508
92,3386.64504393190155959342847389034421,3385.2,1.44504393190155959342847389034421
93,3460.64722289887250264197590596791316,3459.2,1.44722289887250264197590596791316
94,3535.44937853477298024495420113231466,3534.0,1.44937853477298024495420113231466
95,3611.05151133456493466474398258541569,3609.6,1.45151133456493466474398258541569
96,3687.45362177762585913602958245991795,3686.0,1.45362177762585913602958245991795
97,3764.65571032839658824150768552503728,3763.2,1.45571032839658824150768552503728
98,3842.65777743699576898616168659801260,3841.2,1.45777743699576898616168659801260
99,3921.45982353980304996392025740535041,3920.0,1.45982353980304996392025740535041
100,4001.06184906001287967020241734555463,3999.6,1.46184906001287967020241734555463
101,4081.46385440816067570980699318516814,4080.0,1.46385440816067570980699318516814
102,4162.66583998262300107499456577694460,4161.2,1.46583998262300107499456577694460
103,4244.66780617009327575510903894417156,4243.2,1.46780617009327575510903894417156
104,4327.46975334603444467449826525823221,4326.0,1.46975334603444467449826525823221
105,4411.07168187510992988184986541166149,4409.6,1.47168187510992988184986541166149
106,4495.47359211159410414994607084744378,4494.0,1.47359211159410414994607084744378
107,4580.67548439976344506301095398489822,4579.2,1.47548439976344506301095398489822
108,4666.67735907426944942939976562575614,4665.2,1.47735907426944942939976562575614
109,4753.47921646049431926398754045706435,4752.0,1.47921646049431926398754045706435
110,4841.08105687489036816462093943009871,4839.6,1.48105687489036816462093943009871
111,4929.48288062530403104595012023854280,4928.0,1.48288062530403104595012023854280
112,5018.68468801128531076046863109924884,5017.2,1.48468801128531076046863109924884
113,5108.68647932438343960094803618518411,5107.2,1.48647932438343960094803618518411
114,5199.48825484842948492085842978776695,5198.0,1.48825484842948492085842978776695
115,5291.09001485980658766102114106305298,5289.6,1.49001485980658766102114106305298
116,5383.49175962770847423926289618563017,5382.0,1.49175962770847423926289618563017
117,5476.69348941438685054700392389780867,5475.2,1.49348941438685054700392389780867
118,5570.69520447538824576578548801200734,5569.2,1.49520447538824576578548801200734
119,5665.49690505978084000320862286037979,5664.0,1.49690505978084000320862286037979
120,5761.09859141037178390570943574644566,5759.6,1.49859141037178390570943574644566
121,5857.50026376391548013854830077826527,5856.0,1.50026376391548013854830077826527
122,5954.70192235131327771045485852112315,5953.2,1.50192235131327771045485852112315
123,6052.70356739780499792764901448478597,6051.2,1.50356739780499792764901448478597
124,6151.50519912315269308235909109668725,6150.0,1.50519912315269308235909109668725
125,6251.10681774181700941491919851512562,6249.6,1.50681774181700941491919851512562
126,6351.50842346312651069145418379870448,6350.0,1.50842346312651069145418379870448
127,6452.71001649144029816150902677631374,6451.2,1.51001649144029816150902677631374
128,6554.71159702630424007303120301712439,6553.2,1.51159702630424007303120301712439
129,6657.51316526260111184912771352962243,6656.0,1.51316526260111184912771352962243
130,6761.11472139069492964940239489036599,6759.6,1.51472139069492964940239489036599
131,6865.51626559656974463483456329165245,6864.0,1.51626559656974463483456329165245
132,6970.71779806196315027822919915346625,6969.2,1.51779806196315027822919915346625
133,7076.71931896449474328096255926146200,7075.2,1.51931896449474328096255926146200
134,7183.52082847778976738109277914612794,7182.0,1.52082847778976738109277914612794
135,7291.12232677159815122985325375927726,7289.6,1.52232677159815122985325375927726
136,7399.52381401190914782633088893355860,7398.0,1.52381401190914782633088893355860
137,7508.72529036106176969251204983379515,7507.2,1.52529036106176969251204983379515
138,7618.72675597785120035921798419832786,7617.2,1.52675597785120035921798419832786
139,7729.52821101763136062789010640477293,7728.0,1.52821101763136062789010640477293
140,7841.12965563241379262757316650280667,7839.6,1.52965563241379262757316650280667
141,7953.53108997096302012931675410461977,7952.0,1.53108997096302012931675410461977
142,8066.73251417888853550733493470975079,8065.2,1.53251417888853550733493470975079
143,8180.73392839873355508647942325284023,8179.2,1.53392839873355508647942325284023
144,8295.53533277006067743635378083652136,8294.0,1.53533277006067743635378083652136
145,8411.13672742953457498505161916894406,8409.6,1.53672742953457498505161916894406
146,8527.53811251100184145719014383721428,8526.0,1.53811251100184145719014383721428
147,8644.73948814556810943838702458514298,8643.2,1.53948814556810943838702458514298
148,8762.74085446167255341075758535471874,8761.2,1.54085446167255341075758535471874
149,8881.54221158515988007642301067751416,8880.0,1.54221158515988007642301067751416
150,9001.14355963934990962642305297508762,8999.6,1.54355963934990962642305297508762
151,9121.54489874510484388633712245559607,9120.0,1.54489874510484388633712245559607
152,9242.74622902089431165533988264299458,9241.2,1.54622902089431165533988264299458
153,9364.74755058285828020651378853588268,9363.2,1.54755058285828020651378853588268
154,9487.54886354486791686633950428713055,9486.0,1.54886354486791686633950428713055
155,9611.15016801858447892863331868781747,9609.6,1.55016801858447892863331868781747
156,9735.55146411351630978918367179989564,9734.0,1.55146411351630978918367179989564
157,9860.75275193707401236819823354363093,9859.2,1.55275193707401236819823354363093
158,9986.75403159462387165983881984039581,9985.2,1.55403159462387165983881984039581
159,10113.5553031895395901035213136575599,10112.0,1.5553031895395901035213136575599
160,10241.1565668232524021370698293432184,10239.6,1.5565668232524021370698293432184
161,10369.5578225952996264511197009866068,10368.0,1.5578225952996264511197009866068
162,10498.7590706033717154299036591589238,10497.2,1.5590706033717154299036591589238
163,10628.7603109433578566565248713813390,10627.2,1.5603109433578566565248713813390
164,10759.5615437093901811449416422357577,10758.0,1.5615437093901811449416422357577
165,10891.1627689938866269253393946023581,10889.6,1.5627689938866269253393946023581
166,11023.5639868875925085258130684288487,11022.0,1.5639868875925085258130684288487
167,11156.7651974796208396109143895213639,11155.2,1.5651974796208396109143895213639
168,11290.7664008574914514951591301248817,11289.2,1.5664008574914514951591301248817
169,11425.5675971071689526237250403946063,11424.0,1.5675971071689526237250403946063
170,11561.1687863130995687946202507108531,11559.6,1.5687863130995687946202507108531
171,11697.5699685582469043489835212867350,11696.0,1.5699685582469043489835212867350
172,11834.7711439241266622294689533789745,11833.2,1.5711439241266622294689533789745
173,11972.7723124908403583434657094911840,11971.2,1.5723124908403583434657094911840
174,12111.5734743371080661102611486818089,12110.0,1.5734743371080661102611486818089
175,12251.1746295403002252138927696937040,12249.6,1.5746295403002252138927696937040
176,12391.5757781764685443061139245754991,12390.0,1.5757781764685443061139245754991
177,12532.7769203203760309594036211390278,12531.2,1.5769203203760309594036211390278
178,12674.7780560455261780651640599714758,12673.2,1.5780560455261780651640599714758
179,12817.5791854241913331642303796365697,12816.0,1.5791854241913331642303796365697
180,12961.1803085274402816997348107866932,12959.6,1.5803085274402816997348107866932
181,13105.5814254251650668860882291122621,13104.0,1.5814254251650668860882291122621
182,13250.7825361861070739362383589667575,13249.2,1.5825361861070739362383589667575
183,13396.7836408778824017449060920140541,13395.2,1.5836408778824017449060920140541
184,13543.5847395670065463194884373355987,13542.0,1.5847395670065463194884373355987
185,13691.1858323189184178186984232785592,13689.6,1.5858323189184178186984232785592
186,13839.5869191980037122213676483902802,13838.0,1.5869191980037122213676483902802
187,13988.7880002676176614816581621177378,13987.2,1.5880002676176614816581621177378
188,14138.7890755901071776647787391165395,14137.2,1.5890755901071776647787391165395
189,14289.5901452268324148541615956665742,14288.0,1.5901452268324148541615956665742
190,14441.1912092381877645432367677699539,14439.6,1.5912092381877645432367677699539
191,14593.5922676836223037987086430027382,14592.0,1.5922676836223037987086430027382
192,14746.7933206216597126442428235190652,14745.2,1.5933206216597126442428235190652
193,14900.7943681099176790376180610233164,14899.2,1.5943681099176790376180610233164
194,15055.5954102051268048538868944236712,15054.0,1.5954102051268048538868944236712
195,15211.1964469631490308813663380171687,15209.6,1.5964469631490308813663380171687
196,15367.5974784389955945996238355067089,15366.0,1.5974784389955945996238355067089
197,15524.7985046868445351949562319673641,15523.2,1.5985046868445351949562319673641
198,15682.7995257600577600585777971586600,15681.2,1.5995257600577600585777971586600
199,15841.6005417111976856877771137816497,15840.0,1.6005417111976856877771137816497
200,16001.2015525920434670199641250849363,15999.6,1.6015525920434670199641250849363
201,16161.6025584536068262692108567650092,16160.0,1.6025584536068262692108567650092
202,16322.8035593461474947382417159559181,16321.2,1.6035593461474947382417159559181
203,16484.8045553191882783611445104509268,16483.2,1.6045553191882783611445104509268
204,16647.6055464215297586962252650668127,16646.0,1.6055464215297586962252650668127
205,16811.2065327012646394429611574645087,16809.6,1.6065327012646394429611574645087
206,16975.6075142057917516147052268356965,16974.0,1.6075142057917516147052268356965
207,17140.8084909818297233552073584633849,17139.2,1.6084909818297233552073584633849
208,17306.8094630754303287424857348184536,17305.2,1.6094630754303287424857348184536
209,17473.6104305319915214499087987252300,17472.0,1.6104305319915214499087987252300
210,17641.2113933962701648922412300021708,17639.6,1.6113933962701648922412300021708
211,17809.6123517123944663531465319676281,17808.0,1.6123517123944663531465319676281
212,17978.8133055238761254643769180161135,17977.2,1.6133055238761254643769180161135
213,18148.8142548736222015635512112474875,18147.2,1.6142548736222015635512112474875
214,18319.6151998039467150613357028836516,18318.0,1.6151998039467150613357028836516
215,18491.2161403565819821858197006979623,18489.6,1.6161403565819821858197006979623
216,18663.6170765726896972268344697032059,18662.0,1.6170765726896972268344697032059
217,18836.8180084928717664145907693979460,18835.2,1.6180084928717664145907693979460
218,19010.8189361571809025878164195846847,19009.2,1.6189361571809025878164195846847
219,19185.6198596051309841147896631617367,19184.0,1.6198596051309841147896631617367
220,19361.2207788757071907739525488299449,19359.6,1.6207788757071907739525488299449
221,19537.6216940073759147034855366994484,19536.0,1.6216940073759147034855366994484
222,19714.8226050380944638331746694406411,19713.2,1.6226050380944638331746694406411
223,19892.8235120053205515847503766904086,19891.2,1.6235120053205515847503766904086
224,20071.6244149460215881351405371690264,20070.0,1.6244149460215881351405371690264
225,20251.2253138966837760446203072660271,20249.6,1.6253138966837760446203072660271
226,20431.6262088933210140440508519486128,20430.0,1.6262088933210140440508519486128
227,20612.8270999714836178916451431199501,20611.2,1.6270999714836178916451431199501
228,20794.8279871662668603889834411961946,20793.2,1.6279871662668603889834411961946
229,20977.6288705123193380004667177315023,20976.0,1.6288705123193380004667177315023
230,21161.2297500438511690676212056590001,21159.6,1.6297500438511690676212056590001
231,21345.6306257946420257265762889159848,21344.0,1.6306257946420257265762889159848
232,21530.8314977980490102711835077281066,21529.2,1.6314977980490102711835077281066
233,21716.8323660870143712961706641699290,21715.2,1.6323660870143712961706641699290
234,21903.6332306940730761313456180196270,21902.0,1.6332306940730761313456180196270
235,22091.2340916513602331198699113449979,22089.6,1.6340916513602331198699113449979
236,22279.6349489906183738391110439207864,22278.0,1.6349489906183738391110439207864
237,22468.8358027432045993027261364945309,22467.2,1.6358027432045993027261364945309
238,22658.8366529400975923132921301850505,22657.2,1.6366529400975923132921301850505
