Eigenstate,Energy,Kinetic Energy,Potential Energy
1,0.500000000019367400964257867681420367,0.0,0.500000000019367400964257867681420367
2,1.84623093777753485926308226129440521,1.2,0.64623093777753485926308226129440521
3,3.93633761007632445173845928753013483,3.2,0.73633761007632445173845928753013483
4,6.79966527858771489052939722678155907,6.0,0.79966527858771489052939722678155907
5,10.4480465766255023485109735144370583,9.6,0.8480465766255023485109735144370583
6,14.8870659989434996426637289020621452,14.0,0.8870659989434996426637289020621452
7,20.1197208269794770074804848128681881,19.2,0.9197208269794770074804848128681881
8,26.1477838471101733892625809117778763,25.2,0.9477838471101733892625809117778763
9,32.9723835583417510627644159764258768,32.0,0.9723835583417510627644159764258768
10,40.5942802148227100030453382121581006,39.6,0.9942802148227100030453382121581006
11,49.0140093866940412613268270224171792,48.0,1.0140093866940412613268270224171792
12,58.2319621692603403844341637521911485,57.2,1.0319621692603403844341637521911485
13,68.2484326925873892983405565943013987,67.2,1.0484326925873892983405565943013987
14,79.0636476543583121302909836187871746,78.0,1.0636476543583121302909836187871746
15,90.6777854356877566509845145560227061,89.6,1.0777854356877566509845145560227061
16,103.090988905992337244066895342741397,102.0,1.090988905992337244066895342741397
17,116.303374256452137977645365837210656,115.2,1.103374256452137977645365837210656
18,130.315037251016911307030686166037543,129.2,1.115037251016911307030686166037543
19,145.126057749510055236053008592705093,144.0,1.126057749510055236053008592705093
20,160.736503045262549483205576335864286,159.6,1.136503045262549483205576335864286
21,177.146430371194652490108944161595101,176.0,1.146430371194652490108944161595101
22,194.355888810974641448892994410220921,193.2,1.155888810974641448892994410220921
23,212.364920776955336890833257629547305,211.2,1.164920776955336890833257629547305
24,231.173563167574524803600239151107280,230.0,1.173563167574524803600239151107280
25,250.781848284150882996850152515977040,249.6,1.181848284150882996850152515977040
26,271.189804564691568837268520955143774,270.0,1.189804564691568837268520955143774
27,292.397457176854795075462544194630671,291.2,1.197457176854795075462544194630671
28,314.404828501308869679634885825595645,313.2,1.204828501308869679634885825595645
29,337.211938528934147770602257157750189,336.0,1.211938528934147770602257157750189
30,360.818805189664856184214204242629522,359.6,1.218805189664856184214204242629522
31,385.225444626621812687708214225508535,384.0,1.225444626621812687708214225508535
32,410.431871426109162292217770074398558,409.2,1.231871426109162292217770074398558
33,436.438098811738605299822469747636039,435.2,1.238098811738605299822469747636039
34,463.244138809194045457606641908538907,462.0,1.244138809194045457606641908538907
35,490.850002386810391525679631015363235,489.6,1.250002386810391525679631015363235
36,519.255699576106766687713384426548041,518.0,1.255699576106766687713384426548041
37,548.461239575610295684160961766988600,547.2,1.261239575610295684160961766988600
38,578.466630840676220805280313970598807,577.2,1.266630840676220805280313970598807
39,609.271881161512249231652640097598541,608.0,1.271881161512249231652640097598541
40,640.876997731219213426406867655641618,639.6,1.276997731219213426406867655641618
41,673.281987205343376009695836905761453,672.0,1.281987205343376009695836905761453
42,706.486855754180717944509452203897978,705.2,1.286855754180717944509452203897978
43,740.491609108867062518030887462513882,739.2,1.291609108867062518030887462513882
44,775.296252602119793587268680031136258,774.0,1.296252602119793587268680031136258
45,810.900791204359356988726306475387249,809.6,1.300791204359356988726306475387249
46,847.305229555825597729299052703956082,846.0,1.305229555825597729299052703956082
47,884.509571995210508963274784359873700,883.2,1.309571995210508963274784359873700
48,922.513822585251382396082509113298707,921.2,1.313822585251382396082509113298707
49,961.317985135663687211549097547856810,960.0,1.317985135663687211549097547856810
50,1000.92206322373888190578221050066026,999.6,1.32206322373888190578221050066026
51,1041.32606021288689644833418389730156,1040.0,1.32606021288689644833418389730156
52,1082.52997926936467697700999637260437,1081.2,1.32997926936467697700999637260437
53,1124.53382337739973511414298563383407,1123.2,1.33382337739973511414298563383407
54,1167.33759535289008286071138489943339,1166.0,1.33759535289008286071138489943339
55,1210.94129785583845853216162931190061,1209.6,1.34129785583845853216162931190061
56,1255.34493340165867462968323393108116,1254.0,1.34493340165867462968323393108116
57,1300.54850437147471957556445611011363,1299.2,1.34850437147471957556445611011363
58,1346.55201302151844805496996300490339,1345.2,1.35201302151844805496996300490339
59,1393.35546149171894075920909920224148,1392.0,1.35546149171894075920909920224148
60,1440.95885181356558981786325643310290,1439.6,1.35885181356558981786325643310290
61,1489.36218591731740197963815030146329,1488.0,1.36218591731740197963815030146329
62,1538.56546563862271059669495643844236,1537.2,1.36546563862271059669495643844236
63,1588.56869272460624557819509393280191,1587.2,1.36869272460624557819509393280191
64,1639.37186883947419799887258343756937,1638.0,1.37186883947419799887258343756937
65,1690.97499556968238120847609774338702,1689.6,1.37499556968238120847609774338702
66,1743.37807442870774294886969620833289,1742.0,1.37807442870774294886969620833289
67,1796.58110686145922069425616566851057,1795.2,1.38110686145922069425616566851057
68,1850.58409424836017626917905529654833,1849.2,1.38409424836017626917905529654833
69,1905.38703790913133312823325100092728,1904.0,1.38703790913133312823325100092728
70,1960.98993910630021141315049159764562,1959.6,1.38993910630021141315049159764562
71,2017.39279904846045719919544281060947,2016.0,1.39279904846045719919544281060947
72,2074.59561889330216410042859283665135,2073.2,1.39561889330216410042859283665135
73,2132.59839975043223239698899967112351,2131.2,1.39839975043223239698899967112351
74,2191.40114268400199199899746360501553,2190.0,1.40114268400199199899746360501553
75,2251.00384871515768446057792062505780,2249.6,1.40384871515768446057792062505780
76,2311.40651882432794970073981102195128,2310.0,1.40651882432794970073981102195128
77,2372.60915395336116068944624130246023,2371.2,1.40915395336116068944624130246023
78,2434.61175500752428355901270203917014,2433.2,1.41175500752428355901270203917014
79,2497.41432285737389378098899270566795,2496.0,1.41432285737389378098899270566795
80,2561.01685834050904092303267212470030,2559.6,1.41685834050904092303267212470030
81,2625.41936226321480515880580509523445,2624.0,1.41936226321480515880580509523445
82,2690.62183540200462725337335575496777,2689.2,1.42183540200462725337335575496777
83,2756.62427850506880501279197363507514,2755.2,1.42427850506880501279197363507514
84,2823.42669229363592489486183053501138,2822.0,1.42669229363592489486183053501138
85,2891.02907746325343820184052221458913,2889.6,1.42907746325343820184052221458913
86,2959.43143468499307541052878365862190,2958.0,1.43143468499307541052878365862190
87,3028.63376460658633472433789920922892,3027.2,1.43376460658633472433789920922892
88,3098.63606785349485755421302715412244,3097.2,1.43606785349485755421302715412244
89,3169.43834502992012013312518588004994,3168.0,1.43834502992012013312518588004994
90,3241.04059671975652725211536972557873,3239.6,1.44059671975652725211536972557873
91,3313.44282348749167265382360457465477,3312.0,1.44282348749167265382360457465477
92,3386.64502587905724232189660685414142,3385.2,1.44502587905724232189660685414142
93,3460.64720442263377464961212386426932,3459.2,1.44720442263377464961212386426932
94,3535.44935962941224854231990566229375,3534.0,1.44935962941224854231990566229375
95,3611.05149199431524935427027474246269,3609.6,1.45149199431524935427027474246269
96,3687.45360199668026073828482356469472,3686.0,1.45360199668026073828482356469472
97,3764.65569010090744614461418135145395,3763.2,1.45569010090744614461418135145395
98,3842.65775675707411083103307795202540,3841.2,1.45775675707411083103307795202540
99,3921.45980240151788177403380746466489,3920.0,1.45980240151788177403380746466489
100,4001.06182745739049653056314188813415,3999.6,1.46182745739049653056314188813415
101,4081.46383233518396279559324920497735,4080.0,1.46383233518396279559324920497735
102,4162.66581743323072482609610510291979,4161.2,1.46581743323072482609610510291979
103,4244.66778313817936498837799735855557,4243.2,1.46778313817936498837799735855557
104,4327.46972982544726142102033165716307,4326.0,1.46972982544726142102033165716307
105,4411.07165785965152973191601612252210,4409.6,1.47165785965152973191601612252210
106,4495.47356759501948588364701669754971,4494.0,1.47356759501948588364701669754971
107,4580.67545937577978933949326559692487,4579.2,1.47545937577978933949326559692487
108,4666.67733353653534630280868561135587,4665.2,1.47733353653534630280868561135587
109,4753.47919040261898428896596860952034,4752.0,1.47919040261898428896596860952034
110,4841.08103029043284684894666686711356,4839.6,1.48103029043284684894666686711356
111,4929.48285350777239140245464004664742,4928.0,1.48285350777239140245464004664742
112,5018.68466035413582370479742956816204,5017.2,1.48466035413582370479742956816204
113,5108.68645112101974693598603659531725,5107.2,1.48645112101974693598603659531725
114,5199.48822609220175464274727760804989,5198.0,1.48822609220175464274727760804989
115,5291.08998554401065631564027960537624,5289.6,1.48998554401065631564027960537624
116,5383.49172974558497605182048362128246,5382.0,1.49172974558497605182048362128246
117,5476.69345895912033304098774942139268,5475.2,1.49345895912033304098774942139268
118,5570.69517344010627158094958369661601,5569.2,1.49517344010627158094958369661601
119,5665.49687343755307461551422256070173,5664.0,1.49687343755307461551422256070173
120,5761.09855919420906894519330627807135,5759.6,1.49855919420906894519330627807135
121,5857.50023094676889199394967947812969,5856.0,1.50023094676889199394967947812969
122,5954.70188892607317110209303157506992,5953.2,1.50188892607317110209303157506992
123,6052.70353335730003412249412536101015,6051.2,1.50353335730003412249412536101015
124,6151.50516446014885241747966654840399,6150.0,1.50516446014885241747966654840399
125,6251.10678244901658778750681609535148,6249.6,1.50678244901658778750681609535148
126,6351.50838753316709966541870477320083,6350.0,1.50838753316709966541870477320083
127,6452.70997991689374833219599888622578,6451.2,1.50997991689374833219599888622578
128,6554.71155979967560732292961954424191,6553.2,1.51155979967560732292961954424191
129,6657.51312737632758611850163100484500,6656.0,1.51312737632758611850163100484500
130,6761.11468283714474583659404878162365,6759.6,1.51468283714474583659404878162365
131,6865.51622636804107523152724255277439,6864.0,1.51622636804107523152724255277439
132,6970.71775815068297933522879418458317,6969.2,1.51775815068297933522879418458317
133,7076.71927836261772129004975076302190,7075.2,1.51927836261772129004975076302190
134,7183.52078717739704664818632120887534,7182.0,1.52078717739704664818632120887534
135,7291.12228476469620130412257767674818,7289.6,1.52228476469620130412257767674818
136,7399.52377129042855053897941335867921,7398.0,1.52377129042855053897941335867921
137,7508.72524691685599334771133470427216,7507.2,1.52524691685599334771133470427216
138,7618.72671180269535260810214548346185,7617.2,1.52671180269535260810214548346185
139,7729.52816610322091954460490877885897,7728.0,1.52816610322091954460490877885897
140,7841.12960997036331549410335482257463,7839.6,1.52960997036331549410335482257463
141,7953.53104355280482942318189713735520,7952.0,1.53104355280482942318189713735520
142,8066.73246699607138157322435989745974,8065.2,1.53246699607138157322435989745974
143,8180.73388044262125495949227093420463,8179.2,1.53388044262125495949227093420463
144,8295.53528403193072927069647588911108,8294.0,1.53528403193072927069647588911108
145,8411.13667790057674752781689182559105,8409.6,1.53667790057674752781689182559105
146,8527.53806218231673799217415158277196,8526.0,1.53806218231673799217415158277196
147,8644.73943700816570560979097115551677,8643.2,1.53943700816570560979097115551677
148,8762.74080250647070832104771323460975,8761.2,1.54080250647070832104771323460975
149,8881.54215880298282003656230061445970,8880.0,1.54215880298282003656230061445970
150,9001.14350602092668392014753209492060,8999.6,1.54350602092668392014753209492060
151,9121.54484428106775189307494576006177,9120.0,1.54484428106775189307494576006177
152,9242.74617370177730065878986566169528,9241.2,1.54617370177730065878986566169528
153,9364.74749439909531319774551568685401,9363.2,1.54749439909531319774551568685401
154,9487.54880648679130963157207927968510,9486.0,1.54880648679130963157207927968510
155,9611.15011007642320569254687381994817,9609.6,1.55011007642320569254687381994817
156,9735.55140527739427666470167612544646,9734.0,1.55140527739427666470167612544646
157,9860.75269219700829784314326298313928,9859.2,1.55269219700829784314326298313928
158,9986.75397094052293332966065890391604,9985.2,1.55397094052293332966065890391604
159,10113.5552416112014368374247102979822,10112.0,1.5552416112014368374247102979822
160,10241.1565043103627308422897721633072,10239.6,1.5565043103627308422897721633072
161,10369.5577591374299225767886275571565,10368.0,1.5577591374299225767886275571565
162,10498.7590061899773163278921104399617,10497.2,1.5590061899773163278921104399617
163,10628.7602455637759768918028745753535,10627.2,1.5602455637759768918028745753535
164,10759.5614773528378988223483830288237,10758.0,1.5614773528378988223483830288237
165,10891.1627016494588300731608685733699,10889.6,1.5627016494588300731608685733699
166,11023.5639185442598005492030937359814,11022.0,1.5639185442598005492030937359814
167,11156.7651281262274027999294527552102,11155.2,1.5651281262274027999294527552102
168,11290.7663304827528675429659747741687,11289.2,1.5663304827528675429659747741687
169,11425.5675256996699790803699225758875,11424.0,1.5675256996699790803699225758875
170,11561.1687138612918703505547401686208,11559.6,1.5687138612918703505547401686208
171,11697.5698950504467378103111635815593,11696.0,1.5698950504467378103111635815593
172,11834.7710693485125140135524834637095,11833.2,1.5710693485125140135524834637095
173,11972.7722368354505332890846946065138,11971.2,1.5722368354505332890846946065138
174,12111.5733975898382263608855742927926,12110.0,1.5733975898382263608855742927926
175,12251.1745516889008778957956333212461,12249.6,1.5745516889008778957956333212461
176,12391.5756992085424766849437571097409,12390.0,1.5756992085424766849437571097409
177,12532.7768402233756917194149327008764,12531.2,1.5768402233756917194149327008764
178,12674.7779748067510033145261930272787,12673.2,1.5779748067510033145261930272787
179,12817.5791030307850157276264670999756,12816.0,1.5791030307850157276264670999756
180,12961.1802249663879822157891432105661,12959.6,1.5802249663879822157891432105661
181,13105.5813406832905651819533108881197,13104.0,1.5813406832905651819533108881197
182,13250.7824502500698591048688814950243,13249.2,1.5824502500698591048688814950243
183,13396.7835537341746993020892464810904,13395.2,1.5835537341746993020892464810904
184,13543.5846512019502807675172663421215,13542.0,1.5846512019502807675172663421215
185,13691.1857427186621088915974809128692,13689.6,1.5857427186621088915974809128692
186,13839.5868283485193030327434379326578,13838.0,1.5868283485193030327434379326578
187,13988.7879081546972767404669806394270,13987.2,1.5879081546972767404669806394270
188,14138.7889821993598100664932383039426,14137.2,1.5889821993598100664932383039426
189,14289.5900505436805376949181298724514,14288.0,1.5900505436805376949181298724514
190,14441.1911132478638685424521944987093,14439.6,1.5911132478638685424521944987093
191,14593.5921703711653560512682115336835,14592.0,1.5921703711653560512682115336835
192,14746.7932219719115355566205921322525,14745.2,1.5932219719115355566205921322525
193,14900.7942681075192470330488942844941,14899.2,1.5942681075192470330488942844941
194,15055.5953088345144565599118660561631,15054.0,1.5953088345144565599118660561631
195,15211.1963442085505944385739161201582,15209.6,1.5963442085505944385739161201582
196,15367.5973742844264236531065942470074,15366.0,1.5973742844264236531065942470074
197,15524.7983991161034530497882079430493,15523.2,1.5983991161034530497882079430493
198,15682.7994187567229093973425603184815,15681.2,1.5994187567229093973425603184815
199,15841.6004332586222811617321768579577,15840.0,1.6004332586222811617321768579577
200,16001.2014426733514479356668768942774,15999.6,1.6014426733514479356668768942774
201,16161.6024470516884064992062983869930,16160.0,1.6024470516884064992062983869930
202,16322.8034464436546068875676225344671,16321.2,1.6034464436546068875676225344671
203,16484.8044408985299091208203064276161,16483.2,1.6044408985299091208203064276161
204,16647.6054304648671722103292179699429,16646.0,1.6054304648671722103292179699429
205,16811.2064151905064854072580288744386,16809.6,1.6064151905064854072580288744386
206,16975.6073951225890547118296486494395,16974.0,1.6073951225890547118296486494395
207,17140.8083703075707505139689793877297,17139.2,1.6083703075707505139689793877297
208,17306.8093407912353305867325178968849,17305.2,1.6093407912353305867325178968849
209,17473.6103066187073441753521784559282,17472.0,1.6103066187073441753521784559282
210,17641.2112678344647286774922270536100,17639.6,1.6112678344647286774922270536100
211,17809.6122244823511062736755652932553,17808.0,1.6122244823511062736755652932553
212,17978.8131766055877907350012665043420,17977.2,1.6131766055877907350012665043420
213,18148.8141242467855087860411556132525,18147.2,1.6141242467855087860411556132525
214,18319.6150674479558509985987602140104,18318.0,1.6150674479558509985987602140104
215,18491.2160062505224514225551306559575,18489.6,1.6160062505224514225551306559575
216,18663.6169406953319099082518908706291,18662.0,1.6169406953319099082518908706291
217,18836.8178708226644610794466666509124,18835.2,1.6178708226644610794466666509124
218,19010.8187966722443989292836592090672,19009.2,1.6187966722443989292836592090672
219,19185.6197182832502603122080261403341,19184.0,1.6197182832502603122080261403341
220,19361.2206356943247798399444229803647,19359.6,1.6206356943247798399444229803647
221,19537.6215489435846140838220786777087,19536.0,1.6215489435846140838220786777087
222,19714.8224580686298522808042571283237,19713.2,1.6224580686298522808042571283237
223,19892.8233631065533071040455746958738,19891.2,1.6233631065533071040455746958738
224,20071.6242640939496005572675951965878,20070.0,1.6242640939496005572675951965878
225,20251.2251610669240475494872231604623,20249.6,1.6251610669240475494872231604623
226,20431.6260540611013406880307823463422,20430.0,1.6260540611013406880307823463422
227,20612.8269431116340449326721284766835,20611.2,1.6269431116340449326721284766835
228,20794.8278282532109039210859647595981,20793.2,1.6278282532109039210859647595981
229,20977.6287095200649651177514708137739,20976.0,1.6287095200649651177514708137739
230,21161.2295869459815284725343973065981,21159.6,1.6295869459815284725343973065981
231,21345.6304605643059203782018338649147,21344.0,1.6304605643059203782018338649147
232,21530.8313304079511033357739902375586,21529.2,1.6313304079511033357739902375586
233,21716.8321965094051163132009604473998,21715.2,1.6321965094051163132009604473998
234,21903.6330589007383619434136586037864,21902.0,1.6330589007383619434136586037864
235,22091.2339176136107337328320973685201,22089.6,1.6339176136107337328320973685201
236,22279.6347726792785929790823232398884,22278.0,1.6347726792785929790823232398884
237,22468.8356241286015990180316597391320,22467.2,1.6356241286015990180316597391320
238,22658.8364719920493945311357329954169,22657.2,1.6364719920493945311357329954169
