Eigenstate,Energy,Kinetic Energy,Potential Energy
1,0.500000000246885559734825588615377476,0.0,0.500000000246885559734825588615377476
2,1.84623093926266878292455551766661629,1.2,0.64623093926266878292455551766661629
3,3.93633761443884914850147648548060704,3.2,0.73633761443884914850147648548060704
4,6.79966528767453728714009104954349051,6.0,0.79966528767453728714009104954349051
5,10.4480465923661390506194041419794143,9.6,0.8480465923661390506194041419794143
6,14.8870660233014902353578876405514083,14.0,0.8870660233014902353578876405514083
7,20.1197208619345212051574703500771973,19.2,0.9197208619345212051574703500771973
8,26.1477838946507176186016477350582071,25.2,0.9477838946507176186016477350582071
9,32.9723836204615744292923247031430806,32.0,0.9723836204615744292923247031430806
10,40.5942802935192221430537779929012315,39.6,0.9942802935192221430537779929012315
11,49.0140094839673861252022627679669306,48.0,1.0140094839673861252022627679669306
12,58.2319622871129107647724422127822830,57.2,1.0319622871129107647724422127822830
13,68.2484328330235650241668044921194980,67.2,1.0484328330235650241668044921194980
14,79.0636478193843270374317475971319801,78.0,1.0636478193843270374317475971319801
15,90.6777856273116432974833924031392621,89.6,1.0777856273116432974833924031392621
16,103.090989126223920518885009099110552,102.0,1.090989126223920518885009099110552
17,116.303374507303060572293143643042868,115.2,1.103374507303060572293143643042868
18,130.315037534500680614468193225227537,129.2,1.115037534500680614468193225227537
19,145.126058067642105069719970270924814,144.0,1.126058067642105069719970270924814
20,160.736503400060312311061106602186340,159.6,1.136503400060312311061106602186340
21,177.146430764677639306444451700332630,176.0,1.146430764677639306444451700332630
22,194.355889245164527317265036771790708,193.2,1.155889245164527317265036771790708
23,212.364921253876050786775821689308315,211.2,1.164921253876050786775821689308315
24,231.173563689252342783794181967931135,230.0,1.173563689252342783794181967931135
25,250.781848852614523992993664606208250,249.6,1.181848852614523992993664606208250
26,271.189805181972292561632937525245932,270.0,1.189805181972292561632937525245932
27,292.397457844986501658525056184868389,291.2,1.197457844986501658525056184868389
28,314.404829222328200755945438529129624,313.2,1.204829222328200755945438529129624
29,337.211939304880588798772694416566816,336.0,1.211939304880588798772694416566816
30,360.818806022580839838363753168378753,359.6,1.218806022580839838363753168378753
31,385.225445518552823196121609823600381,384.0,1.225445518552823196121609823600381
32,410.431872379103840627995225414191575,409.2,1.231872379103840627995225414191575
33,436.438099827848855150458025708578186,435.2,1.238099827848855150458025708578186
34,463.244139890475139917516444904223666,462.0,1.244139890475139917516444904223666
35,490.850003535321080469000084034489294,489.6,1.250003535321080469000084034489294
36,519.255700793909384789132030587383389,518.0,1.255700793909384789132030587383389
37,548.461240864770871063814170616418964,547.2,1.261240864770871063814170616418964
38,578.466632203264584280355201841531951,577.2,1.266632203264584280355201841531951
39,609.271882599602144162644373469957777,608.0,1.271882599602144162644373469957777
40,640.876999246888406150290763214383059,639.6,1.276999246888406150290763214383059
41,673.281988800673766855792141799565363,672.0,1.281988800673766855792141799565363
42,706.486857431258452831713583710412933,705.2,1.286857431258452831713583710412933
43,740.491610869782645134480572815214588,739.2,1.291610869782645134480572815214588
44,775.296254448968198155520841544158062,774.0,1.296254448968198155520841544158062
45,810.900793139240141621198982720065805,809.6,1.300793139240141621198982720065805
46,847.305231580843018380158162367762695,846.0,1.305231580843018380158162367762695
47,884.509574112473633984159808563406138,883.2,1.309574112473633984159808563406138
48,922.513824796874207704109134716862632,921.2,1.313824796874207704109134716862632
49,961.317987443765252078930249057509497,960.0,1.317987443765252078930249057509497
50,1000.92206563044338538119707659929013,999.6,1.32206563044338538119707659929013
51,1041.32606272032381442086861092095431,1040.0,1.32606272032381442086861092095431
52,1082.52998187966887989410615323126201,1081.2,1.32998187966887989410615323126201
53,1124.53382609271160636554583053439665,1123.2,1.33382609271160636554583053439665
54,1167.33759817535563784089523422873153,1166.0,1.33759817535563784089523422873153
55,1210.94130078760946439417045715768038,1209.6,1.34130078760946439417045715768038
56,1255.34493644489277074373149237903299,1254.0,1.34493644489277074373149237903299
57,1300.54850752833553870612658127612493,1299.2,1.34850752833553870612658127612493
58,1346.55201629417573827044337952525093,1345.2,1.35201629417573827044337952525093
59,1393.35546488234868808856871875330705,1392.0,1.35546488234868808856871875330705
60,1440.95885532435014166904232244801586,1439.6,1.35885532435014166904232244801586
61,1489.36218955044559133467143780432588,1488.0,1.36218955044559133467143780432588
62,1538.56546939628998099895008809963307,1537.2,1.36546939628998099895008809963307
63,1588.56869660901477692729672877439027,1587.2,1.36869660901477692729672877439027
64,1639.37187285283303316919556147589101,1638.0,1.37187285283303316919556147589101
65,1690.97499971420755350734944126747592,1689.6,1.37499971420755350734944126747592
66,1743.37807870662240443089303387041333,1742.0,1.37807870662240443089303387041333
67,1796.58111127499377134838704306047039,1795.2,1.38111127499377134838704306047039
68,1850.58409879975239409550314935988638,1849.2,1.38409879975239409550314935988638
69,1905.38704260062650512158327728330967,1904.0,1.38704260062650512158327728330967
70,1960.98994394015126547098909266662596,1959.6,1.38994394015126547098909266662596
71,2017.39280402692809497143097245284873,2016.0,1.39280402692809497143097245284873
72,2074.59562401865499479908278528726200,2073.2,1.39562401865499479908278528726200
73,2132.59840502494690758389037578364465,2131.2,1.39840502494690758389037578364465
74,2191.40114810996334136992776835768709,2190.0,1.40114810996334136992776835768709
75,2251.00385429485885264455676362438845,2249.6,1.40385429485885264455676362438845
76,2311.40652456007053409339074502298169,2310.0,1.40652456007053409339074502298169
77,2372.60915984745535033965066598880555,2371.2,1.40915984745535033965066598880555
78,2434.61176106228899912832304404807889,2433.2,1.41176106228899912832304404807889
79,2497.41432907513692859554153026014369,2496.0,1.41432907513692859554153026014369
80,2561.01686472360720313797250867910664,2559.6,1.41686472360720313797250867910664
81,2625.41936881399406105551396244361107,2624.0,1.41936881399406105551396244361107
82,2690.62184212282024569006650940759517,2689.2,1.42184212282024569006650940759517
83,2756.62428539828550304935110999188071,2755.2,1.42428539828550304935110999188071
84,2823.42669936162801461303645437004559,2822.0,1.42669936162801461303645437004559
85,2891.02908470840497474227068569543473,2889.6,1.42908470840497474227068569543473
86,2959.43144210969800624832701539884562,2958.0,1.43144210969800624832701539884562
87,3028.63377221324865020528034870197947,3027.2,1.43377221324865020528034870197947
88,3098.63607564452874271389971902122953,3097.2,1.43607564452874271389971902122953
89,3169.43835300775010782178718053717161,3168.0,1.43835300775010782178718053717161
90,3241.04060488681765258806954709872423,3239.6,1.44060488681765258806954709872423
91,3313.44283184622962882890607827601439,3312.0,1.44283184622962882890607827601439
92,3386.64503443192853778254080769594126,3385.2,1.44503443192853778254080769594126
93,3460.64721317210589167758049897904861,3459.2,1.44721317210589167758049897904861
94,3535.44936857796380325944693683429543,3534.0,1.44936857796380325944693683429543
95,3611.05150114443615317593080885975686,3609.6,1.45150114443615317593080885975686
96,3687.45361135087188330066384573964828,3686.0,1.45361135087188330066384573964828
97,3764.65569966168277973122577064301086,3763.2,1.45569966168277973122577064301086
98,3842.65776652695793632431199027406021,3841.2,1.45776652695793632431199027406021
99,3921.45981238304693615821011085471618,3920.0,1.45981238304693615821011085471618
100,4001.06183765311364197242166353244401,3999.6,1.46183765311364197242166353244401
101,4081.46384274766235733012160656971178,4080.0,1.46384274766235733012160656971178
102,4162.66582806503799467443350739106516,4161.2,1.46582806503799467443350739106516
103,4244.66779399190177853589348068921509,4243.2,1.46779399190177853589348068921509
104,4327.46974090368390488377683127036395,4326.0,1.46974090368390488377683127036395
105,4411.07166916501448454020928788806628,4409.6,1.47166916501448454020928788806628
106,4495.47357913013400781175218909993395,4494.0,1.47357913013400781175218909993395
107,4580.67547114328448941120489704907288,4579.2,1.47547114328448941120489704907288
108,4666.67734553908237350282108397522355,4665.2,1.47734553908237350282108397522355
109,4753.47920264287421011061230867092442,4752.0,1.47920264287421011061230867092442
110,4841.08104277107605170929594350106515,4839.6,1.48104277107605170929594350106515
111,4929.48286623149745295625655792791978,4928.0,1.48286623149745295625655792791978
112,5018.68467332365090708926675839478887,5017.2,1.48467332365090708926675839478887
113,5108.68646433904749697892829446793910,5107.2,1.48646433904749697892829446793910
114,5199.48823956147949006705074837004086,5198.0,1.48823956147949006705074837004086
115,5291.08999926729056597369153347220179,5289.6,1.48999926729056597369153347220179
116,5383.49174372563431722394490929753669,5382.0,1.49174372563431722394490929753669
117,5476.69347319872163183257145314005476,5475.2,1.49347319872163183257145314005476
118,5570.69518794205752545346646641970696,5569.2,1.49518794205752545346646641970696
119,5665.49688820466795708726036940196041,5664.0,1.49688820466795708726036940196041
120,5761.09857422931713649812173047929228,5759.6,1.49857422931713649812173047929228
121,5857.50024625271579322360219432414038,5856.0,1.50024625271579322360219432414038
122,5954.70190450572085814824120779330877,5953.2,1.50190450572085814824120779330877
123,6052.70354921352697641873111104453882,6051.2,1.50354921352697641873111104453882
124,6151.50518059585025279864573503245605,6150.0,1.50518059585025279864573503245605
125,6251.10679886710460099448833277306502,6249.6,1.50679886710460099448833277306502
126,6351.50840423657105328752906258682604,6350.0,1.50840423657105328752906258682604
127,6452.70999690856036622803116876619696,6451.2,1.50999690856036622803116876619696
128,6554.71157708256923556128933001937584,6553.2,1.51157708256923556128933001937584
129,6657.51314495343042148168025168958164,6656.0,1.51314495343042148168025168958164
130,6761.11470071145706692907313585258280,6759.6,1.51470071145706692907313585258280
131,6865.51624454258147623784601662068837,6864.0,1.51624454258147623784601662068837
132,6970.71777662848860647156979585690697,6969.2,1.51777662848860647156979585690697
133,7076.71929714674451199484983620056133,7075.2,1.51929714674451199484983620056133
134,7183.52080627091997155787903898702084,7182.0,1.52080627091997155787903898702084
135,7291.12230417070950906092623624743479,7289.6,1.52230417070950906092623624743479
136,7399.52379101204601547847181769901285,7398.0,1.52379101204601547847181769901285
137,7508.72526695721116611477883893880809,7507.2,1.52526695721116611477883893880809
138,7618.72673216494181375071189733198487,7617.2,1.52673216494181375071189733198487
139,7729.52818679053253613573281698379275,7728.0,1.52818679053253613573281698379275
140,7841.12963098593450083305100922079321,7839.6,1.52963098593450083305100922079321
141,7953.53106489985080586843529154417720,7952.0,1.53106489985080586843529154417720
142,8066.73248867782844655994900020423160,8065.2,1.53248867782844655994900020423160
143,8180.73390246234705025572119462144753,8179.2,1.53390246234705025572119462144753
144,8295.53530639290451352724920345178205,8294.0,1.53530639290451352724920345178205
145,8411.13670060609967217799007520693668,8409.6,1.53670060609967217799007520693668
146,8527.53808523571212655827347243694543,8526.0,1.53808523571212655827347243694543
147,8644.73946041277933647462045225801318,8643.2,1.53946041277933647462045225801318
148,8762.74082626567110102354376203564811,8761.2,1.54082626567110102354376203564811
149,8881.54218292016152515185801155268073,8880.0,1.54218292016152515185801155268073
150,9001.14353049949857658546812741094890,8999.6,1.54353049949857658546812741094890
151,9121.54486912447132904201501818879720,9120.0,1.54486912447132904201501818879720
152,9242.74619891347498202768896311537081,9241.2,1.54619891347498202768896311537081
153,9364.74751998257374616907685004317479,9363.2,1.54751998257374616907685004317479
154,9487.54883244556167798048172711888192,9486.0,1.54883244556167798048172711888192
155,9611.15013641402154230393092119982393,9609.6,1.55013641402154230393092119982393
156,9735.55143199738178028948883248904386,9734.0,1.55143199738178028948883248904386
157,9860.75271930297165396375528926135833,9859.2,1.55271930297165396375528926135833
158,9986.75399843607463920596289170756769,9985.2,1.55399843607463920596289170756769
159,10113.5552694999801308058430456972017,10112.0,1.5552694999801308058430456972017
160,10241.1565325960335259421719966093200,10239.6,1.5565325960335259421719966093200
161,10369.5577878236847445795153849612482,10368.0,1.5577878236847445795153849612482
162,10498.7590352805352462457080189353417,10497.2,1.5590352805352462457080189353417
163,10628.7602750623835980448316633664355,10627.2,1.5602750623835980448316633664355
164,10759.5615072632696485437892348471752,10758.0,1.5615072632696485437892348471752
165,10891.1627319755173561342282221065890,10889.6,1.5627319755173561342282221065890
166,11023.5639492897763223869729312064167,11022.0,1.5639492897763223869729312064167
167,11156.7651592950620776328950233179934,11155.2,1.5651592950620776328950233179934
168,11290.7663620787951614607837474089145,11289.2,1.5663620787951614607837474089145
169,11425.5675577268390431959898745348373,11424.0,1.5675577268390431959898745348373
170,11561.1687463235369221046886975621429,11559.6,1.5687463235369221046886975621429
171,11697.5699279517474475199865378279931,11696.0,1.5699279517474475199865378279931
172,11834.7711026928793967583403633979563,11833.2,1.5711026928793967583403633979563
173,11972.7722706269253462304715152070565,11971.2,1.5722706269253462304715152070565
174,12111.5734318324943715921862341652624,12110.0,1.5734318324943715921862341652624
175,12251.1745863868438109219774919739094,12249.6,1.5745863868438109219774919739094
176,12391.5757343659101206337493137214111,12390.0,1.5757343659101206337493137214111
177,12532.7768758443388573872390027899279,12531.2,1.5768758443388573872390027899279
178,12674.7780108955138151526185944002172,12673.2,1.5780108955138151526185944002172
179,12817.5791395915853438763591145362681,12816.0,1.5791395915853438763591145362681
180,12961.1802620034978806969449111333296,12959.6,1.5802620034978806969449111333296
181,13105.5813782010167163612659271246672,13104.0,1.5813782010167163612659271246672
182,13250.7824882527540245393690675850605,13249.2,1.5824882527540245393690675850605
183,13396.7835922261941770891982629175326,13395.2,1.5835922261941770891982629175326
184,13543.5846901877183695152668201339378,13542.0,1.5846901877183695152668201339378
185,13691.1857822026285784318579473619025,13689.6,1.5857822026285784318579473619025
186,13839.5868683351708720019007543550198,13838.0,1.5868683351708720019007543550198
187,13988.7879486485580971546155204149691,13987.2,1.5879486485580971546155204149691
188,14138.7890232049919590208982825634337,14137.2,1.5890232049919590208982825634337
189,14289.5900920656845163202567508585289,14288.0,1.5900920656845163202567508585289
190,14441.1911552908791083531644039710161,14439.6,1.5911552908791083531644039710161
191,14593.5922129398707328242411834116463,14592.0,1.5922129398707328242411834116463
192,14746.7932650710258908813948319197408,14745.2,1.5932650710258908813948319197408
193,14900.7943117418019176777720443287732,14899.2,1.5943117418019176777720443287732
194,15055.5953530087658118003800802132593,15054.0,1.5953530087658118003800802132593
195,15211.1963889276125815008930269511141,15209.6,1.5963889276125815008930269511141
196,15367.5974195531831214237775433895212,15366.0,1.5974195531831214237775433895212
197,15524.7984449394816342103763007683631,15523.2,1.5984449394816342103763007683631
198,15682.7994651396926111443284504444950,15681.2,1.5994651396926111443284504444950
199,15841.6004802061973846756726941867290,15840.0,1.6004802061973846756726941867290
200,16001.2014901905902667674072071104297,15999.6,1.6014901905902667674072071104297
201,16161.6024951436942840445949991799000,16160.0,1.6024951436942840445949991799000
202,16322.8034951155765231259334376737287,16321.2,1.6034951155765231259334376737287
203,16484.8044901555630967963668858044437,16483.2,1.6044901555630967963668858044437
204,16647.6054803122537426396110077288465,16646.0,1.6054803122537426396110077288465
205,16811.2064656335360641000028838540126,16809.6,1.6064656335360641000028838540126
206,16975.6074461665994269965902947215153,16974.0,1.6074461665994269965902947215153
207,17140.8084219579485173644052125905027,17139.2,1.6084219579485173644052125905027
208,17306.8093930534165748487629404608857,17305.2,1.6093930534165748487629404608857
209,17473.6103594981783073999664429657123,17472.0,1.6103594981783073999664429657123
210,17641.2113213367624987686847019674740,17639.6,1.6113213367624987686847019674740
211,17809.6122786130643161657572258227262,17808.0,1.6122786130643161657572258227262
212,17978.8132313703573283184671321875563,17977.2,1.6132313703573283184671321875563
213,18148.8141796513052383062257976847284,18147.2,1.6141796513052383062257976847284
214,18319.6151234979733461565355599035876,18318.0,1.6151234979733461565355599035876
215,18491.2160629518397404127840937595494,18489.6,1.6160629518397404127840937595494
216,18663.6169980538062326337883869252864,18662.0,1.6169980538062326337883869252864
217,18836.8179288442090387897381197590663,18835.2,1.6179288442090387897381197590663
218,19010.8188553628292165327505086817475,19009.2,1.6188553628292165327505086817475
219,19185.6197776489028616208900785377863,19184.0,1.6197776489028616208900785377863
220,19361.2206957411310760098562476064370,19359.6,1.6206957411310760098562476064370
221,19537.6216096776897055208748745552971,19536.0,1.6216096776897055208748745552971
222,19714.8225194962388642885728581746616,19713.2,1.6225194962388642885728581746616
223,19892.8234252339322395562593904487315,19891.2,1.6234252339322395562593904487315
224,20071.6243269274261918846832540187687,20070.0,1.6243269274261918846832540187687
225,20251.2252246128886533377735072127666,20249.6,1.6252246128886533377735072127666
226,20431.6261183260078271904551790950930,20430.0,1.6261183260078271904551790950930
227,20612.8270081020006978087409481210180,20611.2,1.6270081020006978087409481210180
228,20794.8278939756213525198609596427562,20793.2,1.6278939756213525198609596427562
229,20977.6287759811691226323435927451070,20976.0,1.6287759811691226323435927451070
230,21161.2296541524965483002750199043046,21159.6,1.6296541524965483002750199043046
231,21345.6305285230171690292212509192623,21344.0,1.6305285230171690292212509192623
232,21530.8313991257131502411726416807168,21529.2,1.6313991257131502411726416807168
233,21716.8322659931427408927005920054448,21715.2,1.6322659931427408927005920054448
234,21903.6331291574475783013291601554702,21902.0,1.6331291574475783013291601554702
235,22091.2339886503598333604020498977023,22089.6,1.6339886503598333604020498977023
236,22279.6348445032092058506754260211034,22278.0,1.6348445032092058506754260211034
237,22468.8356967469297734784890351646932,22467.2,1.6356967469297734784890351646932
238,22658.8365454120666963815362808586033,22657.2,1.6365454120666963815362808586033
