Eigenstate,Energy,Kinetic Energy,Potential Energy
1,0.500000000465051663443787332266742232,0.0,0.500000000465051663443787332266742232
2,1.84623094068677697042367005425705832,1.2,0.64623094068677697042367005425705832
3,3.93633761862220509444015767768445732,3.2,0.73633761862220509444015767768445732
4,6.79966529638842684057694037979384889,6.0,0.79966529638842684057694037979384889
5,10.4480466074613431192534144282818152,9.6,0.8480466074613431192534144282818152
6,14.8870660466617920848531328699964360,14.0,0.8870660466617920848531328699964360
7,20.1197208954596748885100529170475806,19.2,0.9197208954596748885100529170475806
8,26.1477839402494365151158183479587262,25.2,0.9477839402494365151158183479587262
9,32.9723836800483549885846305281664476,32.0,0.9723836800483549885846305281664476
10,40.5942803690128093807403001117828107,39.6,0.9942803690128093807403001117828107
11,49.0140095772900121759131207662346270,48.0,1.0140095772900121759131207662346270
12,58.2319624001899275729729630752407157,57.2,1.0319624001899275729729630752407157
13,68.2484329677832918088353148272983756,67.2,1.0484329677832918088353148272983756
14,79.0636479777580215672908312371062713,78.0,1.0636479777580215672908312371062713
15,90.6777858112335480704638463548128954,89.6,1.0777858112335480704638463548128954
16,103.090989337631356207876522082547434,102.0,1.090989337631356207876522082547434
17,116.303374748136550435268850738136266,115.2,1.103374748136550435268850738136266
18,130.315037806704095891130427170506017,129.2,1.115037806704095891130427170506017
19,145.126058373162825058346043348848942,144.0,1.126058373162825058346043348848942
20,160.736503740849395026960104852730014,159.6,1.136503740849395026960104852730014
21,177.146431142689999992939503689838741,176.0,1.146431142689999992939503689838741
22,194.355889662359122953568374947637187,193.2,1.155889662359122953568374947637187
23,212.364921712216069308258968700571273,211.2,1.164921712216069308258968700571273
24,231.173564190705396112104682816485504,230.0,1.173564190705396112104682816485504
25,250.781849399152844234167250553940716,249.6,1.181849399152844234167250553940716
26,271.189805775572930911631453391464310,270.0,1.189805775572930911631453391464310
27,292.397458487631529683860567964060537,291.2,1.197458487631529683860567964060537
28,314.404829916004913809195814836138600,313.2,1.204829916004913809195814836138600
29,337.211940051581711395983789287361689,336.0,1.211940051581711395983789287361689
30,360.818806824304732875001266484738667,359.6,1.218806824304732875001266484738667
31,385.225446377303692915426994238291491,384.0,1.225446377303692915426994238291491
32,410.431873296891949283790737562488653,409.2,1.231873296891949283790737562488653
33,436.438100806690733328066548844599686,435.2,1.238100806690733328066548844599686
34,463.244140932393800493231656556773756,462.0,1.244140932393800493231656556773756
35,490.850004642346234201695972116481158,489.6,1.250004642346234201695972116481158
36,519.255701968077657548030106262141130,518.0,1.255701968077657548030106262141130
37,548.461242108126022704788564757810928,547.2,1.261242108126022704788564757810928
38,578.466633517857729189933495670476707,577.2,1.266633517857729189933495670476707
39,609.271883987491973494418628197947280,608.0,1.271883987491973494418628197947280
40,640.877000710141411783061518301263582,639.6,1.277000710141411783061518301263582
41,673.281990341364467106635309210289880,672.0,1.281990341364467106635309210289880
42,706.486859051469619960446099402082355,705.2,1.286859051469619960446099402082355
43,740.491612571605534678827522585987602,739.2,1.291612571605534678827522585987602
44,775.296256234502780138750229309592137,774.0,1.296256234502780138750229309592137
45,810.900795010595333676165281362974651,809.6,1.300795010595333676165281362974651
46,847.305233540136920835641698050321341,846.0,1.305233540136920835641698050321341
47,884.509576161833766961151716581675362,883.2,1.309576161833766961151716581675362
48,922.513826938437750271309792034448658,921.2,1.313826938437750271309792034448658
49,961.317989679679283518231468974549589,960.0,1.317989679679283518231468974549589
50,1000.92206796286512861533038192131249,999.6,1.32206796286512861533038192131249
51,1041.32606515142088165674296413683984,1040.0,1.32606515142088165674296413683984
52,1082.52998441161952053664427818708680,1081.2,1.32998441161952053664427818708680
53,1124.53382872770495725807286408172278,1123.2,1.33382872770495725807286408172278
54,1167.33760091559197588934763169385404,1166.0,1.33760091559197588934763169385404
55,1210.94130363530046163358577688928532,1209.6,1.34130363530046163358577688928532
56,1255.34493940226175190665864639339207,1254.0,1.34493940226175190665864639339207
57,1300.54851059761774135376817689989448,1299.2,1.34851059761774135376817689989448
58,1346.55201947761857554851336901862344,1345.2,1.35201947761857554851336901862344
59,1393.35546818221201417102115826640672,1392.0,1.35546818221201417102115826640672
60,1440.95885874290651995400895972980312,1439.6,1.35885874290651995400895972980312
61,1489.36219308998056545813802651440328,1488.0,1.36219308998056545813802651440328
62,1538.56547305910234873290761659524417,1537.2,1.36547305910234873290761659524417
63,1588.56870039741686703032639411779488,1587.2,1.36870039741686703032639411779488
64,1639.37187676915098525868877719785027,1638.0,1.37187676915098525868877719785027
65,1690.97500376078160102382896892525878,1689.6,1.37500376078160102382896892525878
66,1743.37808288580716076618769940097812,1742.0,1.37808288580716076618769940097812
67,1796.58111558915851921072642454713283,1795.2,1.38111558915851921072642454713283
68,1850.58410325128137818593850407186849,1849.2,1.38410325128137818593850407186849
69,1905.38704719191922819751096896261020,1904.0,1.38704719191922819751096896261020
70,1960.98994867362278787395098041851552,1959.6,1.38994867362278787395098041851552
71,2017.39280890500933769779969551898712,2016.0,1.39280890500933769779969551898712
72,2074.59562904379304619370306355560734,2073.2,1.39562904379304619370306355560734
73,2132.59841019960533373824862947697596,2131.2,1.39841019960533373824862947697596
74,2191.40115343662250030795703031404092,2190.0,1.40115343662250030795703031404092
75,2251.00385977601621238075826374516170,2249.6,1.40385977601621238075826374516170
76,2311.40653019824099464956425299588175,2310.0,1.40653019824099464956425299588175
77,2372.60916564517156980817883515299602,2371.2,1.40916564517156980817883515299602
78,2434.61176702210172387164814128125099,2433.2,1.41176702210172387164814128125099
79,2497.41433519961532767320932631323464,2496.0,1.41433519961532767320932631323464
80,2561.01687101533920705439767694247840,2559.6,1.41687101533920705439767694247840
81,2625.41937527558670492344819926903660,2624.0,1.41937527558670492344819926903660
82,2690.62184875690001690662188614123994,2689.2,1.42184875690001690662188614123994
83,2756.62429220749869358335229831511862,2755.2,1.42429220749869358335229831511862
84,2823.42670634864107800444551520950514,2822.0,1.42670634864107800444551520950514
85,2891.02909187590488791644916848965149,2889.6,1.42909187590488791644916848965149
86,2959.43144946039263624997335457567363,2958.0,1.43144946039263624997335457567363
87,3028.63377974986712595900875135366992,3027.2,1.43377974986712595900875135366992
88,3098.63608336982183192060940149407949,3097.2,1.43608336982183192060940149407949
89,3169.43836092449059910221077906148408,3168.0,1.43836092449059910221077906148408
90,3241.04061299780074298718831982909447,3239.6,1.44061299780074298718831982909447
91,3313.44284015427331679727962461692234,3312.0,1.44284015427331679727962461692234
92,3386.64504293987402175301890482093247,3385.2,1.44504293987402175301890482093247
93,3460.64722188281797435835111078278785,3459.2,1.44722188281797435835111078278785
94,3535.44937749433130176692441704854903,3534.0,1.44937749433130176692441704854903
95,3611.05151026937231513360736606930888,3609.6,1.45151026937231513360736606930888
96,3687.45362068731480903273424589436793,3686.0,1.45362068731480903273424589436793
97,3764.65570921259585068255578585852712,3763.2,1.45570921259585068255578585852712
98,3842.65777629533024984115213021999565,3841.2,1.45777629533024984115213021999565
99,3921.45982237189374676696651910936210,3920.0,1.45982237189374676696651910936210
100,4001.06184786547680929678012023126928,3999.6,1.46184786547680929678012023126928
101,4081.46385318661080078988821474040917,4080.0,1.46385318661080078988821474040917
102,4162.66583873366815511260285755008130,4161.2,1.46583873366815511260285755008130
103,4244.66780489333808692368838342640698,4243.2,1.46780489333808692368838342640698
104,4327.46975204107925825672533195105283,4326.0,1.46975204107925825672533195105283
105,4411.07168054155072932173150425829385,4409.6,1.47168054155072932173150425829385
106,4495.47359074902243068423463632392415,4494.0,1.47359074902243068423463632392415
107,4580.67548300776631589813555072617344,4579.2,1.47548300776631589813555072617344
108,4666.67735765242927442925311982298779,4665.2,1.47735765242927442925311982298779
109,4753.47921500838881611302182850788448,4752.0,1.47921500838881611302182850788448
110,4841.08105539209247596979682308811358,4839.6,1.48105539209247596979682308811358
111,4929.48287911138182234014198863167856,4928.0,1.48287911138182234014198863167856
112,5018.68468646580190186896298307670617,5017.2,1.48468646580190186896298307670617
113,5108.68647774689689933167561221913151,5107.2,1.48647774689689933167561221913151
114,5199.48825323849274153797306494681344,5198.0,1.48825323849274153797306494681344
115,5291.09001321696733410038076961906092,5289.6,1.49001321696733410038076961906092
116,5383.49175795150907152327755761135798,5382.0,1.49175795150907152327755761135798
117,5476.69348770436422935519104016746064,5475.2,1.49348770436422935519104016746064
118,5570.69520273107380611621538942827031,5569.2,1.49520273107380611621538942827031
119,5665.49690328070034899882815669276675,5664.0,1.49690328070034899882815669276675
120,5761.09858959604527149830087673844828,5759.6,1.49858959604527149830087673844828
121,5857.50026191385713286181066850954132,5856.0,1.50026191385713286181066850954132
122,5954.70192046503133033238735461970517,5953.2,1.50192046503133033238735461970517
123,6052.70356547480162297106493750412863,6051.2,1.50356547480162297106493750412863
124,6151.50519716292388816096779403676468,6150.0,1.50519716292388816096779403676468
125,6251.10681574385248233097745744914236,6249.6,1.50681574385248233097745744914236
126,6351.50842142690956223950710717149525,6350.0,1.50842142690956223950710717149525
127,6452.71001441644770258121309201918560,6451.2,1.51001441644770258121309201918560
128,6554.71159491200612309247712854928320,6553.2,1.51159491200612309247712854928320
129,6657.51316310846082625845033826577182,6656.0,1.51316310846082625845033826577182
130,6761.11471919616892834279147391023166,6759.6,1.51471919616892834279147391023166
131,6865.51626336110745105732419654736157,6864.0,1.51626336110745105732419654736157
132,6970.71779578500682621185737711374445,6969.2,1.51779578500682621185737711374445
133,7076.71931664547935390304699418573909,7075.2,1.51931664547935390304699418573909
134,7183.52082611614284352546312215938851,7182.0,1.52082611614284352546312215938851
135,7291.12232436673964877991153348877462,7289.6,1.52232436673964877991153348877462
136,7399.52381156325130416678302777748961,7398.0,1.52381156325130416678302777748961
137,7508.72528786800895714451368841679213,7507.2,1.52528786800895714451368841679213
138,7618.72675343979977652151116304562082,7617.2,1.52675343979977652151116304562082
139,7729.52820843396951554426914274166318,7728.0,1.52820843396951554426914274166318
140,7841.12965300252139269870706172154876,7839.6,1.52965300252139269870706172154876
141,7953.53108729421144868456473270153247,7952.0,1.53108729421144868456473270153247
142,8066.73251145464052994972413961990576,8065.2,1.53251145464052994972413961990576
143,8180.73392562634304052146374627728841,8179.2,1.53392562634304052146374627728841
144,8295.53532994887259669233288248592435,8294.0,1.53532994887259669233288248592435
145,8411.13672455888471493090758889363958,8409.6,1.53672455888471493090758889363958
146,8527.53810959021665551928010996508279,8526.0,1.53810959021665551928010996508279
147,8644.73948517396453621651518547607970,8643.2,1.53948517396453621651518547607970
148,8762.74085143855783128964066541942800,8761.2,1.54085143855783128964066541942800
149,8881.54220850983135772604526324079410,8880.0,1.54220850983135772604526324079410
150,9001.14355651109485228145620735384526,8999.6,1.54355651109485228145620735384526
151,9121.54489556320023529146591243453753,9120.0,1.54489556320023529146591243453753
152,9242.74622578460665155988834351755967,9241.2,1.54622578460665155988834351755967
153,9364.74754729144337728819352183302443,9363.2,1.54754729144337728819352183302443
154,9487.54886019757067696025387516221433,9486.0,1.54886019757067696025387516221433
155,9611.15016461463868843384750439361782,9609.6,1.55016461463868843384750439361782
156,9735.55146065214441412121408020287491,9734.0,1.55146065214441412121408020287491
157,9860.75274841748688932167893040598922,9859.2,1.55274841748688932167893040598922
158,9986.75402801602059954138476881468769,9985.2,1.55402801602059954138476881468769
159,10113.5552995511072104904109338417130,10112.0,1.5552995511072104904109338417130
160,10241.1565631241656771128287807760947,10239.6,1.5565631241656771128287807760947
161,10369.5578188347207901643720590168519,10368.0,1.5578188347207901643720590168519
162,10498.7590667804502198179744391453696,10497.2,1.5590667804502198179744391453696
163,10628.7603070572301111702280444408256,10627.2,1.5603070572301111702280444408256
164,10759.5615397591792863057401876846751,10758.0,1.5615397591792863057401876846751
165,10891.1627649787021015406370127649346,10889.6,1.5627649787021015406370127649346
166,11023.5639828065300103825055249980796,11022.0,1.5639828065300103825055249980796
167,11156.7651933317618794614943733458261,11155.2,1.5651933317618794614943733458261
168,11290.7663966419031001446130398156537,11289.2,1.5663966419031001446130398156537
169,11425.5675928229035409191892706377876,11424.0,1.5675928229035409191892706377876
170,11561.1687819591943803132502376051281,11559.6,1.5687819591943803132502376051281
171,11697.5699641337238605727401122544130,11696.0,1.5699641337238605727401122544130
172,11834.7711394279919999885197793268371,11833.2,1.5711394279919999885197793268371
173,11972.7723079220842993026312689800227,11971.2,1.5723079220842993026312689800227
174,12111.5734696947044780653888149569976,12110.0,1.5734696947044780653888149569976
175,12251.1746248232062749572115872198629,12249.6,1.5746248232062749572115872198629
176,12391.5757733836243418114963193473679,12390.0,1.5757733836243418114963193473679
177,12532.7769154507042646300125781601727,12531.2,1.5769154507042646300125781601727
178,12674.7780510979317407772069653219805,12673.2,1.5780510979317407772069653219805
179,12817.5791803975609388314268893358614,12816.0,1.5791803975609388314268893358614
180,12961.1803034206420720736530010790688,12959.6,1.5803034206420720736530010790688
181,13105.5814202370482082976733101614692,13104.0,1.5814202370482082976733101614692
182,13250.7825309155013436736474826410219,13249.2,1.5825309155013436736474826410219
183,13396.7836355235977637521467754491013,13395.2,1.5836355235977637521467754491013
184,13543.5847341278327158893261707709669,13542.0,1.5847341278327158893261707709669
185,13691.1858267936244149418223588141405,13689.6,1.5858267936244149418223588141405
186,13839.5869135853374032418758988885261,13838.0,1.5869135853374032418758988885261
187,13988.7879945663052886965231316093739,13987.2,1.5879945663052886965231316093739
188,14138.7890697988528764920311918058029,14137.2,1.5890697988528764920311918058029
189,14289.5901393443177181811138061840356,14288.0,1.5901393443177181811138061840356
190,14441.1912032630710938520866357790070,14439.6,1.5912032630710938520866357790070
191,14593.5922616145384466523169005874859,14592.0,1.5922616145384466523169005874859
192,14746.7933144572192860997411258027271,14745.2,1.5933144572192860997411258027271
193,14900.7943618487065785397327182170500,14899.2,1.5943618487065785397327182170500
194,15055.5954038457056381434432697648169,15054.0,1.5954038457056381434432697648169
195,15211.1964405040525364373416575740005,15209.6,1.5964405040525364373416575740005
196,15367.5974718787320441152959928298967,15366.0,1.5974718787320441152959928298967
197,15524.7984980238951195701274557606594,15523.2,1.5984980238951195701274557606594
198,15682.7995189928759583705082196678986,15681.2,1.5995189928759583705082196678986
199,15841.6005348382086165832887150313574,15840.0,1.6005348382086165832887150313574
200,16001.2015456116432219501502135731522,15999.6,1.6015456116432219501502135731522
201,16161.6025513641617839662487937527003,16160.0,1.6025513641617839662487937527003
202,16322.8035521459936163109399956061351,16321.2,1.6035521459936163109399956061351
203,16484.8045480066303823619890134891098,16483.2,1.6045480066303823619890134891098
204,16647.6055389948407754877804313448917,16646.0,1.6055389948407754877804313448917
205,16811.2065251586848441655061738577575,16809.6,1.6065251586848441655061738577575
206,16975.6075065455279750298421248806300,16974.0,1.6075065455279750298421248806300
207,17140.8084832020545398118648498341028,17139.2,1.6084832020545398118648498341028
208,17306.8094551742812204821343851322406,17305.2,1.6094551742812204821343851322406
209,17473.6104225075700184369251447585367,17472.0,1.6104225075700184369251447585367
210,17641.2113852466409593230559959441299,17639.6,1.6113852466409593230559959441299
211,17809.6123434355845009640665178588969,17808.0,1.6123434355845009640665178588969
212,17978.8132971178736547227086343941623,17977.2,1.6132971178736547227086343941623
213,18148.8142463363758247897704686875660,18147.2,1.6142463363758247897704686875660
214,18319.6151911333643804914800083479757,18318.0,1.6151911333643804914800083479757
215,18491.2161315505299609429521700465393,18489.6,1.6161315505299609429521700465393
216,18663.6170676289915261282123074437486,18662.0,1.6170676289915261282123074437486
217,18836.8179994093071584970079711574414,18835.2,1.6179994093071584970079711574414
218,19010.8189269314846241873649005907546,19009.2,1.6189269314846241873649005907546
219,19185.6198502349916972888683622261488,19184.0,1.6198502349916972888683622261488
220,19361.2207693587662598026673119536400,19359.6,1.6207693587662598026673119536400
221,19537.6216843412261753544810324432700,19536.0,1.6216843412261753544810324432700
222,19714.8225952202789540183011342529251,19713.2,1.6225952202789540183011342529251
223,19892.8235020333312019786588284784935,19891.2,1.6235020333312019786588284784935
224,20071.6244048172978712647612558328520,20070.0,1.6244048172978712647612558328520
225,20251.2253036086113122944012441570799,20249.6,1.6253036086113122944012441570799
226,20431.6261984432301329545811095616976,20430.0,1.6261984432301329545811095616976
227,20612.8270893566478730587695621374988,20611.2,1.6270893566478730587695621374988
228,20794.8279763839014961964943115542996,20793.2,1.6279763839014961964943115542996
229,20977.6288595595797063417507272731995,20976.0,1.6288595595797063417507272731995
230,21161.2297389178310941300756442915989,21159.6,1.6297389178310941300756442915989
231,21345.6306144923721148269103959142127,21344.0,1.6306144923721148269103959142127
232,21530.8314863164949086397188982898710,21529.2,1.6314863164949086397188982898710
233,21716.8323544230749586136469874046723,21715.2,1.6323544230749586136469874046723
234,21903.6332188445786025223168085100609,21902.0,1.6332188445786025223168085100609
235,22091.2340796130703922022110445435809,22089.6,1.6340796130703922022110445435809
236,22279.6349367602203103192073552914634,22278.0,1.6349367602203103192073552914634
237,22468.8357903173108484901914430740579,22467.2,1.6357903173108484901914430740579
238,22658.8366403152439488073445141768912,22657.2,1.6366403152439488073445141768912
