Eigenstate,Energy,Kinetic Energy,Potential Energy
1,0.500000000017033613434455965777391558,0.0,0.500000000017033613434455965777391558
2,1.84623093776230112704476179821231480,1.2,0.64623093776230112704476179821231480
3,3.93633761003157666804576560748894081,3.2,0.73633761003157666804576560748894081
4,6.79966527849451058197393354169837142,6.0,0.79966527849451058197393354169837142
5,10.4480465764640538884593490625456211,9.6,0.8480465764640538884593490625456211
6,14.8870659986936733991539224641108072,14.0,0.8870659986936733991539224641108072
7,20.1197208266209773394638336329620973,19.2,0.9197208266209773394638336329620973
8,26.1477838466226194578470709587635091,25.2,0.9477838466226194578470709587635091
9,32.9723835577047126194365445516591437,32.0,0.9723835577047126194365445516591437
10,40.5942802140157256191132072983424786,39.6,0.9942802140157256191132072983424786
11,49.0140093856966282915349938700588164,48.0,1.0140093856966282915349938700588164
12,58.2319621680520007184789081763094918,57.2,1.0319621680520007184789081763094918
13,68.2484326911476128193424999302517098,67.2,1.0484326911476128193424999302517098
14,79.0636476526665788536576800924202289,78.0,1.0636476526665788536576800924202289
15,90.6777854337235380672163736552671162,89.6,1.0777854337235380672163736552671162
16,103.090988903735097161557866328557315,102.0,1.090988903735097161557866328557315
17,116.303374253881333040274110947201985,115.2,1.103374253881333040274110947201985
18,130.315037248111991293694876792623170,129.2,1.115037248111991293694876792623170
19,145.126057746250463210029905175341845,144.0,1.126057746250463210029905175341845
20,160.736503041627721835610446932355340,159.6,1.136503041627721835610446932355340
21,177.146430367164018907077523256306554,176.0,1.146430367164018907077523256306554
22,194.355888806527624822774898547587230,193.2,1.155888806527624822774898547587230
23,212.364920772071353189577782225283285,211.2,1.164920772071353189577782225283285
24,231.173563162232982908434146938312784,230.0,1.173563162232982908434146938312784
25,250.781848278331184515562288617219795,249.6,1.181848278331184515562288617219795
26,271.189804558373107898480870652587407,270.0,1.189804558373107898480870652587407
27,292.397457170016958107899694003108575,291.2,1.197457170016958107899694003108575
28,314.404828493931035179422295442173252,313.2,1.204828493931035179422295442173252
29,337.211938520995686058909251802497478,336.0,1.211938520995686058909251802497478
30,360.818805181145129157030659434296452,359.6,1.218805181145129157030659434296452
31,385.225444617500173559150572378214608,384.0,1.225444617500173559150572378214608
32,410.431871416364955332463122295068236,409.2,1.231871416364955332463122295068236
33,436.438098801351165568542972404306572,435.2,1.238098801351165568542972404306572
34,463.244138798142698533602120961628523,462.0,1.244138798142698533602120961628523
35,490.850002375074453233270675588460102,489.6,1.250002375074453233270675588460102
36,519.255699563665542820350988875445567,518.0,1.255699563665542820350988875445567
37,548.461239562443081725624839867042341,547.2,1.261239562443081725624839867042341
38,578.466630826762301648771198075481465,577.2,1.266630826762301648771198075481465
39,609.271881146830898897030335007968083,608.0,1.271881146830898897030335007968083
40,640.876997715749694775782607418745357,639.6,1.276997715749694775782607418745357
41,673.281987189064940461552426789074767,672.0,1.281987189064940461552426789074767
42,706.486855737072605186494009717008138,705.2,1.286855737072605186494009717008138
43,740.491609090908500218541468521084637,739.2,1.291609090908500218541468521084637
44,775.296252583289997105936643031005475,774.0,1.296252583289997105936643031005475
45,810.900791184637529085880140041972996,809.6,1.300791184637529085880140041972996
46,847.305229535190928274481938921176910,846.0,1.305229535190928274481938921176910
47,884.509571973642174642876912771334897,883.2,1.309571973642174642876912771334897
48,922.513822562728546420139666965412472,921.2,1.313822562728546420139666965412472
49,961.317985112165499019751059615922205,960.0,1.317985112165499019751059615922205
50,1000.92206319924447687272765491776719,999.6,1.32206319924447687272765491776719
51,1041.32606018737539558806307274346197,1040.0,1.32606018737539558806307274346197
52,1082.52997924281518664683941768246774,1081.2,1.32997924281518664683941768246774
53,1124.53382334979134671782820745370301,1123.2,1.33382334979134671782820745370301
54,1167.33759532420187255095022474670861,1166.0,1.33759532420187255095022474670861
55,1210.94129782604948691245708909107020,1209.6,1.34129782604948691245708909107020
56,1255.34493337074798645557661288539461,1254.0,1.34493337074798645557661288539461
57,1300.54850433942134345524879412131294,1299.2,1.34850433942134345524879412131294
58,1346.55201298830139614929158251795900,1345.2,1.35201298830139614929158251795900
59,1393.35546145731720848106321657868047,1392.0,1.35546145731720848106321657868047
60,1440.95885177795815553098804607656358,1439.6,1.35885177795815553098804607656358
61,1489.36218588048322669681025112299958,1488.0,1.36218588048322669681025112299958
62,1538.56546560054073767732817866835847,1537.2,1.36546560054073767732817866835847
63,1588.56869268525540042534300442760219,1587.2,1.36869268525540042534300442760219
64,1639.37186879883338775563468248350641,1638.0,1.37186879883338775563468248350641
65,1690.97499552773049445380644943630637,1689.6,1.37499552773049445380644943630637
66,1743.37807438542364939278610578887031,1742.0,1.37807438542364939278610578887031
67,1796.58110681682177087244732904895531,1795.2,1.38110681682177087244732904895531
68,1850.58409420234820123700648868165223,1849.2,1.38409420234820123700648868165223
69,1905.38703786172364415412426352424226,1904.0,1.38703786172364415412426352424226
70,1960.98993905747559967137797974177138,1959.6,1.38993905747559967137797974177138
71,2017.39279899819769346203983154390138,2016.0,1.39279899819769346203983154390138
72,2074.59561884157999842971686132883553,2073.2,1.39561884157999842971686132883553
73,2132.59839969722939383500535177649880,2131.2,1.39839969722939383500535177649880
74,2191.40114262929718825875988687508895,2190.0,1.40114262929718825875988687508895
75,2251.00384865892960161547456951804888,2249.6,1.40384865892960161547456951804888
76,2311.40651876655525187351887215616998,2310.0,1.40651876655525187351887215616998
77,2372.60915389402248974055269620504441,2371.2,1.40915389402248974055269620504441
78,2434.61175494659825877426517185551483,2433.2,1.41175494659825877426517185551483
79,2497.41432279483911155858962232673300,2496.0,1.41432279483911155858962232673300
80,2561.01685827634407445990283633482031,2559.6,1.41685827634407445990283633482031
81,2625.41936219739820413624021706177985,2624.0,1.41936219739820413624021706177985
82,2690.62183533451491752200500721626431,2689.2,1.42183533451491752200500721626431
83,2756.62427843588448827686016892696595,2755.2,1.42427843588448827686016892696595
84,2823.42669222273547839577542814461928,2822.0,1.42669222273547839577542814461928
85,2891.02907739061531440102837031335569,2889.6,1.42907739061531440102837031335569
86,2959.43143461059570167156920267683740,2958.0,1.43143461059570167156920267683740
87,3028.63376453040811299435893626434233,3027.2,1.43376453040811299435893626434233
88,3098.63606777551416404455510513907198,3097.2,1.43606777551416404455510513907198
89,3169.43834495011530499925765362645193,3168.0,1.43834495011530499925765362645193
90,3241.04059663810591427279836050981491,3239.6,1.44059663810591427279836050981491
91,3313.44282340397355890950650471222744,3312.0,1.44282340397355890950650471222744
92,3386.64502579364989787234435772905884,3385.2,1.44502579364989787234435772905884
93,3460.64720433531544221075047688476097,3459.2,1.44720433531544221075047688476097
94,3535.44935954016114316229067230362280,3534.0,1.44935954016114316229067230362280
95,3611.05149190310955808868752029818841,3609.6,1.45149190310955808868752029818841
96,3687.45360190349814232468289342881405,3686.0,1.45360190349814232468289342881405
97,3764.65569000572703067607835058391002,3763.2,1.45569000572703067607835058391002
98,3842.65775665987349942900355050814562,3841.2,1.45775665987349942900355050814562
99,3921.45980230227514626027371781970206,3920.0,1.45980230227514626027371781970206
100,4001.06182735608367909828114261163872,3999.6,1.46182735608367909828114261163872
101,4081.46383223179107567971119107127273,4080.0,1.46383223179107567971119107127273
102,4162.66581732772974997265225517781679,4161.2,1.46581732772974997265225517781679
103,4244.66778303054825372305618108620613,4243.2,1.46778303054825372305618108620613
104,4327.46972971566393411679529708367961,4326.0,1.46972971566393411679529708367961
105,4411.07165774769387547580527935081149,4409.6,1.47165774769387547580527935081149
106,4495.47356748086536214255937143230787,4494.0,1.47356748086536214255937143230787
107,4580.67545925940702162516407538417715,4579.2,1.47545925940702162516407538417715
108,4666.67733341792172783581202611257123,4665.2,1.47733341792172783581202611257123
109,4753.47919028174227566179361244366275,4752.0,1.47919028174227566179361244366275
110,4841.08103016727077568814385898722725,4839.6,1.48103016727077568814385898722725
111,4929.48285338230265202980253392429772,4928.0,1.48285338230265202980253392429772
112,5018.68466022633607679753200237992684,5017.2,1.48466022633607679753200237992684
113,5108.68645099086761918604325191681901,5107.2,1.48645099086761918604325191681901
114,5199.48822595967483841502418683434219,5198.0,1.48822595967483841502418683434219
115,5291.08998540908650930526170609679975,5289.6,1.48998540908650930526170609679975
116,5383.49172960824112094040086804152903,5382.0,1.49172960824112094040086804152903
117,5476.69345881933425715187768190156689,5475.2,1.49345881933425715187768190156689
118,5570.69517329785542653345648094236150,5569.2,1.49517329785542653345648094236150
119,5665.49687329281487597808655882490186,5664.0,1.49687329281487597808655882490186
120,5761.09855904696089588755774050880980,5759.6,1.49855904696089588755774050880980
121,5857.50023079698808693819036070327590,5856.0,1.50023079698808693819036070327590
122,5954.70188877373703937266231462424524,5953.2,1.50188877373703937266231462424524
123,6052.70353320238584359514385111007256,6051.2,1.50353320238584359514385111007256
124,6151.50516430263383316710213067832224,6150.0,1.50516430263383316710213067832224
125,6251.10678228887793173487444768722443,6249.6,1.50678228887793173487444768722443
126,6351.50838737038196022281146347494216,6350.0,1.50838737038196022281146347494216
127,6452.70997975143924004790539935085063,6451.2,1.50997975143924004790539935085063
128,6554.71155963152880552462825068037839,6553.2,1.51155963152880552462825068037839
129,6657.51312720546552655546697585225284,6656.0,1.51312720546552655546697585225284
130,6761.11468266354442432077533759357905,6759.6,1.51468266354442432077533759357905
131,6865.51622619167944727744402061647006,6864.0,1.51622619167944727744402061647006
132,6970.71775797153695979868981487757617,6969.2,1.51775797153695979868981487757617
133,7076.71927818066418400568075406615023,7075.2,1.51927818066418400568075406615023
134,7183.52078699261282406575517448138974,7182.0,1.52078699261282406575517448138974
135,7291.12228457705808412365021396308802,7289.6,1.52228457705808412365021396308802
136,7399.52377109991328734462491608681614,7398.0,1.52377109991328734462491608681614
137,7508.72524672344029024041947336231189,7507.2,1.52524672344029024041947336231189
138,7618.72671160635587283700158213670238,7617.2,1.52671160635587283700158213670238
139,7729.52816590393428313714524870267207,7728.0,1.52816590393428313714524870267207
140,7841.12960976810609888491912150607652,7839.6,1.52960976810609888491912150607652
141,7953.53104334755356508167147883377418,7952.0,1.53104334755356508167147883377418
142,8066.73246678780255762983188415463101,8065.2,1.53246678780255762983188415463101
143,8180.73388023131131483068029045361869,8179.2,1.53388023131131483068029045361869
144,8295.53528381755607128259730165322173,8294.0,1.53528381755607128259730165322173
145,8411.13667768311372453855032386075761,8409.6,1.53667768311372453855032386075761
146,8527.53806196174165701281929893163844,8526.0,1.53806196174165701281929893163844
147,8644.73943678445482742399975890681117,8643.2,1.53943678445482742399975890681117
148,8762.74080227960024710328763234904428,8761.2,1.54080227960024710328763234904428
149,8881.54215857292894296897587762521281,8880.0,1.54215857292894296897587762521281
150,9001.14350578766551080801589457908515,8999.6,1.54350578766551080801589457908515
151,9121.54484404457535477887284229409015,9120.0,1.54484404457535477887284229409015
152,9242.74617346202970343481936759722030,9241.2,1.54617346202970343481936759722030
153,9364.74749415606849121733557033362402,9363.2,1.54749415606849121733557033362402
154,9487.54880624046118931883103772030098,9486.0,1.54880624046118931883103772030098
155,9611.15010982676566415065500562154106,9609.6,1.55010982676566415065500562154106
156,9735.55140502438514128273062878244643,9734.0,1.55140502438514128273062878244643
157,9860.75269194062334590138931474209835,9859.2,1.55269194062334590138931474209835
158,9986.75397068073789160347859410659461,9985.2,1.55397068073789160347859410659461
159,10113.5552413479919811995490078104982,10112.0,1.5552413479919811995490078104982
160,10241.1565040437044858636297424051631,10239.6,1.5565040437044858636297424051631
161,10369.5577588672984611256840571156211,10368.0,1.5577588672984611256840571156211
162,10498.7590059163481591678158767354058,10497.2,1.5590059163481591678158767354058
163,10628.7602452866245922774969499297466,10627.2,1.5602452866245922774969499297466
164,10759.5614770721397020943794994710423,10758.0,1.5614770721397020943794994710423
165,10891.1627013651891832508820977264914,10889.6,1.5627013651891832508820977264914
166,11023.5639182563940119221074718929424,11022.0,1.5639182563940119221074718929424
167,11156.7651278347407265173816950689433,11155.2,1.5651278347407265173816950689433
168,11290.7663301876205032022982724343075,11289.2,1.5663301876205032022982724343075
169,11425.5675254008670713133276909589724,11424.0,1.5675254008670713133276909589724
170,11561.1687135587935084080781080870997,11559.6,1.5687135587935084080781080870997
171,11697.5698947442279551456379327376623,11696.0,1.5698947442279551456379327376623
172,11834.7710690385482878636281475444318,11833.2,1.5710690385482878636281475444318
173,11972.7722365217157842542650741359861,11971.2,1.5722365217157842542650741359861
174,12111.5733972723078179829174832849293,12110.0,1.5733972723078179829174832849293
175,12251.1745513675496162340609356697198,12249.6,1.5745513675496162340609356697198
176,12391.5756988833451098909520557136895,12390.0,1.5756988833451098909520557136895
177,12532.7768398943069096095300631811886,12531.2,1.5768398943069096095300631811886
178,12674.7779744737854369409115721669114,12673.2,1.5779744737854369409115721669114
179,12817.5791026938972369473942743300232,12816.0,1.5791026938972369473942743300232
180,12961.1802246255525032583382106315410,12959.6,1.5802246255525032583382106315410
181,13105.5813403384818382144804890063697,13104.0,1.5813403384818382144804890063697
182,13250.7824499012622757960385580523057,13249.2,1.5824499012622757960385580523057
183,13396.7835533813425903838456182272390,13395.2,1.5835533813425903838456182272390
184,13543.5846508450679155950238153523819,13542.0,1.5846508450679155950238153523819
185,13691.1857423577036950012880397844720,13689.6,1.5857423577036950012880397844720
186,13839.5868279834589856984691278755206,13838.0,1.5868279834589856984691278755206
187,13988.7879077855091385277232012972507,13987.2,1.5879077855091385277232012972507
188,14138.7889818260178703847107550344388,14137.2,1.5889818260178703847107550344388
189,14289.5900501661587523478022536063155,14288.0,1.5900501661587523478022536063155
190,14441.1911128661361292763538799056639,14439.6,1.5911128661361292763538799056639
191,14593.5921699852054901015708445205359,14592.0,1.5921699852054901015708445205359
192,14746.7932215816933051921261101267056,14745.2,1.5932215816933051921261101267056
193,14900.7942677130163490983467761090174,14899.2,1.5942677130163490983467761090174
194,15055.5953084357005220157143941966851,15054.0,1.5953084357005220157143941966851
195,15211.1963438053991879000010539276681,15209.6,1.5963438053991879000010539276681
196,15367.5973738769110429259036679590939,15366.0,1.5973738769110429259036679590939
197,15524.7983987041975286644594730476640,15523.2,1.5983987041975286644594730476640
198,15682.7994183403998041411836339681340,15681.2,1.5994183403998041411836339681340
199,15841.6004328378552896087442092644653,15840.0,1.6004328378552896087442092644653
200,16001.2014422481137959743351682323229,15999.6,1.6014422481137959743351682323229
201,16161.6024466219532508581260293231124,16160.0,1.6024466219532508581260293231124
202,16322.8034460093950346588991714873942,16321.2,1.6034460093950346588991714873942
203,16484.8044404597189372815565471499333,16483.2,1.6044404597189372815565471499333
204,16647.6054300214777471413570694440848,16646.0,1.6054300214777471413570694440848
205,16811.2064147425114824101964108967286,16809.6,1.6064147425114824101964108967286
206,16975.6073946699612775236258398617238,16974.0,1.6073946699612775236258398617238
207,17140.8083698502829308192352837240393,17139.2,1.6083698502829308192352837240393
208,17306.8093403292601275278050193044691,17305.2,1.6093403292601275278050193044691
209,17473.6103061520173438600531999560678,17472.0,1.6103061520173438600531999560678
210,17641.2112673630324436845780412376920,17639.6,1.6112673630324436845780412376920
211,17809.6122240061489751559507125721986,17808.0,1.6122240061489751559507125721986
212,17978.8131761245881775200807733981178,17977.2,1.6131761245881775200807733981178
213,18148.8141237609607024747417343499199,18147.2,1.6141237609607024747417343499199
214,18319.6150669572780650609400084580166,18318.0,1.6150669572780650609400084580166
215,18491.2160057549638232913515867613006,18489.6,1.6160057549638232913515867613006
216,18663.6169401948645004702766349112208,18662.0,1.6169401948645004702766349112208
217,18836.8178703172602541641470939855130,18835.2,1.6178703172602541641470939855130
218,19010.8187961618753007950298642161953,19009.2,1.6187961618753007950298642161953
219,19185.6197177678880991300540619337321,19184.0,1.6197177678880991300540619337321
220,19361.2206351739413051748826483137980,19359.6,1.6206351739413051748826483137980
221,19537.6215484181514963735105962422325,19536.0,1.6215484181514963735105962422325
222,19714.8224575381186823117473237117573,19713.2,1.6224575381186823117473237117573
223,19892.8233625709355954852067366338285,19891.2,1.6233625709355954852067366338285
224,20071.6242635531967771910950869808050,20070.0,1.6242635531967771910950869808050
225,20251.2251605210074611003311361864634,20249.6,1.6251605210074611003311361864634
226,20431.6260535099922580479312544951875,20430.0,1.6260535099922580479312544951875
227,20612.8269425553036506844977139217973,20611.2,1.6269425553036506844977139217973
228,20794.8278276916302997990011576180469,20793.2,1.6278276916302997990011576180469
229,20977.6287089532051694649922375933524,20976.0,1.6287089532051694649922375933524
230,21161.2295863738134756964703877999117,21159.6,1.6295863738134756964703877999117
231,21345.6304599868004604026637964240452,21344.0,1.6304599868004604026637964240452
232,21530.8313298250790010506247684885726,21529.2,1.6313298250790010506247684885726
233,21716.8321959211370510211282801916394,21715.2,1.6321959211370510211282801916394
234,21903.6330583070449268039227151468778,21902.0,1.6330583070449268039227151468778
235,22091.2339170144624352034158994543604,22089.6,1.6339170144624352034158994543604
236,22279.6347720746458502535474587268112,22278.0,1.6347720746458502535474587268112
237,22468.8356235184547434619570494298230,22467.2,1.6356235184547434619570494298230
238,22658.8364713763586691144417817552148,22657.2,1.6364713763586691144417817552148
