Eigenstate,Energy,Kinetic Energy,Potential Energy
1,0.500000000038286835184054248402116360,0.0,0.500000000038286835184054248402116360
2,1.84623093790103110467128078195192556,1.2,0.64623093790103110467128078195192556
3,3.93633761043908488306697086739204614,3.2,0.73633761043908488306697086739204614
4,6.79966527934330394803613981544691617,6.0,0.79966527934330394803613981544691617
5,10.4480465779343383222708510139859136,9.6,0.8480465779343383222708510139859136
6,14.8870660009688090320332161676090523,14.0,0.8870660009688090320332161676090523
7,20.1197208298858037374112541684460557,19.2,0.9197208298858037374112541684460557
8,26.1477838510627569494305923355780361,25.2,0.9477838510627569494305923355780361
9,32.9723835635062372108071794610377459,32.0,0.9723835635062372108071794610377459
10,40.5942802213650038131009973987838269,39.6,0.9942802213650038131009973987838269
11,49.0140093947802271822259468542113582,48.0,1.0140093947802271822259468542113582
12,58.2319621790566364449819845320077353,57.2,1.0319621790566364449819845320077353
13,68.2484327042601199023942652902834648,67.2,1.0484327042601199023942652902834648
14,79.0636476680738915502875638921060258,78.0,1.0636476680738915502875638921060258
15,90.6777854516126789756408629413392050,89.6,1.0777854516126789756408629413392050
16,103.090988924293170380280169556651916,102.0,1.090988924293170380280169556651916
17,116.303374277295520289614718832862895,115.2,1.103374277295520289614718832862895
18,130.315037274569550023989654655477550,129.2,1.115037274569550023989654655477550
19,145.126057775938726078351441795675795,144.0,1.126057775938726078351441795675795
20,160.736503074734097147894713837273980,159.6,1.136503074734097147894713837273980
21,177.146430403875991755910500506932269,176.0,1.146430403875991755910500506932269
22,194.355888847032758736145140337051047,193.2,1.155888847032758736145140337051047
23,212.364920816557292161502737979521492,211.2,1.164920816557292161502737979521492
24,231.173563210887453719540620323307837,230.0,1.173563210887453719540620323307837
25,250.781848331341999277062104909087590,249.6,1.181848331341999277062104909087590
26,271.189804615928166770606749529978636,270.0,1.189804615928166770606749529978636
27,292.397457232304252156321541509600422,291.2,1.197457232304252156321541509600422
28,314.404828561138649342103173112799026,313.2,1.204828561138649342103173112799026
29,337.211938593311802202367304701366549,336.0,1.211938593311802202367304701366549
30,360.818805258758029205772204240367735,359.6,1.218805258758029205772204240367735
31,385.225444700598242685621765241278370,384.0,1.225444700598242685621765241278370
32,410.431871505136685197571682855801718,409.2,1.231871505136685197571682855801718
33,436.438098895985157604864011655798552,435.2,1.238098895985157604864011655798552
34,463.244138898827667264970681780371313,462.0,1.244138898827667264970681780371313
35,490.850002481999229625698240366102695,489.6,1.250002481999229625698240366102695
36,519.255699677019077660170915279640227,518.0,1.255699677019077660170915279640227
37,548.461239682414449021536289256057621,547.2,1.261239682414449021536289256057621
38,578.466630953540702055059717511300078,577.2,1.266630953540702055059717511300078
39,609.271881280605663155731107772144316,608.0,1.271881280605663155731107772144316
40,640.876997856710287175946119177229182,639.6,1.276997856710287175946119177229182
41,673.281987337400962314091940042344256,672.0,1.281987337400962314091940042344256
42,706.486855892973798313355430513726179,705.2,1.286855892973798313355430513726179
43,740.491609254564750455150715326809617,739.2,1.291609254564750455150715326809617
44,775.296252754891337816056803581244082,774.0,1.296252754891337816056803581244082
45,810.900791364374144688157790953889725,809.6,1.300791364374144688157790953889725
46,847.305229723253157780084719572723964,846.0,1.305229723253157780084719572723964
47,884.509572170220515203727238558339344,883.2,1.309572170220515203727238558339344
48,922.513822768013656887336065002113724,921.2,1.313822768013656887336065002113724
49,961.317985326348203511841759057483444,960.0,1.317985326348203511841759057483444
50,1000.92206342251576835356317450294622,999.6,1.32206342251576835356317450294622
51,1041.32606041992643945400752418196752,1040.0,1.32606041992643945400752418196752
52,1082.52997948483732432316550443643519,1081.2,1.32997948483732432316550443643519
53,1124.53382360147609926415977750491676,1123.2,1.33382360147609926415977750491676
54,1167.33759558574094427564977551022597,1166.0,1.33759558574094427564977551022597
55,1210.94129809763476899588458203641376,1209.6,1.34129809763476899588458203641376
56,1255.34493365257156058217111432123886,1254.0,1.34493365257156058217111432123886
57,1300.54850463167548545440630889587150,1299.2,1.34850463167548545440630889587150
58,1346.55201329117857964503165539205703,1345.2,1.35201329117857964503165539205703
59,1393.35546177101010855049353247908890,1392.0,1.35546177101010855049353247908890
60,1440.95885210265965237159105798154020,1439.6,1.35885210265965237159105798154020
61,1489.36218621638640930258879989411964,1488.0,1.36218621638640930258879989411964
62,1538.56546594783890752385863162378323,1537.2,1.36546594783890752385863162378323
63,1588.56869304414207516379457177730956,1587.2,1.36869304414207516379457177730956
64,1639.37186916950230491582265592663281,1638.0,1.37186916950230491582265592663281
65,1690.97499591037561515635524167308599,1689.6,1.37499591037561515635524167308599
66,1743.37807478023916207048520652054251,1742.0,1.37807478023916207048520652054251
67,1796.58110722400209500088982064925566,1795.2,1.38110722400209500088982064925566
68,1850.58409462208799107460562790318280,1849.2,1.38409462208799107460562790318280
69,1905.38703829421779249160902802821577,1904.0,1.38703829421779249160902802821577
70,1960.98993950291924159087315604822470,1959.6,1.38993950291924159087315604822470
71,2017.39279945678621010584081399129156,2016.0,1.39279945678621010584081399129156
72,2074.59561931350902077887313984382995,2073.2,1.39561931350902077887313984382995
73,2132.59840018269480649783050356943202,2131.2,1.39840018269480649783050356943202
74,2191.40114312849513326938917927040467,2190.0,1.40114312849513326938917927040467
75,2251.00384917205648224259446429770004,2249.6,1.40384917205648224259446429770004
76,2311.40651929380773643939554303474545,2310.0,1.40651929380773643939554303474545
77,2372.60915443559751545048941141644769,2371.2,1.40915443559751545048941141644769
78,2434.61175550269303555662089214617393,2433.2,1.41175550269303555662089214617393
79,2497.41432336565112591549352445022883,2496.0,1.41432336565112591549352445022883
80,2561.01685886207109332880160535724064,2559.6,1.41685886207109332880160535724064
81,2625.41936279823827876241713987211351,2624.0,1.41936279823827876241713987211351
82,2690.62183595066638734221177845176384,2689.2,1.42183595066638734221177845176384
83,2756.62427906754598481420422511353589,2755.2,1.42427906754598481420422511353589
84,2823.42669287010592916600739539145724,2822.0,1.42669287010592916600739539145724
85,2891.02907805389394683037594037774938,2889.6,1.42907805389394683037594037774938
86,2959.43143528998204702626530163746401,2958.0,1.43143528998204702626530163746401
87,3028.63376522610201032201374276212923,3027.2,1.43376522610201032201374276212923
88,3098.63606848771576412752288533471927,3097.2,1.43606848771576412752288533471927
89,3169.43834567902507432015089899483896,3168.0,1.43834567902507432015089899483896
90,3241.04059738392463899230310763127369,3239.6,1.44059738392463899230310763127369
91,3313.44282416690234885665414953942311,3312.0,1.44282416690234885665414953942311
92,3386.64502657389019054739658162369612,3385.2,1.44502657389019054739658162369612
93,3460.64720513306900680085524804531052,3459.2,1.44720513306900680085524804531052
94,3535.44936035563008457006858913607388,3534.0,1.44936035563008457006858913607388
95,3611.05149273649632097390905654433343,3609.6,1.45149273649632097390905654433343
96,3687.45360275500551515919829185690255,3686.0,1.45360275500551515919829185690255
97,3764.65569087555814981216328242322307,3763.2,1.45569087555814981216328242322307
98,3842.65775754823185318128473897038184,3841.2,1.45775754823185318128473897038184
99,3921.45980320936457900140008042136510,3920.0,1.45980320936457900140008042136510
100,4001.06182828210839536850711289496713,3999.6,1.46182828210839536850711289496713
101,4081.46383317695564431056015111451428,4080.0,1.46383317695564431056015111451428
102,4162.66581829223910822482917406789925,4161.2,1.46581829223910822482917406789925
103,4244.66778401460771143877971072961110,4243.2,1.46778401460771143877971072961110
104,4327.46973071947917788672089923204893,4326.0,1.46973071947917788672089923204893
105,4411.07165877147097282071198273028837,4409.6,1.47165877147097282071198273028837
106,4495.47356852481076570997406363911285,4494.0,1.47356852481076570997406363911285
107,4580.67546032372757340109837928245684,4579.2,1.47546032372757340109837928245684
108,4666.67733450282466337178797765842056,4665.2,1.47733450282466337178797765842056
109,4753.47919138743522831733565209767786,4752.0,1.47919138743522831733565209767786
110,4841.08103129396178088891571303573945,4839.6,1.48103129396178088891571303573945
111,4929.48285453020015154156889153255382,4928.0,1.48285453020015154156889153255382
112,5018.68466139564892301612603436552266,5017.2,1.48466139564892301612603436552266
113,5108.68645218180507944352224267172246,5107.2,1.48645218180507944352224267172246
114,5199.48822717244659930219679481099738,5198.0,1.48822717244659930219679481099738
115,5291.08998664390268101077160166020040,5289.6,1.48998664390268101077160166020040
116,5383.49173086531224160655273071596881,5382.0,1.49173086531224160655273071596881
117,5476.69346009887129724739277411524190,5475.2,1.49346009887129724739277411524190
118,5570.69517460006979324334629827180737,5569.2,1.49517460006979324334629827180737
119,5665.49687461791841761083429315886206,5664.0,1.49687461791841761083429315886206
120,5761.09856039516590629979866421533567,5759.6,1.49856039516590629979866421533567
121,5857.50023216850730997708341303974625,5856.0,1.50023216850730997708341303974625
122,5954.70189016878367333614651694997964,5953.2,1.50189016878367333614651694997964
123,6052.70353462117354571027453878726601,6051.2,1.50353462117354571027453878726601
124,6151.50516574537672408666323962996570,6150.0,1.50516574537672408666323962996570
125,6251.10678375579060005246447829775112,6249.6,1.50678375579060005246447829775112
126,6351.50838886167946700660209758434406,6350.0,1.50838886167946700660209758434406
127,6452.70998126733712339327307409463770,6451.2,1.50998126733712339327307409463770
128,6554.71156117224308512586043419037992,6553.2,1.51156117224308512586043419037992
129,6657.51312877121270829674622300885345,6656.0,1.51312877121270829674622300885345
130,6761.11468425454150488664561046479478,6759.6,1.51468425454150488664561046479478
131,6865.51622780814391878296517865038592,6864.0,1.51622780814391878296517865038592
132,6970.71775961368681443948776720418535,6969.2,1.51775961368681443948776720418535
133,7076.71927984871791872810187720280815,7075.2,1.51927984871791872810187720280815
134,7183.52078868678944525733539345271337,7182.0,1.52078868678944525733539345271337
135,7291.12228629757711232411053563171147,7289.6,1.52228629757711232411053563171147
136,7399.52377284699476197760653249713925,7398.0,1.52377284699476197760653249713925
137,7508.72524849730477436617332335856323,7507.2,1.52524849730477436617332335856323
138,7618.72671340722445792624854601466010,7617.2,1.52671340722445792624854601466010
139,7729.52816773202859386632492926731988,7728.0,1.52816773202859386632492926731988
140,7841.12961162364829795304654092735062,7839.6,1.52961162364829795304654092735062
141,7953.53104523076635804902263334201613,7952.0,1.53104523076635804902263334201613
142,8066.73246869890919777868082721685325,8065.2,1.53246869890919777868082721685325
143,8180.73388217053560804831179787698179,8179.2,1.53388217053560804831179787698179
144,8295.53528578512238096682109935596932,8294.0,1.53528578512238096682109935596932
145,8411.13667967924697652594419843105423,8409.6,1.53667967924697652594419843105423
146,8527.53806398666734452993028573493700,8526.0,1.53806398666734452993028573493700
147,8644.73943883839901606173425340688571,8643.2,1.53943883839901606173425340688571
148,8762.74080436278957981472290208873012,8761.2,1.54080436278957981472290208873012
149,8881.54216068559064509082726629785304,8880.0,1.54216068559064509082726629785304
150,9001.14350793002739510599562883581864,8999.6,1.54350793002739510599562883581864
151,9121.54484621686582651717833022888186,9120.0,1.54484621686582651717833022888186
152,9242.74617566447776546999039895147917,9241.2,1.54617566447776546999039895147917
153,9364.74749638890374911672187690003129,9363.2,1.54749638890374911672187690003129
154,9487.54880850391385650391325502893014,9486.0,1.54880850391385650391325502893014
155,9611.15011212106656706546408206449100,9609.6,1.55011212106656706546408206449100
156,9735.55140734976572458761266322931861,9734.0,1.55140734976572458761266322931861
157,9860.75269429731567769236439809659987,9859.2,1.55269429731567769236439809659987
158,9986.75397306897466865744443514667140,9985.2,1.55397306897466865744443514667140
159,10113.5552437680065342455818799138477,10112.0,1.5552437680065342455818799138477
160,10241.1565064957307848806373202761365,10239.6,1.5565064957307848806373202761365
161,10369.5577613515711206666666016904214,10368.0,1.5577613515711206666666016904214
162,10498.7590084331024437109943730344640,10497.2,1.5590084331024437109943730344640
163,10628.7602478360964216045685147048884,10627.2,1.5602478360964216045685147048884
164,10759.5614796545656566961628059160962,10758.0,1.5614796545656566961628059160962
165,10891.1627039808065097606173919563700,10889.6,1.5627039808065097606173919563700
166,11023.5639209054406285766777776767876,11022.0,1.5639209054406285766777776767876
167,11156.7651305174552286467240913911886,11155.2,1.5651305174552286467240913911886
168,11290.7663329042421687472762296109780,11289.2,1.5663329042421687472762296109780
169,11425.5675281516358663723373632215981,11424.0,1.5675281516358663723373632215981
170,11561.1687163439500928126641418715251,11559.6,1.5687163439500928126641418715251
171,11697.5698975640136880653960083345223,11696.0,1.5698975640136880653960083345223
172,11834.7710718932052334406741199800981,11833.2,1.5710718932052334406741199800981
173,11972.7722394114867172675525773264518,11971.2,1.5722394114867172675525773264518
174,12111.5734001974362295426882593581354,12110.0,1.5734001974362295426882593581354
175,12251.1745543282797195067144974927080,12249.6,1.5745543282797195067144974927080
176,12391.5757018799218458546234661285963,12390.0,1.5757018799218458546234661285963
177,12532.7768429269759528406671213261522,12531.2,1.5768429269759528406671213261522
178,12674.7779775427932014321450011978800,12673.2,1.5779775427932014321450011978800
179,12817.5791057994908819569969499409600,12816.0,1.5791057994908819569969499409600
180,12961.1802277679799391915718682475658,12959.6,1.5802277679799391915718682475658
181,13105.5813435179917325371308990303396,13104.0,1.5813435179917325371308990303396
182,13250.7824531181040589804425348341982,13249.2,1.5824531181040589804425348341982
183,13396.7835566357664618877158110150939,13395.2,1.5835566357664618877158110150939
184,13543.5846541373248498733798238498227,13542.0,1.5846541373248498733798238498227
185,13691.1857456880454475518049337474740,13689.6,1.5857456880454475518049337474740
186,13839.5868313521380991405569761111161,13838.0,1.5868313521380991405569761111161
187,13988.7879111927789487156540121959455,13987.2,1.5879111927789487156540121959455
188,14138.7889852721325125551117826757493,14137.2,1.5889852721325125551117826757493
189,14289.5900536513731673018373233993752,14288.0,1.5900536513731673018373233993752
190,14441.1911163907060695969172309408379,14439.6,1.5911163907060695969172309408379
191,14593.5921735493875264058205703085710,14592.0,1.5921735493875264058205703085710
192,14746.7932251857448324196872424825634,14745.2,1.5932251857448324196872424825634
193,14900.7942713571955928355167011164660,14899.2,1.5942713571955928355167011164660
194,15055.5953121202665448560063446165942,15054.0,1.5953121202665448560063446165942
195,15211.1963475306118958413641187744687,15209.6,1.5963475306118958413641187744687
196,15367.5973776430311918049607505551815,15366.0,1.5973776430311918049607505551815
197,15524.7984025114867306281076931759326,15523.2,1.5984025114867306281076931759326
198,15682.7994221891205341559043932487130,15681.2,1.5994221891205341559043932487130
199,15841.6004367282708920079734554179779,15840.0,1.6004367282708920079734554179779
200,16001.2014461804884910442472711194206,15999.6,1.6014461804884910442472711194206
201,16161.6024505965521414621876640101851,16160.0,1.6024505965521414621876640101851
202,16322.8034500264841129015531100770939,16321.2,1.6034500264841129015531100770939
203,16484.8044445195650912113979541230913,16483.2,1.6044445195650912113979541230913
204,16647.6054341243487674941684490290508,16646.0,1.6054341243487674941684490290508
205,16811.2064188886760693922103578939259,16809.6,1.6064188886760693922103578939259
206,16975.6073988596890476353880942060136,16974.0,1.6073988596890476353880942060136
207,17140.8083740838444237204439582760837,17139.2,1.6083740838444237204439582760837
208,17306.8093446069268129435050691010681,17305.2,1.6093446069268129435050691010681
209,17473.6103104740616285285687713057299,17472.0,1.6103104740616285285687713057299
210,17641.2112717297276783475685308226073,17639.6,1.6112717297276783475685308226073
211,17809.6122284177694615909799792391861,17808.0,1.6122284177694615909799792391861
212,17978.8131805814091756160923508081296,17977.2,1.6131805814091756160923508081296
213,18148.8141282632584373508365719344643,18147.2,1.6141282632584373508365719344643
214,18319.6150715053297342288566601061350,18318.0,1.6150715053297342288566601061350
215,18491.2160103490476038620524831308218,18489.6,1.6160103490476038620524831308218
216,18663.6169448352595564050477711190707,18662.0,1.6169448352595564050477711190707
217,18836.8178750042467435706220169324466,18835.2,1.6178750042467435706220169324466
218,19010.8188008957343832685527457509142,19009.2,1.6188008957343832685527457509142
219,19185.6197225489019431408003607544095,19184.0,1.6197225489019431408003607544095
220,19361.2206400023930955011596590678817,19359.6,1.6206400023930955011596590678817
221,19537.6215532943254415816641091946384,19536.0,1.6215532943254415816641091946384
222,19714.8224624623000222831045270782395,19713.2,1.6224624623000222831045270782395
223,19892.8233675434106089904894153103424,19891.2,1.6233675434106089904894153103424
224,20071.6242685742527895127411668427539,20070.0,1.6242685742527895127411668427539
225,20251.2251655909328517031668221197921,20249.6,1.6251655909328517031668221197921
226,20431.6260586290764682986399280862363,20430.0,1.6260586290764682986399280862363
227,20612.8269477238371916203359142929323,20611.2,1.6269477238371916203359142929323
228,20794.8278329099047599462163600699442,20793.2,1.6278329099047599462163600699442
229,20977.6287142215132227074011369890308,20976.0,1.6287142215132227074011369890308
230,21161.2295916924488891946607591859619,21159.6,1.6295916924488891946607591859619
231,21345.6304653560581025642875689605381,21344.0,1.6304653560581025642875689605381
232,21530.8313352452548495522539938324707,21529.2,1.6313352452548495522539938324707
233,21716.8322013925282008821502555939121,21715.2,1.6322013925282008821502555939121
234,21903.6330638299495985129551300811518,21902.0,1.6330638299495985129551300811518
235,22091.2339225891799828977272811358318,22089.6,1.6339225891799828977272811358318
236,22279.6347777014767699519728271248542,22278.0,1.6347777014767699519728271248542
237,22468.8356291977006813518033035745294,22467.2,1.6356291977006813518033035745294
238,22658.8364771083224298928821331509705,22657.2,1.6364771083224298928821331509705
