Eigenstate,Energy,Kinetic Energy,Potential Energy
1,0.500000000024303468058661587845758791,0.0,0.500000000024303468058661587845758791
2,1.84623093780975491427738184806302907,1.2,0.64623093780975491427738184806302907
3,3.93633761017096817863997302854873001,3.2,0.73633761017096817863997302854873001
4,6.79966527878484672472425711113501722,6.0,0.79966527878484672472425711113501722
5,10.4480465769669744913525731736060865,9.6,0.8480465769669744913525731736060865
6,14.8870659994718964194269042157066565,14.0,0.8870659994718964194269042157066565
7,20.1197208277377257855702892133771891,19.2,0.9197208277377257855702892133771891
8,26.1477838481413821976510663841917379,25.2,0.9477838481413821976510663841917379
9,32.9723835596891329770510057030811286,32.0,0.9723835596891329770510057030811286
10,40.5942802165295446681931051325945284,39.6,0.9942802165295446681931051325945284
11,49.0140093888036538970584079915551647,48.0,1.0140093888036538970584079915551647
12,58.2319621718160896994662188113509893,57.2,1.0319621718160896994662188113509893
13,68.2484326956326602545651711919813144,67.2,1.0484326956326602545651711919813144
14,79.0636476579365114980519463826036734,78.0,1.0636476579365114980519463826036734
15,90.6777854398423102481122311535542959,89.6,1.0777854398423102481122311535542959
16,103.090988910766688232513109365100587,102.0,1.090988910766688232513109365100587
17,116.303374261889745848020526706177168,115.2,1.103374261889745848020526706177168
18,130.315037257161251324415256994461214,129.2,1.115037257161251324415256994461214
19,145.126057756404618203510903212333227,144.0,1.126057756404618203510903212333227
20,160.736503052950841729367659355642194,159.6,1.136503052950841729367659355642194
21,177.146430379720196018170215632928012,176.0,1.146430379720196018170215632928012
22,194.355888820380974204120163303037394,193.2,1.155888820380974204120163303037394
23,212.364920787286013116592865319908273,211.2,1.164920787286013116592865319908273
24,231.173563178873115464550759455584336,230.0,1.173563178873115464550759455584336
25,250.781848296460976253831462262467016,249.6,1.181848296460976253831462262467016
26,271.189804578056770562515243773219037,270.0,1.189804578056770562515243773219037
27,292.397457191318729399660451346126370,291.2,1.197457191318729399660451346126370
28,314.404828516915179564415591319327350,313.2,1.204828516915179564415591319327350
29,337.211938545726495601582664596192368,336.0,1.211938545726495601582664596192368
30,360.818805207686924380801677377708903,359.6,1.218805207686924380801677377708903
31,385.225444645917304326724378162133461,384.0,1.225444645917304326724378162133461
32,410.431871446721801743021839385952667,409.2,1.231871446721801743021839385952667
33,436.438098833712138869093995687245063,435.2,1.238098833712138869093995687245063
34,463.244138832572242042316486624498712,462.0,1.244138832572242042316486624498712
35,490.850002411637043273064691395866281,489.6,1.250002411637043273064691395866281
36,519.255699602425689661295304968800232,518.0,1.255699602425689661295304968800232
37,548.461239603465330535026628872811959,547.2,1.261239603465330535026628872811959
38,578.466630870111233447983235745981369,577.2,1.266630870111233447983235745981369
39,609.271881192571131524207589611435106,608.0,1.271881192571131524207589611435106
40,640.876997763945883853941578283739295,639.6,1.276997763945883853941578283739295
41,673.281987239781780371397748742102097,672.0,1.281987239781780371397748742102097
42,706.486855790374830043566128825935892,705.2,1.286855790374830043566128825935892
43,740.491609146860884854312522122943080,739.2,1.291609146860884854312522122943080
44,775.296252641957358052542217067229574,774.0,1.296252641957358052542217067229574
45,810.900791246084725564224837929739594,809.6,1.300791246084725564224837929739594
46,847.305229599482863185498606550205499,846.0,1.305229599482863185498606550205499
47,884.509572040843795561754467077918565,883.2,1.309572040843795561754467077918565
48,922.513822632904846593364035093117585,921.2,1.313822632904846593364035093117585
49,961.317985185381518364828692763696827,960.0,1.317985185381518364828692763696827
50,1000.92206327556530298048225872653720,999.6,1.32206327556530298048225872653720
51,1041.32606026686616472741425676645362,1040.0,1.32606026686616472741425676645362
52,1082.52997932554108477198737241428244,1081.2,1.32997932554108477198737241428244
53,1124.53382343581761047778175431879286,1123.2,1.33382343581761047778175431879286
54,1167.33759541359379030134698336108542,1166.0,1.33759541359379030134698336108542
55,1210.94129791887239972963433742344702,1209.6,1.34129791887239972963433742344702
56,1255.34493346706728915285995267119303,1254.0,1.34493346706728915285995267119303
57,1300.54850443930248560143313012708039,1299.2,1.34850443930248560143313012708039
58,1346.55201309180988308929542040031917,1345.2,1.35201309180988308929542040031917
59,1393.35546156451860235874290022515298,1392.0,1.35546156451860235874290022515298
60,1440.95885188891807631410353864902870,1439.6,1.35885188891807631410353864902870
61,1489.36218599526735320413841308993954,1488.0,1.36218599526735320413841308993954
62,1538.56546571921480860792335794100777,1537.2,1.36546571921480860792335794100777
63,1588.56869280788521538994814516309071,1587.2,1.36869280788521538994814516309071
64,1639.37186892548480831024917077828680,1638.0,1.37186892548480831024917077828680
65,1690.97499565846944513541962656130945,1689.6,1.37499565846944513541962656130945
66,1743.37807452031611875728774469619850,1742.0,1.37807452031611875728774469619850
67,1796.58110695593381253472852595616923,1795.2,1.38110695593381253472852595616923
68,1850.58409434574593491326632964180823,1849.2,1.38409434574593491326632964180823
69,1905.38703800947325670639937975530365,1904.0,1.38703800947325670639937975530365
70,1960.98993920964334615431360772672108,1959.6,1.38993920964334615431360772672108
71,2017.39279915484989817192246755796981,2016.0,1.39279915484989817192246755796981
72,2074.59561900278305595578980564283243,2073.2,1.39561900278305595578980564283243
73,2132.59839986304977011308964192185447,2131.2,1.39839986304977011308964192185447
74,2191.40114279980142162720415818038573,2190.0,1.40114279980142162720415818038573
75,2251.00384883418430387345834463158525,2249.6,1.40384883418430387345834463158525
76,2311.40651894662710934173466838801215,2310.0,1.40651894662710934173466838801215
77,2372.60915407897826432429314107134374,2371.2,1.40915407897826432429314107134374
78,2434.61175513650478902894207386487966,2433.2,1.41175513650478902894207386487966
79,2497.41432298976331375771264875653297,2496.0,1.41432298976331375771264875653297
80,2561.01685847635294366554605034488953,2559.6,1.41685847635294366554605034488953
81,2625.41936240255881527202536747498550,2624.0,1.41936240255881527202536747498550
82,2690.62183554489442644863099864310804,2689.2,1.42183554489442644863099864310804
83,2756.62427865155013287020865236174078,2755.2,1.42427865155013287020865236174078
84,2823.42669244375457962762295896017853,2822.0,1.42669244375457962762295896017853
85,2891.02907761705527742239603299871919,2889.6,1.42907761705527742239603299871919
86,2959.43143484252401689874101626677445,2958.0,1.43143484252401689874101626677445
87,3028.63376476789235719760080306758859,3027.2,1.43376476789235719760080306758859
88,3098.63606801862200143956642252603431,3097.2,1.43606801862200143956642252603431
89,3169.43834519891448834138809325028522,3168.0,1.43834519891448834138809325028522
90,3241.04059689266428595406267147323632,3239.6,1.44059689266428595406267147323632
91,3313.44282366435905205843054229577148,3312.0,1.44282366435905205843054229577148
92,3386.64502605993053745667585871541358,3385.2,1.44502605993053745667585871541358
93,3460.64720460755934614306842057015355,3459.2,1.44720460755934614306842057015355
94,3535.44935981843652340854737128189712,3534.0,1.44935981843652340854737128189712
95,3611.05149218748472177971788639559304,3609.6,1.45149218748472177971788639559304
96,3687.45360219404149287071558486853461,3686.0,1.45360219404149287071558486853461
97,3764.65569030250706888428382921401445,3763.2,1.45569030250706888428382921401445
98,3842.65775696295882462411429528167881,3841.2,1.45775696295882462411429528167881
99,3921.45980261173445740831216420302301,3920.0,1.45980261173445740831216420302301
100,4001.06182767198577593343112810162597,3999.6,1.46182767198577593343112810162597
101,4081.46383255420485983436897365924626,4080.0,1.46383255420485983436897365924626
102,4162.66581765672422611069341787792632,4161.2,1.46581765672422611069341787792632
103,4244.66778336619253067635495846432509,4243.2,1.46778336619253067635495846432509
104,4327.46973005802722602503316248029346,4326.0,1.46973005802722602503316248029346
105,4411.07165809684550292960580823124686,4409.6,1.47165809684550292960580823124686
106,4495.47356783687475332998668472930452,4494.0,1.47356783687475332998668472930452
107,4580.67545962234371348162237730451160,4579.2,1.47545962234371348162237730451160
108,4666.67733378785536719738399498662863,4665.2,1.47733378785536719738399498662863
109,4753.47919065874262042205565648575497,4752.0,1.47919065874262042205565648575497
110,4841.08103055140769595849645109886955,4839.6,1.48103055140769595849645109886955
111,4929.48285377364613130335410055643346,4928.0,1.48285377364613130335410055643346
112,5018.68466062495621311657506867446222,5017.2,1.48466062495621311657506867446222
113,5108.68645139683462631316176348660953,5107.2,1.48645139683462631316176348660953
114,5199.48822637305904700787117573354140,5198.0,1.48822637305904700787117573354140
115,5291.08998582995836809504670894404518,5289.6,1.48998582995836809504670894404518
116,5383.49173003667119791412672084523540,5382.0,1.49173003667119791412672084523540
117,5476.69345925539324073836655038230986,5475.2,1.49345925539324073836655038230986
118,5570.69517374161412679320524966716282,5569.2,1.49517374161412679320524966716282
119,5665.49687374434422579699188182719579,5664.0,1.49687374434422579699188182719579
120,5761.09855950633195217455135397953359,5759.6,1.49855950633195217455135397953359
121,5857.50023126427203182682545362102182,5856.0,1.50023126427203182682545362102182
122,5954.70188924900518142669200914158281,5953.2,1.50188924900518142669200914158281
123,6052.70353368570961901813308537527322,6051.2,1.50353368570961901813308537527322
124,6151.50516479408480701611445916573823,6150.0,1.50516479408480701611445916573823
125,6251.10678278852779913827554741325749,6249.6,1.50678278852779913827554741325749
126,6351.50838787830254760223135331591574,6350.0,1.50838787830254760223135331591574
127,6452.70998026770250634440162911648996,6451.2,1.50998026770250634440162911648996
128,6554.71156015620684342909258691408628,6553.2,1.51156015620684342909258691408628
129,6657.51312773863056374331832209034177,6656.0,1.51312773863056374331832209034177
130,6761.11468320526882469098190792010619,6759.6,1.51468320526882469098190792010619
131,6865.51622674203571219591802863536789,6864.0,1.51622674203571219591802863536789
132,6970.71775853059772934609821282498428,6969.2,1.51775853059772934609821282498428
133,7076.71927874850223822971575596563341,7075.2,1.51927874850223822971575596563341
134,7183.52078756930108423790863440732860,7182.0,1.52078756930108423790863440732860
135,7291.12228516266961400053615561269446,7289.6,1.52228516266961400053615561269446
136,7399.52377169452129443389473620865136,7398.0,1.52377169452129443389473620865136
137,7508.72524732711812707131468823901082,7507.2,1.52524732711812707131468823901082
138,7618.72671221917703823558917368936302,7617.2,1.52671221917703823558917368936302
139,7729.52816652597242350628102876755421,7728.0,1.52816652597242350628102876755421
140,7841.12961039943500948898469239116068,7839.6,1.52961039943500948898469239116068
141,7953.53104398824719133613071475935440,7952.0,1.53104398824719133613071475935440
142,8066.73246743793499639565317324048524,8065.2,1.53246743793499639565317324048524
143,8180.73388089095681571367092276065980,8179.2,1.53388089095681571367092276065980
144,8295.53528448678903793769686832190274,8294.0,1.53528448678903793769686832190274
145,8411.13667836200871597913008375870034,8409.6,1.53667836200871597913008375870034
146,8527.53806265037338892503488166146862,8526.0,1.53806265037338892503488166146862
147,8644.73943748289817348624482828039649,8643.2,1.53943748289817348624482828039649
148,8762.74080298793024031079640549506608,8761.2,1.54080298793024031079640549506608
149,8881.54215929122077696362272720812978,8880.0,1.54215929122077696362272720812978
150,9001.14350651599454121336055454360064,8999.6,1.54350651599454121336055454360064
151,9121.54484478301710054050002832922725,9120.0,1.54484478301710054050002832922725
152,9242.74617421065984816602193102780862,9241.2,1.54617421065984816602193102780862
153,9364.74749491496288455019063543643612,9363.2,1.54749491496288455019063543643612
154,9487.54880700969584826071885374030233,9486.0,1.54880700969584826071885374030233
155,9611.15011060641677444627056962502555,9609.6,1.55011060641677444627056962502555
156,9735.55140581452905878163847279262544,9734.0,1.55140581452905878163847279262544
157,9860.75269274133659793117214523519620,9859.2,1.55269274133659793117214523519620
158,9986.75397149209717834853081005871164,9985.2,1.55397149209717834853081005871164
159,10113.5552421700741770855664534262528,10112.0,1.5552421700741770855664534262528
160,10241.1565048765866409478473684132466,10239.6,1.5565048765866409478473684132466
161,10369.5577597110578024929135292248195,10368.0,1.5577597110578024929135292248195
162,10498.7590067710620923323354771544065,10497.2,1.5590067710620923323354771544065
163,10628.7602461523707025908464173396239,10627.2,1.5602461523707025908464173396239
164,10759.5614779489957561591129474065483,10758.0,1.5614779489957561591129474065483
165,10891.1627022532331303403323303091122,10889.6,1.5627022532331303403323303091122
166,11023.5639191557039854062154488146289,11022.0,1.5639191557039854062154488146289
167,11156.7651287453950452946452346130473,11155.2,1.5651287453950452946452346130473
168,11290.7663311096976731378944782919697,11289.2,1.5663311096976731378944782919697
169,11425.5675263344457866834638898814159,11424.0,1.5675263344457866834638898814159
170,11561.1687145039526533506264678976061,11559.6,1.5687145039526533506264678976061
171,11697.5698957010466051171093605945903,11696.0,1.5698957010466051171093605945903
172,11834.7710700071057111025413397596966,11833.2,1.5710700071057111025413397596966
173,11972.7722375020914432509670453296973,11971.2,1.5722375020914432509670453296973
174,12111.5733982645813709559122405784360,12110.0,1.5733982645813709559122405784360
175,12251.1745523718009186129033796402540,12249.6,1.5745523718009186129033796402540
176,12391.5756998996542158057645385422677,12390.0,1.5756998996542158057645385422677
177,12532.7768409227540733871994892783376,12531.2,1.5768409227540733871994892783376
178,12674.7779755144511146080252281348300,12673.2,1.5779755144511146080252281348300
179,12817.5791037468620877399730740302185,12816.0,1.5791037468620877399730740302185
180,12961.1802256908973911384263778136250,12959.6,1.5802256908973911384263778136250
181,13105.5813414162878333936511496626004,13104.0,1.5813414162878333936511496626004
182,13250.7824509916106562658750784060480,13249.2,1.5824509916106562658750784060480
183,13396.7835544843148434534589987928001,13395.2,1.5835544843148434534589987928001
184,13543.5846519607457394356668190542251,13542.0,1.5846519607457394356668190542251
185,13691.1857434861690001981272103112425,13689.6,1.5857434861690001981272103112425
186,13839.5868291247938968095762345044380,13838.0,1.5868291247938968095762345044380
187,13988.7879089397959956503480955309621,13987.2,1.5879089397959956503480955309621
188,14138.7889829933392307288980667970512,14137.2,1.5889829933392307288980667970512
189,14289.5900513465973918174148148405134,14288.0,1.5900513465973918174148148405134
190,14441.1911140597750440575661632935340,14439.6,1.5911140597750440575661632935340
191,14593.5921711921278982588962021629256,14592.0,1.5921711921278982588962021629256
192,14746.7932228019826482720420359230975,14745.2,1.5932228019826482720420359230975
193,14900.7942689467562937405828364595893,14899.2,1.5942689467562937405828364595893
194,15055.5953096829749615722680337463322,15054.0,1.5953096829749615722680337463322
195,15211.1963450662922440619468413870123,15209.6,1.5963450662922440619468413870123
196,15367.5973751515070673580620692009575,15366.0,1.5973751515070673580620692009575
197,15524.7983999925811046479917579423994,15523.2,1.5983999925811046479917579423994
198,15682.7994196426557482241799359440961,15681.2,1.5994196426557482241799359440961
199,15841.6004341540686532648722734105473,15840.0,1.6004341540686532648722734105473
200,16001.2014435783698672696178527888417,15999.6,1.6014435783698672696178527888417
201,16161.6024479663375561259160494229373,16160.0,1.6024479663375561259160494229373
202,16322.8034473679933401831201379552978,16321.2,1.6034473679933401831201379552978
203,16484.8044418326172509882798348821282,16483.2,1.6044418326172509882798348821282
204,16647.6054314087623202987846109961362,16646.0,1.6054314087623202987846109961362
205,16811.2064161442688113371199038698640,16809.6,1.6064161442688113371199038698640
206,16975.6073960862781053064335258563571,16974.0,1.6073960862781053064335258563571
207,17140.8083712812462490375379007334300,17139.2,1.6083712812462490375379007334300
208,17306.8093417749571779887530942294182,17305.2,1.6093417749571779887530942294182
209,17473.6103076125356203414183909135237,17472.0,1.6103076125356203414183909135237
210,17641.2112688384596936866717369416213,17639.6,1.6112688384596936866717369416213
211,17809.6122254965732016624537236617891,17808.0,1.6122254965732016624537236617891
212,17978.8131776300976407678584088139499,17977.2,1.6131776300976407678584088139499
213,18148.8141252816439217327192482697113,18147.2,1.6141252816439217327192482697113
214,18319.6150684932238204181138051080481,18318.0,1.6150684932238204181138051080481
215,18491.2160073062611574540122951396320,18489.6,1.6160073062611574540122951396320
216,18663.6169417616027205685206675173473,18662.0,1.6169417616027205685206675173473
217,18836.8178718995289335677539013480842,18835.2,1.6178718995289335677539013480842
218,19010.8187977597642809387826497794710,19009.2,1.6187977597642809387826497794710
219,19185.6197193814874913485824053554583,19184.0,1.6197193814874913485824053554583
220,19361.2206368033414925471060121288913,19359.6,1.6206368033414925471060121288913
221,19537.6215500634431355767623113760053,19536.0,1.6215500634431355767623113760053
222,19714.8224591993927054856592991277922,19713.2,1.6224591993927054856592991277922
223,19892.8233642482832121054357057060188,19891.2,1.6233642482832121054357057060188
224,20071.6242652467094759529718799269703,20070.0,1.6242652467094759529718799269703
225,20251.2251622307770118125150486323465,20249.6,1.6251622307770118125150486323465
226,20431.6260552361107135361522965372373,20430.0,1.6260552361107135361522965372373
227,20612.8269442978633487054700708618860,20611.2,1.6269442978633487054700708618860
228,20794.8278294507238649645919392079009,20793.2,1.6278294507238649645919392079009
229,20977.6287107289255151767301575346794,20976.0,1.6287107289255151767301575346794
230,21161.2295881662538060904797916519528,21159.6,1.6295881662538060904797916519528
231,21345.6304617960542723051100135652889,21344.0,1.6304617960542723051100135652889
232,21530.8313316512400859437575447433530,21529.2,1.6313316512400859437575447433530
233,21716.8321977642994970200106209992749,21715.2,1.6321977642994970200106209992749
234,21903.6330601673031206439333204001805,21902.0,1.6330601673031206439333204001805
235,22091.2339188919110642386138735938108,22089.6,1.6339188919110642386138735938108
236,22279.6347739693799044659887965980325,22278.0,1.6347739693799044659887965980325
237,22468.8356254305695174820531972244958,22467.2,1.6356254305695174820531972244958
238,22658.8364733059497642524510847120328,22657.2,1.6364733059497642524510847120328
