Eigenstate,Energy,Kinetic Energy,Potential Energy
1,0.500000000019467383360353377483441483,0.0,0.500000000019467383360353377483441483
2,1.84623093777818749164532109106322175,1.2,0.64623093777818749164532109106322175
3,3.93633761007824150398723522413490977,3.2,0.73633761007824150398723522413490977
4,6.79966527859170788372545302735489276,6.0,0.79966527859170788372545302735489276
5,10.4480465766324190127539062878765515,9.6,0.8480465766324190127539062878765515
6,14.8870659989542025334941045042627868,14.0,0.8870659989542025334941045042627868
7,20.1197208269948356237969210662228939,19.2,0.9197208269948356237969210662228939
8,26.1477838471310608831795750596993033,25.2,0.9477838471310608831795750596993033
9,32.9723835583690427069484793311482264,32.0,0.9723835583690427069484793311482264
10,40.5942802148572824102917106301869359,39.6,0.9942802148572824102917106301869359
11,49.0140093867367719582550551106897093,48.0,1.0140093867367719582550551106897093
12,58.2319621693121075656357013041746713,57.2,1.0319621693121075656357013041746713
13,68.2484326926490716787635797382540326,67.2,1.0484326926490716787635797382540326
14,79.0636476544307888541593561967159835,78.0,1.0636476544307888541593561967159835
15,90.6777854357719072348212378323349320,89.6,1.0777854357719072348212378323349320
16,103.090988906089041541138848271742446,102.0,1.090988906089041541138848271742446
17,116.303374256562276156340891581327969,115.2,1.103374256562276156340891581327969
18,130.315037251141363838579497109112292,129.2,1.115037251141363838579497109112292
19,145.126057749649702888680237170040327,144.0,1.126057749649702888680237170040327
20,160.736503045418273320823350672209441,159.6,1.136503045418273320823350672209441
21,177.146430371367333874276293609126415,176.0,1.146430371367333874276293609126415
22,194.355888811165162043174997030925665,193.2,1.155888811165162043174997030925665
23,212.364920777164578666951909646560404,211.2,1.164920777164578666951909646560404
24,231.173563167803370048944396070552087,230.0,1.173563167803370048944396070552087
25,250.781848284400214323031195551175315,249.6,1.181848284400214323031195551175315
26,271.189804564962269189491309737187005,270.0,1.189804564962269189491309737187005
27,292.397457177147747742539809142168930,291.2,1.197457177147747742539809142168930
28,314.404828501624958304515264315681664,313.2,1.204828501624958304515264315681664
29,337.211938529274256361312788325171439,336.0,1.211938529274256361312788325171439
30,360.818805190029869125140671616105492,359.6,1.218805190029869125140671616105492
31,385.225444627012614751153576474311853,384.0,1.225444627012614751153576474311853
32,410.431871426526638650191640092085243,409.2,1.231871426526638650191640092085243
33,436.438098812183641536024304598398344,435.2,1.238098812183641536024304598398344
34,463.244138809667527579572778315366648,462.0,1.244138809667527579572778315366648
35,490.850002387313205977070108069709339,489.6,1.250002387313205977070108069709339
36,519.255699576639800360719047773487314,518.0,1.255699576639800360719047773487314
37,548.461239576174435932014938523436481,547.2,1.261239576174435932014938523436481
38,578.466630841272355454860809659770805,577.2,1.266630841272355454860809659770805
39,609.271881162141266596166305047471469,608.0,1.271881162141266596166305047471469
40,640.876997731882002318143829796739062,639.6,1.276997731882002318143829796739062
41,673.281987206040825752849001055927318,672.0,1.281987206040825752849001055927318
42,706.486855754913718388051893962722326,705.2,1.286855754913718388051893962722326
43,740.491609109636504048646177889871657,739.2,1.291609109636504048646177889871657
44,775.296252602926567142329811835814854,774.0,1.296252602926567142329811835814854
45,810.900791205204354069319580273640183,809.6,1.300791205204354069319580273640183
46,847.305229556709710413289859515673372,846.0,1.305229556709710413289859515673372
47,884.509571996134629918412704937305435,883.2,1.309571996134629918412704937305435
48,922.513822586216404893143554125972767,921.2,1.313822586216404893143554125972767
49,961.317985136670505137513258621016024,960.0,1.317985136670505137513258621016024
50,1000.92206322478838977704477925605827,999.6,1.32206322478838977704477925605827
51,1041.32606021397998942394955009899452,1040.0,1.32606021397998942394955009899452
52,1082.52997927050225087196684422323665,1081.2,1.32997927050225087196684422323665
53,1124.53382337858268641266998598638602,1123.2,1.33382337858268641266998598638602
54,1167.33759535411930872961264769132684,1166.0,1.33759535411930872961264769132684
55,1210.94129785711485683418130604671353,1209.6,1.34129785711485683418130604671353
56,1255.34493340298314393689877861903180,1254.0,1.34493340298314393689877861903180
57,1300.54850437284815918280816253355291,1299.2,1.34850437284815918280816253355291
58,1346.55201302294175799327847516749696,1345.2,1.35201302294175799327847516749696
59,1393.35546149319302180930067462078502,1392.0,1.35546149319302180930067462078502
60,1440.95885181509134352364262852685105,1439.6,1.35885181509134352364262852685105
61,1489.36218591889573066172889708135248,1488.0,1.36218591889573066172889708135248
62,1538.56546564025451736599933706803433,1537.2,1.36546564025451736599933706803433
63,1588.56869272629243434948135270470394,1587.2,1.36869272629243434948135270470394
64,1639.37186884121567350438977354793152,1638.0,1.37186884121567350438977354793152
65,1690.97499557148004901159650940069735,1689.6,1.37499557148004901159650940069735
66,1743.37807443056250945775900154898970,1742.0,1.37807443056250945775900154898970
67,1796.58110686337199317557142952138202,1795.2,1.38110686337199317557142952138202
68,1850.58409425033186286179478341842965,1849.2,1.38409425033186286179478341842965
69,1905.38703791116284285699567206194604,1904.0,1.38703791116284285699567206194604
70,1960.98993910839245420266028805614325,1959.6,1.38993910839245420266028805614325
71,2017.39279905061434388761916904961657,2016.0,1.39279905061434388761916904961657
72,2074.59561889551860645333903111677231,2073.2,1.39561889551860645333903111677231
73,2132.59839975271214312123472594004137,2131.2,1.39839975271214312123472594004137
74,2191.40114268634628475660190514603904,2190.0,1.40114268634628475660190514603904
75,2251.00384871756727388266820074778408,2249.6,1.40384871756727388266820074778408
76,2311.40651882680375140150569494400257,2310.0,1.40651882680375140150569494400257
77,2372.60915395590409128012949371928368,2371.2,1.40915395590409128012949371928368
78,2434.61175501013526066192718922520487,2433.2,1.41175501013526066192718922520487
79,2497.41432286005383604357187417973935,2496.0,1.41432286005383604357187417973935
80,2561.01685834325886803192701992272850,2559.6,1.41685834325886803192701992272850
81,2625.41936226603543785397500913825270,2624.0,1.41936226603543785397500913825270
82,2690.62183540489698734224768261534339,2689.2,1.42183540489698734224768261534339
83,2756.62427850803381538444764157763361,2755.2,1.42427850803381538444764157763361
84,2823.42669229667450953423297957391709,2822.0,1.42669229667450953423297957391709
85,2891.02907746636652220396446196081517,2889.6,1.42907746636652220396446196081517
86,2959.43143468818158499482490600916517,2958.0,1.43143468818158499482490600916517
87,3028.63376460985119724892064859570140,3027.2,1.43376460985119724892064859570140
88,3098.63606785683700153023932768413419,3097.2,1.43606785683700153023932768413419
89,3169.43834503334047523917673101285086,3168.0,1.43834503334047523917673101285086
90,3241.04059672325602434861617656306745,3239.6,1.44059672325602434861617656306745
91,3313.44282349107124379749324719144319,3312.0,1.44282349107124379749324719144319
92,3386.64502588271782078023954734621287,3385.2,1.44502588271782078023954734621287
93,3460.64720442637629491544356160809953,3459.2,1.44720442637629491544356160809953
94,3535.44935963323764634832856629144451,3534.0,1.44935963323764634832856629144451
95,3611.05149199822446168761856734131949,3609.6,1.45149199822446168761856734131949
96,3687.45360200067422585524680205199126,3686.0,1.45360200067422585524680205199126
97,3764.65569010498710358525173943439984,3763.2,1.45569010498710358525173943439984
98,3842.65775676124040143391081883713907,3841.2,1.45775676124040143391081883713907
99,3921.45980240577174769097303540465422,3920.0,1.45980240577174769097303540465422
100,4001.06182746173288124143541419594135,3999.6,1.46182746173288124143541419594135
101,4081.46383233961581112315393968752842,4080.0,1.46383233961581112315393968752842
102,4162.66581743775298295085843162859563,4161.2,1.46581743775298295085843162859563
103,4244.66778314279298046352796918582532,4243.2,1.46778314279298046352796918582532
104,4327.46972983015318318737306846074917,4326.0,1.46972983015318318737306846074917
105,4411.07165786445070813291390803189946,4409.6,1.47165786445070813291390803189946
106,4495.47356759991287268040019144492264,4494.0,1.47356759991287268040019144492264
107,4580.67545938076833772586281479661881,4579.2,1.47545938076833772586281479661881
108,4666.67733354162001092053312983588532,4665.2,1.47733354162001092053312983588532
109,4753.47919040780072124283143826651410,4752.0,1.47919040780072124283143826651410
110,4841.08103029571261372200126987658685,4839.6,1.48103029571261372200126987658685
111,4929.48285351315114727126749155363442,4928.0,1.48285351315114727126749155363442
112,5018.68466035961452915476282790290008,5017.2,1.48466035961452915476282790290008
113,5108.68645112659936407667327258005248,5107.2,1.48645112659936407667327258005248
114,5199.48822609788324712329655861231338,5198.0,1.48822609788324712329655861231338
115,5291.08998554979498934020526265319787,5289.6,1.48998554979498934020526265319787
116,5383.49172975147311639505791092117592,5382.0,1.49172975147311639505791092117592
117,5476.69345896511324906359467569294686,5475.2,1.49345896511324906359467569294686
118,5570.69517344620493324524869995276193,5569.2,1.49517344620493324524869995276193
119,5665.49687344375845350108777541578440,5664.0,1.49687344375845350108777541578440
120,5761.09855920052213826456611566693240,5759.6,1.49855920052213826456611566693240
121,5857.50023095319062660832176551485874,5856.0,1.50023095319062660832176551485874
122,5954.70188893260454753712235380130213,5953.2,1.50188893260454753712235380130213
123,6052.70353336394203058412995601311069,6051.2,1.50353336394203058412995601311069
124,6151.50516446690244880784710863472662,6150.0,1.50516446690244880784710863472662
125,6251.10678245588276572084297792123854,6249.6,1.50678245588276572084297792123854
126,6351.50838754014684248406106648603348,6350.0,1.50838754014684248406106648603348
127,6452.70997992398804112262348609817548,6451.2,1.50997992398804112262348609817548
128,6554.71155980688543693185691324066450,6553.2,1.51155980688543693185691324066450
129,6657.51312738365394116902724683541313,6656.0,1.51312738365394116902724683541313
130,6761.11468284458861674440271359890067,6759.6,1.51468284458861674440271359890067
131,6865.51622637560345422114711102607911,6864.0,1.51622637560345422114711102607911
132,6970.71775815836486045634404345208641,6969.2,1.51775815836486045634404345208641
133,7076.71927837042010043386908819611487,7075.2,1.51927837042010043386908819611487
134,7183.52078718532092156386796162077136,7182.0,1.52078718532092156386796162077136
135,7291.12228477274257161525623681574604,7289.6,1.52228477274257161525623681574604
136,7399.52377129859841776012586313285138,7398.0,1.52377129859841776012586313285138
137,7508.72524692515036090100007802203987,7507.2,1.52524692515036090100007802203987
138,7618.72671181111522583988777439690098,7617.2,1.52671181111522583988777439690098
139,7729.52816611176730574218270215403675,7728.0,1.52816611176730574218270215403675
140,7841.12960997903722390248467905530162,7839.6,1.52960997903722390248467905530162
141,7953.53104356160727126192998286985987,7952.0,1.53104356160727126192998286985987
142,8066.73246700500337005335102290670554,8065.2,1.53246700500337005335102290670554
143,8180.73388045168380530041615533223056,8179.2,1.53388045168380530041615533223056
144,8295.53528404112485871726339499073484,8294.0,1.53528404112485871726339499073484
145,8411.13667790990347536738284299969787,8409.6,1.53667790990347536738284299969787
146,8527.53806219177708557175159752125868,8526.0,1.53806219177708557175159752125868
147,8644.73943701776069635325898584580279,8643.2,1.53943701776069635325898584580279
148,8762.74080251620136774642655606369651,8761.2,1.54080251620136774642655606369651
149,8881.54215881285017577335304164812875,8880.0,1.54215881285017577335304164812875
150,9001.14350603093176572673731103732355,8999.6,1.54350603093176572673731103732355
151,9121.54484429121159167420847207047841,9120.0,1.54484429121159167420847207047841
152,9242.74617371206093248310777175480128,9241.2,1.54617371206093248310777175480128
153,9364.74749440951977331539017369780569,9363.2,1.54749440951977331539017369780569
154,9487.54880649735763649186147443372488,9486.0,1.54880649735763649186147443372488
155,9611.15011008713243996171717995061011,9609.6,1.55011008713243996171717995061011
156,9735.55140528824746124371913702580307,9734.0,1.55140528824746124371913702580307
157,9860.75269220800647788558600082300644,9859.2,1.55269220800647788558600082300644
158,9986.75397095166715625967105863541453,9985.2,1.55397095166715625967105863541453
159,10113.5552416224927523677329963134689,10112.0,1.5552416224927523677329963134689
160,10241.1565043218021909923094223291870,10239.6,1.5565043218021909923094223291870
161,10369.5577591490185816907842550905710,10368.0,1.5577591490185816907842550905710
162,10498.7590062017162310932204642438003,10497.2,1.5590062017162310932204642438003
163,10628.7602455756662063572276076319778,10627.2,1.5602455756662063572276076319778
164,10759.5614773648805044164292385193777,10758.0,1.5614773648805044164292385193777
165,10891.1627016616548756227179515500325,10889.6,1.5627016616548756227179515500325
166,11023.5639185566103522978568735650831,11022.0,1.5639185566103522978568735650831
167,11156.7651281387335294267171574773302,11155.2,1.5651281387335294267171574773302
168,11290.7663304954156401810350747658783,11289.2,1.5663304954156401810350747658783
169,11425.5675257124904713357493512964021,11424.0,1.5675257124904713357493512964021
170,11561.1687138742711583210045336497242,11559.6,1.5687138742711583210045336497242
171,11697.5698950635859001042512060438009,11696.0,1.5698950635859001042512060438009
172,11834.7710693618126317690710547321887,11833.2,1.5710693618126317690710547321887
173,11972.7722368489126901930274961417621,11971.2,1.5722368489126901930274961417621
174,12111.5733976034635086680259250426568,12110.0,1.5733976034635086680259250426568
175,12251.1745517026903744480865536081010,12249.6,1.5745517026903744480865536081010
176,12391.5756992224972789308526335488759,12390.0,1.5756992224972789308526335488759
177,12532.7768402374968937333414763046671,12531.2,1.5768402374968937333414763046671
178,12674.7779748210397018163044023918341,12673.2,1.5779748210397018163044023918341
179,12817.5791030452423101021113154834164,12816.0,1.5791030452423101021113154834164
180,12961.1802249810149745325287267357865,12959.6,1.5802249810149745325287267357865
181,13105.5813406980883602149471520087289,13104.0,1.5813406980883602149471520087289
182,13250.7824502650395643524131545969050,13249.2,1.5824502650395643524131545969050
183,13396.7835537493174250067096699006192,13395.2,1.5835537493174250067096699006192
184,13543.5846512172671399359903529231826,13542.0,1.5846512172671399359903529231826
185,13691.1857427341542173150609398306474,13689.6,1.5857427341542173150609398306474
186,13839.5868283641877793068964805916940,13838.0,1.5868283641877793068964805916940
187,13988.7879081705432422858612647242744,13987.2,1.5879081705432422858612647242744
188,14138.7889822153843891489152229433553,14137.2,1.5889822153843891489152229433553
189,14289.5900505598848574458636236810060,14288.0,1.5900505598848574458636236810060
190,14441.1911132642490589796938533783713,14439.6,1.5911132642490589796938533783713
191,14593.5921703877325500995167639593475,14592.0,1.5921703877325500995167639593475
192,14746.7932219886618690682805922090510,14745.2,1.5932219886618690682805922090510
193,14900.7942681244538588090697831551969,14899.2,1.5942681244538588090697831551969
194,15055.5953088516344883707351301855638,15054.0,1.5953088516344883707351301855638
195,15211.1963442258571910451771528624846,15209.6,1.5963442258571910451771528624846
196,15367.5973743019207328281452929482888,15366.0,1.5973743019207328281452929482888
197,15524.7983991337866255988360427589189,15523.2,1.5983991337866255988360427589189
198,15682.7994187745960991802310274197446,15681.2,1.5994187745960991802310274197446
199,15841.6004332766866451139903955761167,15840.0,1.6004332766866451139903955761167
200,16001.2014426916081460900623787773802,15999.6,1.6014426916081460900623787773802
201,16161.6024470701386020073876515406984,16160.0,1.6024470701386020073876515406984
202,16322.8034464622994660418097134959474,16321.2,1.6034464622994660418097134959474
203,16484.8044409173706013758731286353488,16483.2,1.6044409173706013758731286353488
204,16647.6054304839048702053710450430375,16646.0,1.6054304839048702053710450430375
205,16811.2064152097423649879538018620829,16809.6,1.6064152097423649879538018620829
206,16975.6073951420242949524954520388468,16974.0,1.6073951420242949524954520388468
207,17140.8083703272065337398434892104014,17139.2,1.6083703272065337398434892104014
208,17306.8093408110728423963562694665760,17305.2,1.6093408110728423963562694665760
209,17473.6103066387477734630555708836006,17472.0,1.6103066387477734630555708836006
210,17641.2112678547092676559931241138726,17639.6,1.6112678547092676559931241138726
211,17809.6122245028009504967874165857411,17808.0,1.6122245028009504967874165857411
212,17978.8131766262441391204526425771661,17977.2,1.6131766262441391204526425771661
213,18148.8141242676495636384075784330690,18147.2,1.6141242676495636384075784330690
214,18319.6150674690288180323478003641967,18318.0,1.6150674690288180323478003641967
215,18491.2160062718055397852056471983824,18489.6,1.6160062718055397852056471983824
216,18663.6169407168263322036483387688119,18662.0,1.6169407168263322036483387688119
217,18836.8178708443714333911494645258967,18835.2,1.6178708443714333911494645258967
218,19010.8187966941651408440765092502056,19009.2,1.6187966941651408440765092502056
219,19185.6197183053859949437231447144833,19184.0,1.6197183053859949437231447144833
220,19361.2206357166767338524066537579859,19359.6,1.6206357166767338524066537579859
221,19537.6215489661540177159128185247820,19536.0,1.6215489661540177159128185247820
222,19714.8224580914179393696462368791500,19713.2,1.6224580914179393696462368791500
223,19892.8233631295613151093094068163456,19891.2,1.6233631295613151093094068163456
224,20071.6242641171787705854010646719416,20070.0,1.6242641171787705854010646719416
225,20251.2251610903756243780683829428148,20249.6,1.6251610903756243780683829428148
226,20431.6260540847765727902457989708789,20430.0,1.6260540847765727902457989708789
227,20612.8269431355341845019189035264071,20611.2,1.6269431355341845019189035264071
228,20794.8278282773372068957045561226934,20793.2,1.6278282773372068957045561226934
229,20977.6287095444186912058823175439906,20976.0,1.6287095444186912058823175439906
230,21161.2295869705639411771053865174507,21159.6,1.6295869705639411771053865174507
231,21345.6304605891182870220452594716227,21344.0,1.6304605891182870220452594716227
232,21530.8313304329946950868744477464736,21529.2,1.6313304329946950868744477464736
233,21716.8321965346812082100752048840740,21715.2,1.6321965346812082100752048840740
234,21903.6330589262482329206235267535662,21902.0,1.6330589262482329206235267535662
235,22091.2339176393556666466315477683564,22089.6,1.6339176393556666466315477683564
236,22279.6347727052598746331996478667907,22278.0,1.6347727052598746331996478667907
237,22468.8356241548205201895880147198423,22467.2,1.6356241548205201895880147198423
238,22658.8364720185072499967010449011201,22657.2,1.6364720185072499967010449011201
