Eigenstate,Energy,Kinetic Energy,Potential Energy
1,0.500000000123304536896936060332210035,0.0,0.500000000123304536896936060332210035
2,1.84623093845598542288574085992450339,1.2,0.64623093845598542288574085992450339
3,3.93633761206923240321627276485868737,3.2,0.73633761206923240321627276485868737
4,6.79966528273875501709189968209930883,6.0,0.79966528273875501709189968209930883
5,10.4480465838160425253085547423983178,9.6,0.8480465838160425253085547423983178
6,14.8870660100703892937166130828701987,14.0,0.8870660100703892937166130828701987
7,20.1197208429468711230076852514323796,19.2,0.9197208429468711230076852514323796
8,26.1477838688261301342958845792414984,25.2,0.9477838688261301342958845792414984
9,32.9723835867166563991703654075511172,32.0,0.9723835867166563991703654075511172
10,40.5942802507684843256311710760813434,39.6,0.9942802507684843256311710760813434
11,49.0140094311237141792706543108765768,48.0,1.0140094311237141792706543108765768
12,58.2319622230878131127591704781288517,57.2,1.0319622230878131127591704781288517
13,68.2484327567272991938347637565909163,67.2,1.0484327567272991938347637565909163
14,79.0636477297259560206555497918309934,78.0,1.0636477297259560206555497918309934
15,90.6777855231990496418920096942469242,89.6,1.0777855231990496418920096942469242
16,103.090989006563793820904869980647647,102.0,1.090989006563793820904869980647647
17,116.303374371000867619020206407722488,115.2,1.103374371000867619020206407722488
18,130.315037380460623839703589984598860,129.2,1.115037380460623839703589984598860
19,145.126057894767072909920156784443178,144.0,1.126057894767072909920156784443178
20,160.736503207251823796529089954987397,159.6,1.136503207251823796529089954987397
21,177.146430550835784447473581195776147,176.0,1.146430550835784447473581195776147
22,194.355889009187904350317026344823797,193.2,1.155889009187904350317026344823797
23,212.364920994661701022392603158907166,211.2,1.164920994661701022392603158907166
24,231.173563405695683581726926650765106,230.0,1.173563405695683581726926650765106
25,250.781848543609280242501872929371371,249.6,1.181848543609280242501872929371371
26,271.189804846410426942364824521992333,270.0,1.189804846410426942364824521992333
27,292.397457481758143884904251221316019,291.2,1.197457481758143884904251221316019
28,314.404828830321575955948358718598009,313.2,1.204828830321575955948358718598009
29,337.211938882981945140081397012301227,336.0,1.211938882981945140081397012301227
30,360.818805569674375486910762186505524,359.6,1.218805569674375486910762186505524
31,385.225445033520612671148499627023836,384.0,1.225445033520612671148499627023836
32,410.431871860825760601956810306144755,409.2,1.231871860825760601956810306144755
33,436.438099275202509730042530117819912,435.2,1.238099275202509730042530117819912
34,463.244139302335785432744925383190244,462.0,1.244139302335785432744925383190244
35,490.850002910561549790117200550640265,489.6,1.250002910561549790117200550640265
36,519.255700131400011185299345991222073,518.0,1.255700131400011185299345991222073
37,548.461240163379411613094861115011966,547.2,1.261240163379411613094861115011966
38,578.466631461856142836861840829658994,577.2,1.266631461856142836861840829658994
39,609.271881817039093883803768389272196,608.0,1.271881817039093883803768389272196
40,640.876998422030311584807337950952463,639.6,1.276998422030311584807337950952463
41,673.281987932377305590946836413220227,672.0,1.281987932377305590946836413220227
42,706.486856518377336697028483952032325,705.2,1.286856518377336697028483952032325
43,740.491609911167540957441181480850938,739.2,1.291609911167540957441181480850938
44,775.296253443466648063924347355583668,774.0,1.296253443466648063924347355583668
45,810.900792085696482885745599589120224,809.6,1.300792085696482885745599589120224
46,847.305230478098302790090199331344109,846.0,1.305230478098302790090199331344109
47,884.509572959365546748053931802011613,883.2,1.309572959365546748053931802011613
48,922.513823592236985867319443842198253,921.2,1.313823592236985867319443842198253
49,961.317986186429602448647134772009343,960.0,1.317986186429602448647134772009343
50,1000.92206431923640194961564041010477,999.6,1.32206431923640194961564041010477
51,1041.32606135406889527653931429455202,1040.0,1.32606135406889527653931429455202
52,1082.52998045718564361116114153218025,1081.2,1.32998045718564361116114153218025
53,1124.53382461281580786014910594341107,1123.2,1.33382461281580786014910594341107
54,1167.33759663685908368394770882556907,1166.0,1.33759663685908368394770882556907
55,1210.94129918931992756900713101246103,1209.6,1.34129918931992756900713101246103
56,1255.34493478561390483727313345895236,1254.0,1.34493478561390483727313345895236
57,1300.54850580686679152168941070635423,1299.2,1.34850580686679152168941070635423
58,1346.55201450931226485016352411036556,1345.2,1.35201450931226485016352411036556
59,1393.35546303288126313316275219455036,1392.0,1.35546303288126313316275219455036
60,1440.95885340906507134239741674444030,1439.6,1.35885340906507134239741674444030
61,1489.36218756812462444053791254697527,1488.0,1.36218756812462444053791254697527
62,1538.56546734571021951679316964041674,1537.2,1.36546734571021951679316964041674
63,1588.56869448894858589415284419583225,1587.2,1.36869448894858589415284419583225
64,1639.37187066204794989416962018475232,1638.0,1.37187066204794989416962018475232
65,1690.97499745146619610518230506246242,1689.6,1.37499745146619610518230506246242
66,1743.37807637068237966082280250361315,1742.0,1.37807637068237966082280250361315
67,1796.58110886460758174432223009734588,1795.2,1.38110886460758174432223009734588
68,1850.58409631366734437332076056076703,1849.2,1.38409631366734437332076056076703
69,1905.38704003758460784915744059279882,1904.0,1.38704003758460784915744059279882
70,1960.98994129888914598634988678568526,1959.6,1.38994129888914598634988678568526
71,2017.39280130617689553424276997054966,2016.0,1.39280130617689553424276997054966
72,2074.59562121714027796042152113554079,2073.2,1.39562121714027796042152113554079
73,2132.59840214138855875908475761694683,2131.2,1.39840214138855875908475761694683
74,2191.40114514307547059901429046317318,2190.0,1.40114514307547059901429046317318
75,2251.00385124334969552467886562050985,2249.6,1.40385124334969552467886562050985
76,2311.40652142264235186725115414172333,2310.0,1.40652142264235186725115414172333
77,2372.60915662280432912389987925080976,2371.2,1.40915662280432912389987925080976
78,2434.61175774910514826553800852994503,2433.2,1.41175774910514826553800852994503
79,2497.41432567210397811321562447839024,2496.0,1.41432567210397811321562447839024
80,2561.01686122940250029770123895940137,2559.6,1.41686122940250029770123895940137
81,2625.41936522728846597531937420073131,2624.0,1.41936522728846597531937420073131
82,2690.62183844227802602255775566357222,2689.2,1.42183844227802602255775566357222
83,2756.62428162256422769816868093460088,2755.2,1.42428162256422769816868093460088
84,2823.42669548937844646977257285233643,2822.0,1.42669548937844646977257285233643
85,2891.02908073827096242579859482362813,2889.6,1.42908073827096242579859482362813
86,2959.43143804031637482820754581072334,2958.0,1.43143804031637482820754581072334
87,3028.63376804324909089064345060617428,3027.2,1.43376804324909089064345060617428
88,3098.63607137253370148892396404263026,3097.2,1.43607137253370148892396404263026
89,3169.43834863237467300861898470154026,3168.0,1.43834863237467300861898470154026
90,3241.04060040666944131773779884293454,3239.6,1.44060040666944131773779884293454
91,3313.44282725990867240049521553590929,3312.0,1.44282725990867240049521553590929
92,3386.64502973802716589058732969613566,3385.2,1.44502973802716589058732969613566
93,3460.64720836920861548735362090129438,3459.2,1.44720836920861548735362090129438
94,3535.44936366464719730946356630399343,3534.0,1.44936366464719730946356630399343
95,3611.05149611926873608673778925075849,3609.6,1.45149611926873608673778925075849
96,3687.45360621241399726859756155991157,3686.0,1.45360621241399726859756155991157
97,3764.65569440848646878552799271674024,3763.2,1.45569440848646878552799271674024
98,3842.65776115756682332564496457408094,3841.2,1.45776115756682332564496457408094
99,3921.45980689599609851626874718604065,3920.0,1.45980689599609851626874718604065
100,4001.06183204692948605999028204363232,3999.6,1.46183204692948605999028204363232
101,4081.46383702086249157056345738970092,4080.0,1.46383702086249157056345738970092
102,4162.66582221613110127923527473361108,4161.2,1.46582221613110127923527473361108
103,4244.66778801938748386851402882923609,4243.2,1.46778801938748386851402882923609
104,4327.46973480605264842566629958583269,4326.0,1.46973480605264842566629958583269
105,4411.07166294074738643447604194075884,4409.6,1.47166294074738643447604194075884
106,4495.47357277770273495955733410469076,4494.0,1.47357277770273495955733410469076
107,4580.67546466115112009555693642935995,4579.2,1.47546466115112009555693642935995
108,4666.67733892569926051402914778652920,4665.2,1.47733892569926051402914778652920
109,4753.47919589668384234723245967075297,4752.0,1.47919589668384234723245967075297
110,4841.08103589051091422797258952969783,4839.6,1.48103589051091422797258952969783
111,4929.48285921497988544341896485920018,4928.0,1.48285921497988544341896485920018
112,5018.68466616959296072718947859305923,5017.2,1.48466616959296072718947859305923
113,5108.68645704585078967820407533988031,5107.2,1.48645704585078967820407533988031
114,5199.48823212753506003705314735139013,5198.0,1.48823212753506003705314735139013
115,5291.08999169097872360212439362332432,5289.6,1.48999169097872360212439362332432
116,5383.49173600532449523608452102246677,5382.0,1.49173600532449523608452102246677
117,5476.69346533277223370030643060695585,5475.2,1.49346533277223370030643060695585
118,5570.69517992881577202372772677154747,5569.2,1.49517992881577202372772677154747
119,5665.49688004246973139891059311995014,5664.0,1.49688004246973139891059311995014
120,5761.09856591648682675583989593881631,5759.6,1.49856591648682675583989593881631
121,5857.50023778756613389675214898675247,5856.0,1.50023778756613389675214898675247
122,5954.70189588655276916215639460660357,5953.2,1.50189588655276916215639460660357
123,6052.70354043862940040527747695086288,6051.2,1.50354043862940040527747695086288
124,6151.50517166349999037234350257952286,6150.0,1.50517166349999037234350257952286
125,6251.10678977556614401987841094080051,6249.6,1.50678977556614401987841094080051
126,6351.50839498409641610286285636640655,6350.0,1.50839498409641610286285636640655
127,6452.70998749338891478974190701710867,6451.2,1.50998749338891478974190701710867
128,6554.71156750292751447306898807856056,6553.2,1.51156750292751447306898807856056
129,6657.51313520753197887133839740614201,6656.0,1.51313520753197887133839740614201
130,6761.11469079750227713569269144519582,6759.6,1.51469079750227713569269144519582
131,6865.51623445875736027107390847595961,6864.0,1.51623445875736027107390847595961
132,6970.71776637296865020418883021967948,6969.2,1.51776637296865020418883021967948
133,7076.71928671768848204907369177116660,7075.2,1.51928671768848204907369177116660
134,7183.52079566647372884508861467216406,7182.0,1.52079566647372884508861467216406
135,7291.12229338900481993382882757552073,7289.6,1.52229338900481993382882757552073
136,7399.52378005120036045391067751610945,7398.0,1.52378005120036045391067751610945
137,7508.72525581532754612464954925442514,7507.2,1.52525581532754612464954925442514
138,7618.72672084010855387765547710490415,7617.2,1.52672084010855387765547710490415
139,7729.52817528082308678946918587446276,7728.0,1.52817528082308678946918587446276
140,7841.12961928940723632239402262635574,7839.6,1.52961928940723632239402262635574
141,7953.53105301454882032318991587171319,7952.0,1.53105301454882032318991587171319
142,8066.73247660177934715603077452518487,8065.2,1.53247660177934715603077452518487
143,8180.73389019356274769595807044507590,8179.2,1.53389019356274769595807044507590
144,8295.53529392938100972942804173684579,8294.0,1.53529392938100972942804173684579
145,8411.13668794581684512079155859849432,8409.6,1.53668794581684512079155859849432
146,8527.53807237663351223479770660406409,8526.0,1.53807237663351223479770660406409
147,8644.73944735285190790224583642327225,8643.2,1.53944735285190790224583642327225
148,8762.74081300282504425787970356510872,8761.2,1.54081300282504425787970356510872
149,8881.54216945231001225154520992997900,8880.0,1.54216945231001225154520992997900
150,9001.14351682453753547355579994070206,8999.6,1.54351682453753547355579994070206
151,9121.54485524027921020858968200628146,9120.0,1.54485524027921020858968200628146
152,9242.74618481791252201735756033942091,9241.2,1.54618481791252201735756033942091
153,9364.74750567348372779580646960649561,9363.2,1.54750567348372779580646960649561
154,9487.54881792076868721117322408089262,9486.0,1.54881792076868721117322408089262
155,9611.15012167133172175095438847371519,9609.6,1.55012167133172175095438847371519
156,9735.55141703458257925123066320887514,9734.0,1.55141703458257925123066320887514
157,9860.75270411783157495102443087285600,9859.2,1.55270411783157495102443087285600
158,9986.75398302634298089087024979617300,9985.2,1.55398302634298089087024979617300
159,10113.5552538633867273285094915409202,10112.0,1.5552538633867273285094915409202
160,10241.1565167302884825093294446297627,10239.6,1.5565167302884825093294446297627
161,10369.5577717264781692877471511048984,10368.0,1.5577717264781692877471511048984
162,10498.7590189495369780607227596942083,10497.2,1.5590189495369780607227596942083
163,10628.7602584952429308667856286757200,10627.2,1.5602584952429308667856286757200
164,10759.5614904576150512872550214977061,10758.0,1.5614904576150512872550214977061
165,10891.1627149289561887499616508792551,10889.6,1.5627149289561887499616508792551
166,11023.5639319998945477511484874173828,11022.0,1.5639319998945477511484874173828
167,11156.7651417594239692279629574345760,11155.2,1.5651417594239692279629574345760
168,11290.7663442949430067705490118052315,11289.2,1.5663442949430067705490118052315
169,11425.5675396922928427359256277884857,11424.0,1.5675396922928427359256277884857
170,11561.1687280357940840068666586581724,11559.6,1.5687280357940840068666586581724
171,11697.5699094082824775903436214890145,11696.0,1.5699094082824775903436214890145
172,11834.7710838911435839222924271949646,11833.2,1.5710838911435839222924271949646
173,11972.7722515643464432811398958680834,11971.2,1.5722515643464432811398958680834
174,12111.5734125064762711537130364035776,12110.0,1.5734125064762711537130364035776
175,12251.1745667947662165385726850676698,12249.6,1.5745667947662165385726850676698
176,12391.5757145051282128932379343913261,12390.0,1.5757145051282128932379343913261
177,12532.7768557121829549859531202263558,12531.2,1.5768557121829549859531202263558
178,12674.7779904892890308065108812520134,12673.2,1.5779904892890308065108812520134
179,12817.5791189085712349811978396342429,12816.0,1.5791189085712349811978396342429
180,12961.1802410409480946383836717086847,12959.6,1.5802410409480946383836717086847
181,13105.5813569561586303734648055576214,13104.0,1.5813569561586303734648055576214
182,13250.7824667227883800086760710066137,13249.2,1.5824667227883800086760710066137
183,13396.7835704082947081971751531107335,13395.2,1.5835704082947081971751531107335
184,13543.5846680790314261130678358300551,13542.0,1.5846680790314261130678358300551
185,13691.1857598002727430356360467096504,13689.6,1.5857598002727430356360467096504
186,13839.5868456362365707965230760375799,13838.0,1.5868456362365707965230760375799
187,13988.7879256501072048905184307202888,13987.2,1.5879256501072048905184307202888
188,14138.7889999040573976863998145347239,14137.2,1.5889999040573976863998145347239
189,14289.5900684592698474690679290691762,14288.0,1.5900684592698474690679290691762
190,14441.1911313759581189641985438965468,14439.6,1.5911313759581189641985438965468
191,14593.5921887133870145681159766490260,14592.0,1.5921887133870145681159766490260
192,14746.7932405298924126652418442723755,14745.2,1.5932405298924126652418442723755
193,14900.7942868829005913371243335204854,14899.2,1.5942868829005913371243335204854
194,15055.5953278289470508039880275543148,15054.0,1.5953278289470508039880275543148
195,15211.1963634236948525313257168594598,15209.6,1.5963634236948525313257168594598
196,15367.5973937219524886935950985325217,15366.0,1.5973937219524886935950985325217
197,15524.7984187776912963705099366017871,15523.2,1.5984187776912963705099366017871
198,15682.7994386440624306380750872183351,15681.2,1.5994386440624306380750872183351
199,15841.6004533734134093883942431420359,15840.0,1.6004533734134093883942431420359
200,16001.2014630173042438186271999615170,15999.6,1.6014630173042438186271999615170
201,16161.6024676265231655656952084500210,16160.0,1.6024676265231655656952084500210
202,16322.8034672511019638630725800796168,16321.2,1.6034672511019638630725800796168
203,16484.8044619403309433745717631933809,16483.2,1.6044619403309433745717631933809
204,16647.6054517427735143202184705110979,16646.0,1.6054517427735143202184705110979
205,16811.2064367062804248597639828124957,16809.6,1.6064367062804248597639828124957
206,16975.6074168780036487527737195755551,16974.0,1.6074168780036487527737195755551
207,17140.8083923044099341661624962072685,17139.2,1.6083923044099341661624962072685
208,17306.8093630312940278508309881999685,17305.2,1.6093630312940278508309881999685
209,17473.6103291037915804304862288573802,17472.0,1.6103291037915804304862288573802
210,17641.2112905663917442985034394670447,17639.6,1.6112905663917442985034394670447
211,17809.6122474629494714820497236219183,17808.0,1.6122474629494714820497236219183
212,17978.8131998366975217008609297542344,17977.2,1.6131998366975217008609297542344
213,18148.8141477302581849988339054252711,18147.2,1.6141477302581849988339054252711
214,18319.6150911856547339243948411799748,18318.0,1.6150911856547339243948411799748
215,18491.2160302443226044661540117627180,18489.6,1.6160302443226044661540117627180
216,18663.6169649471203196985861538496427,18662.0,1.6169649471203196985861538496427
217,18836.8178953343401600970665043559997,18835.2,1.6178953343401600970665043559997
218,19010.8188214457185894950047944096292,19009.2,1.6188214457185894950047944096292
219,19185.6197433204464399563142946889181,19184.0,1.6197433204464399563142946889181
220,19361.2206609971788680716449936853753,19359.6,1.6206609971788680716449936853753
221,19537.6215745140450805809826621396396,19536.0,1.6215745140450805809826621396396
222,19714.8224839086578465202950744786226,19713.2,1.6224839086578465202950744786226
223,19892.8233892181227894533777417454816,19891.2,1.6233892181227894533777417454816
224,20071.6242904790474748485258148008306,20070.0,1.6242904790474748485258148008306
225,20251.2251877275502951569098580291034,20249.6,1.6251877275502951569098580291034
226,20431.6260809992691561309360001357937,20430.0,1.6260809992691561309360001357937
227,20612.8269703293699730257834057319126,20611.2,1.6269703293699730257834057319126
228,20794.8278557525549784946751549708519,20793.2,1.6278557525549784946751549708519
229,20977.6287373030708493303841987887375,20976.0,1.6287373030708493303841987887375
230,21161.2296150147166567395795941959361,21159.6,1.6296150147166567395795941959361
231,21345.6304889208516419396506926262000,21344.0,1.6304889208516419396506926262000
232,21530.8313590544028274873047991982632,21529.2,1.6313590544028274873047991982632
233,21716.8322254478724593248231520705288,21715.2,1.6322254478724593248231520705288
234,21903.6330881333452956904326181740068,21902.0,1.6330881333452956904326181740068
235,22091.2339471424957360642880267750177,22089.6,1.6339471424957360642880267750177
236,22279.6348025065947998492394173727641,22278.0,1.6348025065947998492394173727641
237,22468.8356542565169584069242466774233,22467.2,1.6356542565169584069242466774233
238,22658.8365024227468221806162195765058,22657.2,1.6365024227468221806162195765058
