Eigenstate,Energy,Kinetic Energy,Potential Energy
1,0.500000000219442212169796254230209086,0.0,0.500000000219442212169796254230209086
2,1.84623093908352993659572914293327843,1.2,0.64623093908352993659572914293327843
3,3.93633761391262967236716551305056299,3.2,0.73633761391262967236716551305056299
4,6.79966528657844347996937307991000431,6.0,0.79966528657844347996937307991000431
5,10.4480465904673947974128948973978445,9.6,0.8480465904673947974128948973978445
6,14.8870660203631913575471378772908482,14.0,0.8870660203631913575471378772908482
7,20.1197208577177838761705874149014215,19.2,0.9197208577177838761705874149014215
8,26.1477838889155663533868426614012813,25.2,0.9477838889155663533868426614012813
9,32.9723836129673476550861918964192323,32.0,0.9723836129673476550861918964192323
10,40.5942802840247712697738652187979593,39.6,0.9942802840247712697738652187979593
11,49.0140094722311773911549173976269268,48.0,1.0140094722311773911549173976269268
12,58.2319622728930775242193165593938032,57.2,1.0319622728930775242193165593938032
13,68.2484328160779330411003376151527285,67.2,1.0484328160779330411003376151527285
14,79.0636477994704242299817908562510983,78.0,1.0636477994704242299817908562510983
15,90.6777856041867000870458981268059114,89.6,1.0777856041867000870458981268059114
16,103.090989099644864262739059420679473,102.0,1.090989099644864262739059420679473
17,116.303374477026506132538524372265286,115.2,1.103374477026506132538524372265286
18,130.315037500282918320637155442419411,129.2,1.115037500282918320637155442419411
19,145.126058029239086870599103478872834,144.0,1.126058029239086870599103478872834
20,160.736503357227636633572183029999118,159.6,1.136503357227636633572183029999118
21,177.146430717170534967186587029040693,176.0,1.146430717170534967186587029040693
22,194.355889192737836722472227388290457,193.2,1.155889192737836722472227388290457
23,212.364921196284212584624461381042554,211.2,1.164921196284212584624461381042554
24,231.173563626249374084973891156614342,230.0,1.173563626249374084973891156614342
25,250.781848783954002242686405957023662,249.6,1.181848783954002242686405957023662
26,271.189805107407337123267532121072244,270.0,1.189805107407337123267532121072244
27,292.397457764269755153570555551588259,291.2,1.197457764269755153570555551588259
28,314.404829135211810192443338754408923,313.2,1.204829135211810192443338754408923
29,337.211939211116186512884534116134851,336.0,1.211939211116186512884534116134851
30,360.818805921919524266992463004425228,359.6,1.218805921919524266992463004425228
31,385.225445410745139494017315935360069,384.0,1.225445410745139494017315935360069
32,410.431872263899761139241962664381635,409.2,1.231872263899761139241962664381635
33,436.438099704997759741551239177886727,435.2,1.238099704997759741551239177886727
34,463.244139759725796177165991205019032,462.0,1.244139759725796177165991205019032
35,490.850003396421623778174458591276476,489.6,1.250003396421623778174458591276476
36,519.255700646607298263584721792275733,518.0,1.255700646607298263584721792275733
37,548.461240708812965370319431390059359,547.2,1.261240708812965370319431390059359
38,578.466632038396977327067704801579072,577.2,1.266632038396977327067704801579072
39,609.271882425570240663339450897862001,608.0,1.271882425570240663339450897862001
40,640.876999063436877061704820952550823,639.6,1.276999063436877061704820952550823
41,673.281988607546528686840521205219380,672.0,1.281988607546528686840521205219380
42,706.486857228198646822995417836963285,705.2,1.286857228198646822995417836963285
43,740.491610656532616306171816157724533,739.2,1.291610656532616306171816157724533
44,775.296254225269474221495517344625743,774.0,1.296254225269474221495517344625743
45,810.900792904833411766995581978853564,809.6,1.300792904833411766995581978853564
46,847.305231335468111902215373039292299,846.0,1.305231335468111902215373039292299
47,884.509573855869498787577843878575705,883.2,1.309573855869498787577843878575705
48,922.513824528778888656044922136025010,921.2,1.313824528778888656044922136025010
49,961.317987163915869214603010395779112,960.0,1.317987163915869214603010395779112
50,1000.92206533857611195936237817977825,999.6,1.32206533857611195936237817977825
51,1041.32606241617385482551128975189962,1040.0,1.32606241617385482551128975189962
52,1082.52998156297044737900362409936904,1081.2,1.32998156297044737900362409936904
53,1124.53382576319790063826163616147844,1123.2,1.33382576319790063826163616147844
54,1167.33759783275882248267677609308022,1166.0,1.33759783275882248267677609308022
55,1210.94130043166064411214379498697894,1209.6,1.34130043166064411214379498697894
56,1255.34493607532196845170864620022023,1254.0,1.34493607532196845170864620022023
57,1300.54850714487167243026658868827707,1299.2,1.34850714487167243026658868827707
58,1346.55201589654659787593639096263885,1345.2,1.35201589654659787593639096263885
59,1393.35546447028091182344234116491849,1392.0,1.35546447028091182344234116491849
60,1440.95885489756919252112076745424258,1439.6,1.35885489756919252112076745424258
61,1489.36218910867573319765038121541963,1488.0,1.36218910867573319765038121541963
62,1538.56546893925425464348300769617018,1537.2,1.36546893925425464348300769617018
63,1588.56869613643497577292192617032668,1587.2,1.36869613643497577292192617032668
64,1639.37187236442967885286659454159720,1638.0,1.37187236442967885286659454159720
65,1690.97499920969987124426496855498099,1689.6,1.37499920969987124426496855498099
66,1743.37807818572829816325521181237056,1742.0,1.37807818572829816325521181237056
67,1796.58111073742979867765030123444267,1795.2,1.38111073742979867765030123444267
68,1850.58409824523374099360719094953455,1849.2,1.38409824523374099360719094953455
69,1905.38704202886696041659555349622363,1904.0,1.38704202886696041659555349622363
70,1960.98994335086319510251234399767536,1959.6,1.38994335086319510251234399767536
71,2017.39280341982241601106119630062771,2016.0,1.39280341982241601106119630062771
72,2074.59562339344114923113138243024389,2073.2,1.39562339344114923113138243024389
73,2132.59840438133283584151155884292795,2131.2,1.39840438133283584151155884292795
74,2191.40114744765545562171845595146506,2190.0,1.40114744765545562171845595146506
75,2251.00385361356200982662114395729124,2249.6,1.40385361356200982662114395729124
76,2311.40652385948800868178518622561126,2310.0,1.40652385948800868178518622561126
77,2372.60915912728880685804668147973023,2371.2,1.40915912728880685804668147973023
78,2434.61176032223846438564650080292027,2433.2,1.41176032223846438564650080292027
79,2497.41432831490076364826545505329785,2496.0,1.41432831490076364826545505329785
80,2561.01686394288207497165816212882640,2559.6,1.41686394288207497165816212882640
81,2625.41936801247491398011067121807528,2624.0,1.41936801247491398011067121807528
82,2690.62184130020027244339460236515061,2689.2,1.42184130020027244339460236515061
83,2756.62428455425611560310458751125740,2755.2,1.42428455425611560310458751125740
84,2823.42669849587881467555252135084740,2822.0,1.42669849587881467555252135084740
85,2891.02908382062372395222128128044297,2889.6,1.42908382062372395222128128044297
86,2959.43144119957059605339481300278109,2958.0,1.43144119957059605339481300278109
87,3028.63377128045907141978540203772229,3027.2,1.43377128045907141978540203772229
88,3098.63607468875905474924590019213909,3097.2,1.43607468875905474924590019213909
89,3169.43835202868040758349770019815936,3168.0,1.43835202868040758349770019815936
90,3241.04060388412604303307930493121761,3239.6,1.44060388412604303307930493121761
91,3313.44283081959218717667417750361618,3312.0,1.44283081959218717667417750361618
92,3386.64503338101928337344060632540472,3385.2,1.44503338101928337344060632540472
93,3460.64721209659675347191584281156120,3459.2,1.44721209659675347191584281156120
94,3535.44936747752458697033229930732409,3534.0,1.44936747752458697033229930732409
95,3611.05150001873450802915932707223065,3609.6,1.45150001873450802915932707223065
96,3687.45361019957326841457176760856365,3686.0,1.45361019957326841457176760856365
97,3764.65569848445043010944280211020078,3763.2,1.45569848445043010944280211020078
98,3842.65776532345282845416633196226757,3841.2,1.45776532345282845416633196226757
99,3921.45981115292775320743289423440766,3920.0,1.45981115292775320743289423440766
100,4001.06183639603673857666909870569924,3999.6,1.46183639603673857666909870569924
101,4081.46384146328172396370348415195463,4080.0,1.46384146328172396370348415195463
102,4162.66582675300522159650467720861623,4161.2,1.46582675300522159650467720861623
103,4244.66779265186601930422993797514692,4243.2,1.46779265186601930422993797514692
104,4327.46973953529183942811911431744828,4326.0,1.46973953529183942811911431744828
105,4411.07166776791028178701520799636992,4409.6,1.47166776791028178701520799636992
106,4495.47357770395928785205623060585815,4494.0,1.47357770395928785205623060585815
107,4580.67546968767828520313380896539747,4579.2,1.47546968767828520313380896539747
108,4666.67734405368109210016409193059187,4665.2,1.47734405368109210016409193059187
109,4753.47920112731159340869026410483110,4752.0,1.47920112731159340869026410483110
110,4841.08104122498313669921560134224461,4839.6,1.48104122498313669921560134224461
111,4929.48286465450253147847450125746632,4928.0,1.48286465450253147847450125746632
112,5018.68467171537948507722274305927102,5017.2,1.48467171537948507722274305927102
113,5108.68646269912225318333895363284420,5107.2,1.48646269912225318333895363284420
114,5199.48823788952023425128138824407029,5198.0,1.48823788952023425128138824407029
115,5291.08999756291419657044805184186390,5289.6,1.48999756291419657044805184186390
116,5383.49174198845477844334646481380032,5382.0,1.49174198845477844334646481380032
117,5476.69347142834987021148041719213798,5475.2,1.49347142834987021148041719213798
118,5570.69518613810144583576310824060028,5569.2,1.49518613810144583576310824060028
119,5665.49688636673237802455619647455408,5664.0,1.49688636673237802455619647455408
120,5761.09857235700374506020869084071166,5759.6,1.49857235700374506020869084071166
121,5857.50024434562309920773181736091836,5856.0,1.50024434562309920773181736091836
122,5954.70190256344414767612211302254956,5953.2,1.50190256344414767612211302254956
123,6052.70354723565826490992041525823256,6051.2,1.50354723565826490992041525823256
124,6151.50517858197823730879510975223610,6150.0,1.50517858197823730879510975223610
125,6251.10679681681461190668317273100211,6249.6,1.50679681681461190668317273100211
126,6351.50840214944500534473324219281981,6350.0,1.50840214944500534473324219281981
127,6452.70999478417670889441767139089578,6451.2,1.50999478417670889441767139089578
128,6554.71157492050290270000091298387627,6553.2,1.51157492050290270000091298387627
129,6657.51314275325278033632123022955277,6656.0,1.51314275325278033632123022955277
130,6761.11469847273586639598513971295375,6759.6,1.51469847273586639598513971295375
131,6865.51624226488079441596734278371877,6864.0,1.51624226488079441596734278371877
132,6970.71777431136879747641744609729566,6969.2,1.51777431136879747641744609729566
133,7076.71929478976215202289782510656878,7075.2,1.51929478976215202289782510656878
134,7183.52080387362780418733476204974472,7182.0,1.52080387362780418733476204974472
135,7291.12230173265638977462737826562524,7289.6,1.52230173265638977462737826562524
136,7399.52378853277685539434213963882021,7398.0,1.52378853277685539434213963882021
137,7508.72526443626687490898902483230200,7507.2,1.52526443626687490898902483230200
138,7618.72672960185924175839302789309110,7617.2,1.52672960185924175839302789309110
139,7729.52818418484441561378463508855339,7728.0,1.52818418484441561378463508855339
140,7841.12962833716938636927393101368583,7839.6,1.52962833716938636927393101368583
141,7953.53106220753301392089480484034545,7952.0,1.53106220753301392089480484034545
142,8066.73248594147799411015405232690462,8065.2,1.53248594147799411015405232690462
143,8180.73389968147959255886074277930829,8179.2,1.53389968147959255886074277930829
144,8295.53530356703128094238835949683797,8294.0,1.53530356703128094238835949683797
145,8411.13669773472740606077552904439969,8409.6,1.53669773472740606077552904439969
146,8527.53808231834301419833672716652837,8526.0,1.53808231834301419833672716652837
147,8644.73945744891094505949819451012258,8643.2,1.53945744891094505949819451012258
148,8762.74082325479631061055753836340400,8761.2,1.54082325479631061055753836340400
149,8881.54217986176846062900671344166682,8880.0,1.54217986176846062900671344166682
150,9001.14352739307053860199236311928106,8999.6,1.54352739307053860199236311928106
151,9121.54486596948672388888344752338963,9120.0,1.54486596948672388888344752338963
152,9242.74619570940725044784306263284804,9241.2,1.54619570940725044784306263284804
153,9364.74751672889129107684309532237272,9363.2,1.54751672889129107684309532237272
154,9487.54882914172779106912351717240921,9486.0,1.54882914172779106912351717240921
155,9611.15013305949432951986568204620634,9609.6,1.55013305949432951986568204620634
156,9735.55142859161408615123674433504954,9734.0,1.55142859161408615123674433504954
157,9860.75271584541098470321688962519460,9859.2,1.55271584541098470321688962519460
158,9986.75399492616308470914092202727002,9985.2,1.55399492616308470914092202727002
159,10113.5552659371542853296316331197843,10112.0,1.5552659371542853296316331197843
160,10241.1565289797244075833292897904009,10239.6,1.5565289797244075833292897904009
161,10369.5577841533177134714197603682493,10368.0,1.5577841533177134714197603682493
162,10498.7590315555299214579640299877652,10497.2,1.5590315555299214579640299877652
163,10628.7602712821537731602510144698728,10627.2,1.5602712821537731602510144698728
164,10759.5615034272232058867118063943840,10758.0,1.5615034272232058867118063943840
165,10891.1627280830561796235763742114713,10889.6,1.5627280830561796235763742114713
166,11023.5639453402962089868467275286512,11022.0,1.5639453402962089868467275286512
167,11156.7651552879526473729141798693324,11155.2,1.5651552879526473729141798693324
168,11290.7663580134397659977653887792651,11289.2,1.5663580134397659977653887792651
169,11425.5675536026146728879199797795510,11424.0,1.5675536026146728879199797795510
170,11561.1687421398141115672947888386701,11559.6,1.5687421398141115672947888386701
171,11697.5699237078901796355568156102381,11696.0,1.5699237078901796355568156102381
172,11834.7710983882450051057503015473878,11833.2,1.5710983882450051057503015473878
173,11972.7722662608644159046804426095983,11971.2,1.5722662608644159046804426095983
174,12111.5734274043506383807492064224405,12110.0,1.5734274043506383807492064224405
175,12251.1745818959540588053800908429534,12249.6,1.5745818959540588053800908429534
176,12391.5757298116040775756199492147067,12390.0,1.5757298116040775756199492147067
177,12532.7768712259390893797165127542459,12531.2,1.5768712259390893797165127542459
178,12674.7780062123356184813593192269852,12673.2,1.5780062123356184813593192269852
179,12817.5791348429366355688502635395877,12816.0,1.5791348429366355688502635395877
180,12961.1802571886790871169555923797831,12959.6,1.5802571886790871169555923797831
181,13105.5813733193206599114058796654129,13104.0,1.5813733193206599114058796654129
182,13250.7824833034658084328456941583937,13249.2,1.5824833034658084328456941583937
183,13396.7835872085910681509540247789421,13395.2,1.5835872085910681509540247789421
184,13543.5846851010696789717526120572496,13542.0,1.5846851010696789717526120572496
185,13691.1857770461955406477427716343840,13689.6,1.5857770461955406477427716343840
186,13839.5868631082065211210379462802673,13838.0,1.5868631082065211210379462802673
187,13988.7879433503071416015812890971508,13987.2,1.5879433503071416015812890971508
188,14138.7890178346906538183845290630195,14137.2,1.5890178346906538183845290630195
189,14289.5900866225605331765400301445922,14288.0,1.5900866225605331765400301445922
190,14441.1911497741514034727830762157991,14439.6,1.5911497741514034727830762157991
191,14593.5922073487494123938951848625467,14592.0,1.5922073487494123938951848625467
192,14746.7932594047120741819319912618248,14745.2,1.5932594047120741819319912618248
193,14900.7943059994875977719450093990830,14899.2,1.5943059994875977719450093990830
194,15055.5953471896337137448448296510742,15054.0,1.5953471896337137448448296510742
195,15211.1963830308360180296750558089527,15209.6,1.5963830308360180296750558089527
196,15367.5974135779258460491492374445542,15366.0,1.5974135779258460491492374445542
197,15524.7984388848976916857753955413008,15523.2,1.5984388848976916857753955413008
198,15682.7994590049261852325943221789036,15681.2,1.5994590049261852325943221789036
199,15841.6004739903826431644877983687052,15840.0,1.6004739903826431644877983687052
200,16001.2014838928512036724025433072550,15999.6,1.6014838928512036724025433072550
201,16161.6024887631445589391105761895357,16160.0,1.6024887631445589391105761895357
202,16322.8034886513192975349140087117888,16321.2,1.6034886513192975349140087117888
203,16484.8044836066908675903233155978488,16483.2,1.6044836066908675903233155978488
204,16647.6054736778481723629799689029188,16646.0,1.6054736778481723629799689029188
205,16811.2064589126678081665975991391839,16809.6,1.6064589126678081665975991391839
206,16975.6074393583279576831479024154517,16974.0,1.6074393583279576831479024154517
207,17140.8084150613219445315002606620812,17139.2,1.6084150613219445315002606620812
208,17306.8093860674714633165711952957335,17305.2,1.6093860674714633165711952957335
209,17473.6103524219394909045270246496191,17472.0,1.6103524219394909045270246496191
210,17641.2113141692428904224203885755760,17639.6,1.6113141692428904224203885755760
211,17809.6122713532647153440668531424334,17808.0,1.6122713532647153440668531424334
212,17978.8132240172662238922067560262401,17977.2,1.6132240172662238922067560262401
213,18148.8141722038986081378353281579227,18147.2,1.6141722038986081378353281579227
214,18319.6151159552144527754498810965256,18318.0,1.6151159552144527754498810965256
215,18491.2160553126789227835880463754778,18489.6,1.6160553126789227835880463754778
216,18663.6169903171806939283310208593843,18662.0,1.6169903171806939283310208593843
217,18836.8179210090426300721115990868884,18835.2,1.6179210090426300721115990868884
218,19010.8188474280322162636600413337657,19009.2,1.6188474280322162636600413337657
219,19185.6197696133717508854938907074821,19184.0,1.6197696133717508854938907074821
220,19361.2206876037483093706317015958352,19359.6,1.6206876037483093706317015958352
221,19537.6216014373234773944708593727435,19536.0,1.6216014373234773944708593727435
222,19714.8225111517428707429336194414389,19713.2,1.6225111517428707429336194414389
223,19892.8234167841454354215497827249860,19891.2,1.6234167841454354215497827249860
224,20071.6243183711725430687087178552713,20070.0,1.6243183711725430687087178552713
225,20251.2252159489768842336620163455690,20249.6,1.6252159489768842336620163455690
226,20431.6261095532311630613579072852523,20430.0,1.6261095532311630613579072852523
227,20612.8269992191366020312027112329996,20611.2,1.6269992191366020312027112329996
228,20794.8278849814312585643122621069681,20793.2,1.6278849814312585643122621069681
229,20977.6287668743981606558691376139178,20976.0,1.6287668743981606558691376139178
230,21161.2296449318732662234150254539576,21159.6,1.6296449318732662234150254539576
231,21345.6305191872532479650557466159706,21344.0,1.6305191872532479650557466159706
232,21530.8313896735031141413286358994824,21529.2,1.6313896735031141413286358994824
233,21716.8322564231636602711967395104496,21715.2,1.6322564231636602711967395104496
234,21903.6331194683587678933278077601762,21902.0,1.6331194683587678933278077601762
235,22091.2339788408025435689831200943934,22089.6,1.6339788408025435689831200943934
236,22279.6348345718063078306540675887319,22278.0,1.6348345718063078306540675887319
237,22468.8356866922854377020863678933815,22467.2,1.6356866922854377020863678933815
238,22658.8365352327660645263625212852880,22657.2,1.6365352327660645263625212852880
