Eigenstate,Energy,Kinetic Energy,Potential Energy
1,0.500000000033325277179157809939247037,0.0,0.500000000033325277179157809939247037
2,1.84623093786864460185001035190730026,1.2,0.64623093786864460185001035190730026
3,3.93633761034395197181184690390593957,3.2,0.73633761034395197181184690390593957
4,6.79966527914515246432839653404095762,6.0,0.79966527914515246432839653404095762
5,10.4480465775910983169346638805872545,9.6,0.8480465775910983169346638805872545
6,14.8870660004376735934316939159806122,14.0,0.8870660004376735934316939159806122
7,20.1197208291236198114036546794558928,19.2,0.9197208291236198114036546794558928
8,26.1477838500261882871193989999160674,25.2,0.9477838500261882871193989999160674
9,32.9723835621518401023470176525475037,32.0,0.9723835621518401023470176525475037
10,40.5942802196492654918160847191255270,39.6,0.9942802196492654918160847191255270
11,49.0140093926595866555576243370340420,48.0,1.0140093926595866555576243370340420
12,58.2319621764874963703604249828997145,57.2,1.0319621764874963703604249828997145
13,68.2484327011988535878780499250849244,67.2,1.0484327011988535878780499250849244
14,79.0636476644768471494432984232479674,78.0,1.0636476644768471494432984232479674
15,90.6777854474361819897030501561623737,89.6,1.0777854474361819897030501561623737
16,103.090988919493525096967657680615130,102.0,1.090988919493525096967657680615130
17,116.303374271829010530192839378096787,115.2,1.103374271829010530192839378096787
18,130.315037268392439426359078162031362,129.2,1.115037268392439426359078162031362
19,145.126057769007258060458373983758142,144.0,1.126057769007258060458373983758142
20,160.736503067004494645558971404384428,159.6,1.136503067004494645558971404384428
21,177.146430395304456798032018559682165,176.0,1.146430395304456798032018559682165
22,194.355888837575471900394104369632844,193.2,1.155888837575471900394104369632844
23,212.364920806170411940618179606254039,211.2,1.164920806170411940618179606254039
24,231.173563199527115819684286018497791,230.0,1.173563199527115819684286018497791
25,250.781848318964315863753878087984446,249.6,1.181848318964315863753878087984446
26,271.189804602489225673653530267634496,270.0,1.189804602489225673653530267634496
27,292.397457217760116042243755221036955,291.2,1.197457217760116042243755221036955
28,314.404828545445354860476202503820979,313.2,1.204828545445354860476202503820979
29,337.211938576425359110976019902618916,336.0,1.211938576425359110976019902618916
30,360.818805240634419478356410619217167,359.6,1.218805240634419478356410619217167
31,385.225444681193419605154065267300816,384.0,1.225444681193419605154065267300816
32,410.431871484406572437377947391632361,409.2,1.231871484406572437377947391632361
33,436.438098873885648299415094682547349,435.2,1.238098873885648299415094682547349
34,463.244138875314623071803121196061037,462.0,1.244138875314623071803121196061037
35,490.850002457028479779633412046023423,489.6,1.250002457028479779633412046023423
36,519.255699650546418020776155053508809,518.0,1.255699650546418020776155053508809
37,548.461239654395641114592949821507910,547.2,1.261239654395641114592949821507910
38,578.466630923931472108661007200233952,577.2,1.266630923931472108661007200233952
39,609.271881249361701131518620126593653,608.0,1.271881249361701131518620126593653
40,640.876997823787245795902001688642648,639.6,1.276997823787245795902001688642648
41,673.281987302754456083228977708663076,672.0,1.281987302754456083228977708663076
42,706.486855856559402538586292770884728,705.2,1.286855856559402538586292770884728
43,740.491609216338000260567492799370046,739.2,1.291609216338000260567492799370046
44,775.296252714807727154810539267592104,774.0,1.296252714807727154810539267592104
45,810.900791322389125351093328041760179,809.6,1.300791322389125351093328041760179
46,847.305229679322138401257483244088187,846.0,1.305229679322138401257483244088187
47,884.509572124298860262904514656569779,883.2,1.309572124298860262904514656569779
48,922.513822720056685709565073142623375,921.2,1.313822720056685709565073142623375
49,961.317985276311189264149680264328039,960.0,1.317985276311189264149680264328039
50,1000.92206337035393703883974177977890,999.6,1.32206337035393703883974177977890
51,1041.32606036559496890210834938591367,1040.0,1.32606036559496890210834938591367
52,1082.52997942829134317926369511873367,1081.2,1.32997942829134317926369511873367
53,1124.53382354267068597436425989539767,1123.2,1.33382354267068597436425989539767
54,1167.33759552463112606990084695383742,1166.0,1.33759552463112606990084695383742
55,1210.94129803417552086813038461700290,1209.6,1.34129803417552086813038461700290
56,1255.34493358671780426782279437204166,1254.0,1.34493358671780426782279437204166
57,1300.54850456338208840506444953348470,1299.2,1.34850456338208840506444953348470
58,1346.55201322040035400047202741750154,1345.2,1.35201322040035400047202741750154
59,1393.35546169770181010789623828785212,1392.0,1.35546169770181010789623828785212
60,1440.95885202677597955199362698325477,1439.6,1.35885202677597955199362698325477
61,1489.36218613788200211454070949682657,1488.0,1.36218613788200211454070949682657
62,1538.56546586666834652425192930500519,1537.2,1.36546586666834652425192930500519
63,1588.56869296025988041584286760671549,1587.2,1.36869296025988041584286760671549
64,1639.37186908286293494415852199905063,1638.0,1.37186908286293494415852199905063
65,1690.97499582093346589921410847840472,1689.6,1.37499582093346589921410847840472
66,1743.37807468794856582894206788668297,1742.0,1.37807468794856582894206788668297
67,1796.58110712881731938511343593172576,1795.2,1.38110712881731938511343593172576
68,1850.58409452396323794709349009300988,1849.2,1.38409452396323794709349009300988
69,1905.38703819310719690736500807564462,1904.0,1.38703819310719690736500807564462
70,1960.98993939877687073448854679167788,1959.6,1.38993939877687073448854679167788
71,2017.39279934956606222543835749000309,2016.0,1.39279934956606222543835749000309
72,2074.59561920316502411687263197705349,2073.2,1.39561920316502411687263197705349
73,2132.59840006918081821849359421326625,2131.2,1.39840006918081821849359421326625
74,2191.40114301176493838310010911523911,2190.0,1.40114301176493838310010911523911
75,2251.00384905206379252683266276674382,2249.6,1.40384905206379252683266276674382
76,2311.40651917050618935635524709426142,2310.0,1.40651917050618935635524709426142
77,2372.60915430894067306130074023478911,2371.2,1.40915430894067306130074023478911
78,2434.61175537263438343212610352068429,2433.2,1.41175537263438343212610352068429
79,2497.41432323214407204353157320680851,2496.0,1.41432323214407204353157320680851
80,2561.01685872506896701795348650952669,2559.6,1.41685872506896701795348650952669
81,2625.41936265769432954216389924587347,2624.0,1.41936265769432954216389924587347
82,2690.62183580653378385945653822419314,2689.2,1.42183580653378385945653822419314
83,2756.62427891977781372610900605157822,2755.2,1.42427891977781372610900605157822
84,2823.42669271865519402909501346226928,2822.0,1.42669271865519402909501346226928
85,2891.02907789871356698584671770213709,2889.6,1.42907789871356698584671770213709
86,2959.43143513102485648147789470745801,2958.0,1.43143513102485648147789470745801
87,3028.63376506332075662807884056689639,3027.2,1.43376506332075662807884056689639
88,3098.63606832106310725295812773796457,3097.2,1.43606832106310725295812773796457
89,3169.43834550845358552054485571461427,3168.0,1.43834550845358552054485571461427
90,3241.04059720938679967593574683701009,3239.6,1.44059720938679967593574683701009
91,3313.44282398835054944602074994560938,3312.0,1.44282398835054944602074994560938
92,3386.64502639127672933658162370591595,3385.2,1.44502639127672933658162370591595
93,3460.64720494634608880870238380046580,3459.2,1.44720494634608880870238380046580
94,3535.44936016474982038909234846247526,3534.0,1.44936016474982038909234846247526
95,3611.05149254141072561489352963837538,3609.6,1.45149254141072561489352963837538
96,3687.45360255566650689142762430777203,3686.0,1.45360255566650689142762430777203
97,3764.65569067191754899922834984105902,3763.2,1.45569067191754899922834984105902
98,3842.65775734024138111240999722406984,3841.2,1.45775734024138111240999722406984
99,3921.45980299697585671823413760759644,3920.0,1.45980299697585671823413760759644
100,4001.06182806527294248732016030221001,3999.6,1.46182806527294248732016030221001
101,4081.46383295562487783979096304364857,4080.0,1.46383295562487783979096304364857
102,4162.66581806636434137792397855288948,4161.2,1.46581806636434137792397855288948
103,4244.66778378414015244226479851974013,4243.2,1.46778378414015244226479851974013
104,4327.46973048436992878345041931882025,4326.0,1.46973048436992878345041931882025
105,4411.07165853167102826823194568503089,4409.6,1.47165853167102826823194568503089
106,4495.47356828027101177394315036681795,4494.0,1.47356828027101177394315036681795
107,4580.67546007439878634370571310819296,4579.2,1.47546007439878634370571310819296
108,4666.67733424865750843510761435624597,4665.2,1.47733424865750843510761435624597
109,4753.47919112838025850155704855947156,4752.0,1.47919112838025850155704855947156
110,4841.08103102996943572538907084461895,4839.6,1.48103102996943572538907084461895
111,4929.48285426122075586060376478378139,4928.0,1.48285426122075586060376478378139
112,5018.68466112163268570948118257285451,5017.2,1.48466112163268570948118257285451
113,5108.68645190270209222152424725023218,5107.2,1.48645190270209222152424725023218
114,5199.48822688820683544542450888364279,5198.0,1.48822688820683544542450888364279
115,5291.08998635447599411624304216104974,5289.6,1.48998635447599411624304216104974
116,5383.49173057064836432835055249805930,5382.0,1.49173057064836432835055249805930
117,5476.69345979891984003166400589603525,5475.2,1.49345979891984003166400589603525
118,5570.69517429478024305761158202173103,5569.2,1.49517429478024305761158202173103
119,5665.49687430724013666754134133181947,5664.0,1.49687430724013666754134133181947
120,5761.09856007904813077405414978435275,5759.6,1.49856007904813077405414978435275
121,5857.50023184689914871849710309409669,5856.0,1.50023184689914871849710309409669
122,5954.70188984163410657472093668856447,5953.2,1.50188984163410657472093668856447
123,6052.70353428843142375627291060061333,6051.2,1.50353428843142375627291060061333
124,6151.50516540699076602438800414053477,6150.0,1.50516540699076602438800414053477
125,6251.10678341170939242787816339538544,6249.6,1.50678341170939242787816339538544
126,6351.50838851185146250872178389584915,6350.0,1.50838851185146250872178389584915
127,6452.70998091171063952926921756913184,6451.2,1.50998091171063952926921756913184
128,6554.71156081076630288979024161584749,6553.2,1.51156081076630288979024161584749
129,6657.51312840383367083185127820364283,6656.0,1.51312840383367083185127820364283
130,6761.11468388120811614114291196367082,6759.6,1.51468388120811614114291196367082
131,6865.51622742880394215926019421036638,6864.0,1.51622742880394215926019421036638
132,6970.71775922828787143673753309167179,6969.2,1.51775922828787143673753309167179
133,7076.71927945720748757805570375605418,7075.2,1.51927945720748757805570375605418
134,7183.52078828911485955338010618409623,7182.0,1.52078828911485955338010618409623
135,7291.12228589368555964344658238254179,7289.6,1.52228589368555964344658238254179
136,7399.52377243683328249648080886766567,7398.0,1.52377243683328249648080886766567
137,7508.72524808082025946809391409621242,7507.2,1.52524808082025946809391409621242
138,7618.72671298436364880310606346250217,7617.2,1.52671298436364880310606346250217
139,7729.52816730273808011234439379435850,7728.0,1.52816730273808011234439379435850
140,7841.12961118787451615149334473844763,7839.6,1.52961118787451615149334473844763
141,7953.53104478845559035158533396045581,7952.0,1.53104478845559035158533396045581
142,8066.73246825000757047745302096649243,8065.2,1.53246825000757047745302096649243
143,8180.73388171498909014029468584106584,8179.2,1.53388171498909014029468584106584
144,8295.53528532287678271086764033716380,8294.0,1.53528532287678271086764033716380
145,8411.13667921024794799206522399000275,8409.6,1.53667921024794799206522399000275
146,8527.53806351086037414088222731787162,8526.0,1.53806351086037414088222731787162
147,8644.73943835572942912680751608888443,8643.2,1.53943835572942912680751608888443
148,8762.74080387320253705564921904673750,8761.2,1.54080387320253705564921904673750
149,8881.54216018903114115972372344216047,8880.0,1.54216018903114115972372344216047
150,9001.14350742644025709526245457889588,8999.6,1.54350742644025709526245457889588
151,9121.54484570619571246126664950455127,9120.0,1.54484570619571246126664950455127
152,9242.74617514666916283895568852086940,9241.2,1.54617514666916283895568852086940
153,9364.74749586390097330147798813708428,9363.2,1.54749586390097330147798813708428
154,9487.54880797166104929310127718620105,9486.0,1.54880797166104929310127718620105
155,9611.15011158150769511384953749562108,9609.6,1.55011158150769511384953749562108
156,9735.55140680284457787592379164362879,9734.0,1.55140680284457787592379164362879
157,9860.75269374297586797848360526864819,9859.2,1.55269374297586797848360526864819
158,9986.75397250715962791886417741873288,9985.2,1.55397250715962791886417741873288
159,10113.5552431986595131130355519125640,10112.0,1.5552431986595131130355519125640
160,10241.1565059187948510628148833202034,10239.6,1.5565059187948510628148833202034
161,10369.5577607669891573659240547596490,10368.0,1.5577607669891573659240547596490
162,10498.7590078408171480299651958685582,10497.2,1.5590078408171480299651958685582
163,10628.7602472360503029435846099891474,10627.2,1.5602472360503029435846099891474
164,10759.5614790467010351413915182423882,10758.0,1.5614790467010351413915182423882
165,10891.1627033650655144628204839993656,10889.6,1.5627033650655144628204839993656
166,11023.5639202817651961204973599722858,11022.0,1.5639202817651961204973599722858
167,11156.7651298857871014103996860087210,11155.2,1.5651298857871014103996860087210
168,11290.7663322645228932526963079879981,11289.2,1.5663322645228932526963079879981
169,11425.5675275038067916253279398922587,11424.0,1.5675275038067916253279398922587
170,11561.1687156879523686334159295119721,11559.6,1.5687156879523686334159295119721
171,11697.5698968997882634089310472119484,11696.0,1.5698968997882634089310472119484
172,11834.7710712206928547072516748683498,11833.2,1.5710712206928547072516748683498
173,11972.7722387306279266029133741975137,11971.2,1.5722387306279266029133741975137
174,12111.5733995081713631280351628602529,12110.0,1.5733995081713631280351628602529
175,12251.1745536305489058383267714526776,12249.6,1.5745536305489058383267714526776
176,12391.5757011736650040130009645630950,12390.0,1.5757011736650040130009645630950
177,12532.7768422121327907490997238433468,12531.2,1.5768422121327907490997238433468
178,12674.7779768193032141046016665836642,12673.2,1.5779768193032141046016665836642
179,12817.5791050672933497352278727269055,12816.0,1.5791050672933497352278727269055
180,12961.1802270270139259713162061483195,12959.6,1.5802270270139259713162061483195
181,13105.5813427681960839833215695210570,13104.0,1.5813427681960839833215695210570
182,13250.7824523594174007312985706811878,13249.2,1.5824523594174007312985706811878
183,13396.7835558681271977476118616256451,13395.2,1.5835558681271977476118616256451
184,13543.5846533606711599943811651758205,13542.0,1.5846533606711599943811651758205
185,13691.1857449023152866037556169163453,13689.6,1.5857449023152866037556169163453
186,13839.5868305572691944696074236536746,13838.0,1.5868305572691944696074236536746
187,13988.7879103887087984911135208403788,13987.2,1.5879103887087984911135208403788
188,14138.7889844587983839045102058140063,14137.2,1.5889844587983839045102058140063
189,14289.5900528287120944340792434771554,14288.0,1.5900528287120944340792434771554
190,14441.1911155586548519134107038153900,14439.6,1.5911155586548519134107038153900
191,14593.5921727078827265994615597244845,14592.0,1.5921727078827265994615597244845
192,14746.7932243347227745615796362883444,14745.2,1.5932243347227745615796362883444
193,14900.7942704965923604493067896567348,14899.2,1.5942704965923604493067896567348
194,15055.5953112500179789797093840188756,15054.0,1.5953112500179789797093840188756
195,15211.1963466506535930765595116627646,15209.6,1.5963466506535930765595116627646
196,15367.5973767532985023532312133727310,15366.0,1.5973767532985023532312133727310
197,15524.7984016119147563145965388520916,15523.2,1.5984016119147563145965388520916
198,15682.7994212796441264398639531187841,15681.2,1.5994212796441264398639531187841
199,15841.6004358088246499801763584850210,15840.0,1.6004358088246499801763584850210
200,16001.2014452510067594111311121645062,15999.6,1.6014452510067594111311121645062
201,16161.6024496569690085166023937382207,16160.0,1.6024496569690085166023937382207
202,16322.8034490767334084799791351143763,16321.2,1.6034490767334084799791351143763
203,16484.8044435595803846375017633887269,16483.2,1.6044435595803846375017633887269
204,16647.6054331540633655085612304523098,16646.0,1.6054331540633655085612304523098
205,16811.2064179080230140682737081018802,16809.6,1.6064179080230140682737081018802
206,16975.6073978686011142810298518237496,16974.0,1.6073978686011142810298518237496
207,17140.8083730822541187656455130878986,17139.2,1.6083730822541187656455130878986
208,17306.8093435947663718135204531431468,17305.2,1.6093435947663718135204531431468
209,17473.6103094512630135026342521212369,17472.0,1.6103094512630135026342521212369
210,17641.2112706962225764029801985168999,17639.6,1.6112706962225764029801985168999
211,17809.6122273734892822323953630348027,17808.0,1.6122273734892822323953630348027
212,17978.8131795262850486899106597205681,17977.2,1.6131795262850486899106597205681
213,18148.8141271972212108445107219540740,18147.2,1.6141271972212108445107219540740
214,18319.6150704283099720549888821254639,18318.0,1.6150704283099720549888821254639
215,18491.2160092609755836271237395289922,18489.6,1.6160092609755836271237395289922
216,18663.6169437360652671626297475373701,18662.0,1.6169437360652671626297475373701
217,18836.8178738938598835589190500826621,18835.2,1.6178738938598835589190500826621
218,19010.8187997740843576321192988448795,19009.2,1.6187997740843576321192988448795
219,19185.6197214159178616362784256981827,19184.0,1.6197214159178616362784256981827
220,19361.2206388580037701868786057242761,19359.6,1.6206388580037701868786057242761
221,19537.6215521384593844909441291387690,19536.0,1.6215521384593844909441291387690
222,19714.8224612948854430811031599712610,19713.2,1.6224612948854430811031599712610
223,19892.8233663643754126144289822645585,19891.2,1.6233663643754126144289822645585
224,20071.6242673835245737953533770181483,20070.0,1.6242673835245737953533770181483
225,20251.2251643884389049791890964558954,20249.6,1.6251643884389049791890964558954
226,20431.6260574147437669941963310888555,20430.0,1.6260574147437669941963310888555
227,20612.8269464975923978250339140700176,20611.2,1.6269464975923978250339140700176
228,20794.8278316716742189677888929799634,20793.2,1.6278316716742189677888929799634
229,20977.6287129712229606087216478527987,20976.0,1.6287129712229606087216478527987
230,21161.2295904300246103129573987305827,21159.6,1.6295904300246103129573987305827
231,21345.6304640814251870123804196244337,21344.0,1.6304640814251870123804196244337
232,21530.8313339583383507016380093043625,21529.2,1.6313339583383507016380093043625
233,21716.8322000932528428277443135765454,21715.2,1.6322000932528428277443135765454
234,21903.6330625182397735193360474530452,21902.0,1.6330625182397735193360474530452
235,22091.2339212649597488266654831284808,22089.6,1.6339212649597488266654831284808
236,22279.6347763646698476710846807996609,22278.0,1.6347763646698476710846807996609
237,22468.8356278482304521241332532851027,22467.2,1.6356278482304521241332532851027
238,22658.8364757461119327472255834511650,22657.2,1.6364757461119327472255834511650
