Eigenstate,Energy,Kinetic Energy,Potential Energy
1,0.500000005517009439168065510186067346,0.0,0.500000005517009439168065510186067346
2,1.84623097366694973483819446848179938,1.2,0.64623097366694973483819446848179938
3,3.93633771551534048464838126207567679,3.2,0.73633771551534048464838126207567679
4,6.79966549825297852444588494248373253,6.0,0.79966549825297852444588494248373253
5,10.4480469572363192444487224261350900,9.6,0.8480469572363192444487224261350900
6,14.8870665881038978919287610393272679,14.0,0.8870665881038978919287610393272679
7,20.1197216727627431187750366719419270,19.2,0.9197216727627431187750366719419270
8,26.1477849978959751501039912121172630,25.2,0.9477849978959751501039912121172630
9,32.9723850627500061871708933156610731,32.0,0.9723850627500061871708933156610731
10,40.5942821216889416005768827699199729,39.6,0.9942821216889416005768827699199729
11,49.0140117450643447620219515984090439,48.0,1.0140117450643447620219515984090439
12,58.2319650283964291109653347398792522,57.2,1.0319650283964291109653347398792522
13,68.2484361019772150428953857048043628,67.2,1.0484361019772150428953857048043628
14,79.0636516637299851852183471567849955,78.0,1.0636516637299851852183471567849955
15,90.6777900950255499825447245796290597,89.6,1.0777900950255499825447245796290597
16,103.090994265554095876416975289249295,102.0,1.090994265554095876416975289249295
17,116.303380366787700753030623308326977,115.2,1.103380366787700753030623308326977
18,130.315044162987312006943785833548078,129.2,1.115044162987312006943785833548078
19,145.126065514307363049546688881766314,144.0,1.126065514307363049546688881766314
20,160.736511714430264952420359282713118,159.6,1.136511714430264952420359282713118
21,177.146439996648610116973576339408827,176.0,1.146439996648610116973576339408827
22,194.355899445024392736546775582686604,193.2,1.155899445024392736546775582686604
23,212.364932472326002603208182459049978,211.2,1.164932472326002603208182459049978
24,231.173575977429115510118274098394297,230.0,1.173575977429115510118274098394297
25,250.781862262113094240654451828067287,249.6,1.181862262113094240654451828067287
26,271.189819764869062581464459172831256,270.0,1.189819764869062581464459172831256
27,292.397473653862983109348665694697720,291.2,1.197473653862983109348665694697720
28,314.404846310295217835957156146578521,313.2,1.204846310295217835957156146578521
29,337.211957725603022398657767406375938,336.0,1.211957725603022398657767406375938
30,360.818825830302936532316725571717635,359.6,1.218825830302936532316725571717635
31,385.225466768124094802278852334901316,384.0,1.225466768124094802278852334901316
32,410.431895126005581830401170958273026,409.2,1.231895126005581830401170958273026
33,436.438124128221308342744495320214444,435.2,1.238124128221308342744495320214444
34,463.244165801145338049183955172785456,462.0,1.244165801145338049183955172785456
35,490.850031113831400282295262257593453,489.6,1.250031113831400282295262257593453
36,519.255730098546844453787871386249578,518.0,1.255730098546844453787871386249578
37,548.461271954597207868720234223048436,547.2,1.261271954597207868720234223048436
38,578.466665138147149742047714147052901,577.2,1.266665138147149742047714147052901
39,609.271917440245655674311933560170292,608.0,1.271917440245655674311933560170292
40,640.877036054867596133883121820616231,639.6,1.277036054867596133883121820616231
41,673.282027638466972304771363594889947,672.0,1.282027638466972304771363594889947
42,706.486898362282190153221118560281601,705.2,1.286898362282190153221118560281601
43,740.491653958427217327005798251089593,739.2,1.291653958427217327005798251089593
44,775.296299760634383601202400873136977,774.0,1.296299760634383601202400873136977
45,810.900840740377016140368890426274873,809.6,1.300840740377016140368890426274873
46,847.305281538986964699547425008668459,846.0,1.305281538986964699547425008668459
47,884.509626496288595419542309423754704,883.2,1.309626496288595419542309423754704
48,922.513879676193245663796260146207315,921.2,1.313879676193245663796260146207315
49,961.318044889633469967658821986506544,960.0,1.318044889633469967658821986506544
50,1000.92212571516228463650917764886408,999.6,1.32212571516228463650917764886408
51,1041.32612551749715175876262905321980,1040.0,1.32612551749715175876262905321980
52,1082.53004746425009839103395578788434,1081.2,1.33004746425009839103395578788434
53,1124.53389454105291677425112451984114,1123.2,1.33389454105291677425112451984114
54,1167.33766956525883054365346311798139,1166.0,1.33766956525883054365346311798139
55,1210.94137519837853665540041774880463,1209.6,1.34137519837853665540041774880463
56,1255.34501395738845845264852933387645,1254.0,1.34501395738845845264852933387645
57,1300.54858822503184661846005771510611,1299.2,1.34858822503184661846005771510611
58,1346.55210025921856788715518386501253,1345.2,1.35210025921856788715518386501253
59,1393.35555220161666777143821788076258,1392.0,1.35555220161666777143821788076258
60,1440.95894608551776941238294318456484,1439.6,1.35894608551776941238294318456484
61,1489.36228384304880681562044506170663,1488.0,1.36228384304880681562044506170663
62,1538.56556731179429014422725265678764,1537.2,1.36556731179429014422725265678764
63,1588.56879824088605929299567168714355,1587.2,1.36879824088605929299567168714355
64,1639.37197829661116996550691447152855,1638.0,1.37197829661116996550691447152855
65,1690.97510906758302214852233130196213,1689.6,1.37510906758302214852233130196213
66,1743.37819206951599409158168010337127,1742.0,1.37819206951599409158168010337127
67,1796.58122874963958320375747873550890,1795.2,1.38122874963958320375747873550890
68,1850.58422049078429976065352739765551,1849.2,1.38422049078429976065352739765551
69,1905.38716861516824733672078194860916,1904.0,1.38716861516824733672078194860916
70,1960.99007438791039635753804906849923,1959.6,1.39007438791039635753804906849923
71,2017.39293902029395927117389495515623,2016.0,1.39293902029395927117389495515623
72,2074.59576367280097846902340924327852,2073.2,1.39576367280097846902340924327852
73,2132.59854945793718602557146497680929,2131.2,1.39854945793718602557146497680929
74,2191.40129744286437650156946122592921,2190.0,1.40129744286437650156946122592921
75,2251.00400865185590406329434657809873,2249.6,1.40400865185590406329434657809873
76,2311.40668406858946681654947271451991,2310.0,1.40668406858946681654947271451991
77,2372.60932463829004016105584687234325,2371.2,1.40932463829004016105584687234325
78,2434.61193126973465659034997297033718,2433.2,1.41193126973465659034997297033718
79,2497.41450483712968408323043064807796,2496.0,1.41450483712968408323043064807796
80,2561.01704618187031878340030915579860,2559.6,1.41704618187031878340030915579860
81,2625.41955611419116014739200240071973,2624.0,1.41955611419116014739200240071973
82,2690.62203541471597727877684425466831,2689.2,1.42203541471597727877684425466831
83,2756.62448483591408860139804422780320,2755.2,1.42448483591408860139804422780320
84,2823.42690510347015509960632772316540,2822.0,1.42690510347015509960632772316540
85,2891.02929691757363066319898759975927,2889.6,1.42929691757363066319898759975927
86,2959.43166095413360003682507467130731,2958.0,1.43166095413360003682507467130731
87,3028.63399786592428049765706320846897,3027.2,1.43399786592428049765706320846897
88,3098.63630828366604339765131725638580,3097.2,1.43630828366604339765131725638580
89,3169.43859281704643192228000830243397,3168.0,1.43859281704643192228000830243397
90,3241.04085205568531228187046328446550,3239.6,1.44085205568531228187046328446550
91,3313.44308657004797858351511858159822,3312.0,1.44308657004797858351511858159822
92,3386.64529691230974826584405270169725,3385.2,1.44529691230974826584405270169725
93,3460.64748361717532815441386743608945,3459.2,1.44748361717532815441386743608945
94,3535.44964720265599425228217008721340,3534.0,1.44964720265599425228217008721340
95,3611.05178817080741383135461761982696,3609.6,1.45178817080741383135461761982696
96,3687.45390700843074386460813956115264,3686.0,1.45390700843074386460813956115264
97,3764.65600418773946356727117824228112,3763.2,1.45600418773946356727117824228112
98,3842.65808016699423487663366040679283,3841.2,1.45808016699423487663366040679283
99,3921.46013539110794113479271770146383,3920.0,1.46013539110794113479271770146383
100,4001.06217029222291889486475887706411,3999.6,1.46217029222291889486475887706411
101,4081.46418529026228068892799627913830,4080.0,1.46418529026228068892799627913830
102,4162.66618079345711462282940351317329,4161.2,1.46618079345711462282940351317329
103,4244.66815719885125390627057538759773,4243.2,1.46815719885125390627057538759773
104,4327.47011489278521907520741802486207,4326.0,1.47011489278521907520741802486207
105,4411.07205425136086148982030981368165,4409.6,1.47205425136086148982030981368165
106,4495.47397564088816707714060772731223,4494.0,1.47397564088816707714060772731223
107,4580.67587941831562490899403060189659,4579.2,1.47587941831562490899403060189659
108,4666.67776593164551257136382934994997,4665.2,1.47776593164551257136382934994997
109,4753.47963552033541159694376507882557,4752.0,1.47963552033541159694376507882557
110,4841.08148851568723748903584830519500,4839.6,1.48148851568723748903584830519500
111,4929.48332524122504098601345920482512,4928.0,1.48332524122504098601345920482512
112,5018.68514601306283069175776650879731,5017.2,1.48514601306283069175776650879731
113,5108.68695114026366022441561861077685,5107.2,1.48695114026366022441561861077685
114,5199.48874092519122933591674190209051,5198.0,1.48874092519122933591674190209051
115,5291.09051566385527054431974096622154,5289.6,1.49051566385527054431974096622154
116,5383.49227564625201565924560128423939,5382.0,1.49227564625201565924560128423939
117,5476.69402115670108601967275982912596,5475.2,1.49402115670108601967275982912596
118,5570.69575247418020195467336620036726,5569.2,1.49575247418020195467336620036726
119,5665.49746987265917942725998035515475,5664.0,1.49746987265917942725998035515475
120,5761.09917362143477779522958769852138,5759.6,1.49917362143477779522958769852138
121,5857.50086398546806444324940736080857,5856.0,1.50086398546806444324940736080857
122,5954.70254122572610459848752026718475,5953.2,1.50254122572610459848752026718475
123,6052.70420559952993901196487126360251,6051.2,1.50420559952993901196487126360251
124,6151.50585736091101059254491066056946,6150.0,1.50585736091101059254491066056946
125,6251.10749676097842243114648562107410,6249.6,1.50749676097842243114648562107410
126,6351.50912404829968658937182593748346,6350.0,1.50912404829968658937182593748346
127,6452.71073946929794350288340432717229,6451.2,1.51073946929794350288340432717229
128,6554.71234326866900855982578198985838,6553.2,1.51234326866900855982578198985838
129,6657.51393568982205920705252836323836,6656.0,1.51393568982205920705252836323836
130,6761.11551697534830979631817008957281,6759.6,1.51551697534830979631817008957281
131,6865.51708736752265849257047118686501,6864.0,1.51708736752265849257047118686501
132,6970.71864710884404913652701981453552,6969.2,1.51864710884404913652701981453552
133,7076.72019644262119936345019385981030,7075.2,1.52019644262119936345019385981030
134,7183.52173561361143357223525043957447,7182.0,1.52173561361143357223525043957447
135,7291.12326486872165766476320610009709,7289.6,1.52326486872165766476320610009709
136,7399.52478445778209246257106285932884,7398.0,1.52478445778209246257106285932884
137,7508.72629463440528234735002615847690,7507.2,1.52629463440528234735002615847690
138,7618.72779565694520260901355524970981,7617.2,1.52779565694520260901355524970981
139,7729.52928778957411446970392835802563,7728.0,1.52928778957411446970392835802563
140,7841.13077130349826286862719850561100,7839.6,1.53077130349826286862719850561100
141,7953.53224647833776604898237345696611,7952.0,1.53224647833776604898237345696611
142,8066.73371360370130391820763325593827,8065.2,1.53371360370130391820763325593827
143,8180.73517298099275072046911620037184,8179.2,1.53517298099275072046911620037184
144,8295.53662492549507710565276601392686,8294.0,1.53662492549507710565276601392686
145,8411.13806976878714104180475608085879,8409.6,1.53806976878714104180475608085879
146,8527.53950786156201685426670026914467,8526.0,1.53950786156201685426670026914467
147,8644.74093957693212016156258077543167,8643.2,1.54093957693212016156258077543167
148,8762.74236531432771697487063455111464,8761.2,1.54236531432771697487063455111464
149,8881.54378550412297818699781529903629,8880.0,1.54378550412297818699781529903629
150,9001.14520061315970934943734701813483,8999.6,1.54520061315970934943734701813483
151,9121.54661115138617400631988838951211,9120.0,1.54661115138617400631988838951211
152,9242.74801767989118820268209253782685,9241.2,1.54801767989118820268209253782685
153,9364.74942082069777410904832200185800,9363.2,1.54942082069777410904832200185800
154,9487.55082126879456281613445843049435,9486.0,1.55082126879456281613445843049435
155,9611.15221980703913821005694906111545,9609.6,1.55221980703913821005694906111545
156,9735.55361732478379759133110384989481,9734.0,1.55361732478379759133110384989481
157,9860.75501484137802105995618472651052,9859.2,1.55501484137802105995618472651052
158,9986.75641353613487762289296786144293,9985.2,1.55641353613487762289296786144293
159,10113.5578147869751804018202739834406,10112.0,1.5578147869751804018202739834406
160,10241.1592202208856534083130587537832,10239.6,1.5592202208856534083130587537832
161,10369.5606317807109957160899185067655,10368.0,1.5606317807109957160899185067655
162,10498.7620518149184063853886538611299,10497.2,1.5620518149184063853886538611299
163,10628.7634832002925215170886311888317,10627.2,1.5634832002925215170886311888317
164,10759.5649295128540396067362024380032,10758.0,1.5649295128540396067362024380032
165,10891.1663952711210095558834265001257,10889.6,1.5663952711210095558834265001257
166,11023.5678862909145466263403124930525,11022.0,1.5678862909145466263403124930525
167,11156.7694102176640791419927231011066,11155.2,1.5694102176640791419927231011066
168,11290.7709773517052550571996266407595,11289.2,1.5709773517052550571996266407595
169,11425.5726019785163456383754165555232,11424.0,1.5726019785163456383754165555232
170,11561.1743046151641028919560900001741,11559.6,1.5743046151641028919560900001741
171,11697.5761160268656517715689725047687,11696.0,1.5761160268656517715689725047687
172,11834.7780849418166676990137031113549,11833.2,1.5780849418166676990137031113549
173,11972.7802943112690755341821295024290,11971.2,1.5802943112690755341821295024290
174,12111.5829001717434741627286953594486,12110.0,1.5829001717434741627286953594486
175,12251.1862430211869976029033927917759,12249.6,1.5862430211869976029033927917759
176,12391.5912750009322696148230556498996,12390.0,1.5912750009322696148230556498996
177,12532.8024914334477085031728028331734,12531.2,1.6024914334477085031728028331734
