Eigenstate,Energy,Kinetic Energy,Potential Energy
1,0.500000000334348117181323616791280772,0.0,0.500000000334348117181323616791280772
2,1.84623093983359020426710536934315130,1.2,0.64623093983359020426710536934315130
3,3.93633761611593687199789160789871928,3.2,0.73633761611593687199789160789871928
4,6.79966529116786824442712982051588865,6.0,0.79966529116786824442712982051588865
5,10.4480465984176314277985459728868750,9.6,0.8480465984176314277985459728868750
6,14.8870660326662548644755261270764321,14.0,0.8870660326662548644755261270764321
7,20.1197208753740238697274744149149774,19.2,0.9197208753740238697274744149149774
8,26.1477839129299583855988916197694716,25.2,0.9477839129299583855988916197694716
9,32.9723836443478044832060161528558179,32.0,0.9723836443478044832060161528558179
10,40.5942803237813187660938512708678235,39.6,0.9942803237813187660938512708678235
11,49.0140095213755375619477106894768715,48.0,1.0140095213755375619477106894768715
12,58.2319623324384590595067222541572516,57.2,1.0319623324384590595067222541572516
13,68.2484328870389349205694067763849565,67.2,1.0484328870389349205694067763849565
14,79.0636478828630044698805224885341693,78.0,1.0636478828630044698805224885341693
15,90.6777857010281838637180911940112422,89.6,1.0777857010281838637180911940112422
16,103.090989210953976850171216988616029,102.0,1.090989210953976850171216988616029
17,116.303374603823422061764249033490958,115.2,1.103374603823422061764249033490958
18,130.315037643589321499576157112968437,129.2,1.115037643589321499576157112968437
19,145.126058190078238336588501105403625,144.0,1.126058190078238336588501105403625
20,160.736503536624447773565266863982728,159.6,1.136503536624447773565266863982728
21,177.146430916151644761827794887728893,176.0,1.146430916151644761827794887728893
22,194.355889412331692030226717834531929,193.2,1.155889412331692030226717834531929
23,212.364921437521150782882341189944120,211.2,1.164921437521150782882341189944120
24,231.173563890161707586147411797216597,230.0,1.173563890161707586147411797216597
25,250.781849071576104540552934315105488,249.6,1.181849071576104540552934315105488
26,271.189805419775730120215778226658012,270.0,1.189805419775730120215778226658012
27,292.397458102423197586868203602852767,291.2,1.197458102423197586868203602852767
28,314.404829500191387026096123713731102,313.2,1.204829500191387026096123713731102
29,337.211939603965399196962368091428970,336.0,1.211939603965399196962368091428970
30,360.818806343684381792371845233140835,359.6,1.218806343684381792371845233140835
31,385.225445862474250189988194392132839,384.0,1.225445862474250189988194392132839
32,410.431872746644425176182209695558346,409.2,1.231872746644425176182209695558346
33,436.438100219812062312162782378446755,435.2,1.238100219812062312162782378446755
34,463.244140307666701338499067225151336,462.0,1.244140307666701338499067225151336
35,490.850003978549068943490311177801835,489.6,1.250003978549068943490311177801835
36,519.255701263984289338492146168364678,518.0,1.255701263984289338492146168364678
37,548.461241362505672531912767719983791,547.2,1.261241362505672531912767719983791
38,578.466632729474831448247597625535173,577.2,1.266632729474831448247597625535173
39,609.271883155106030387303979036180817,608.0,1.271883155106030387303979036180817
40,640.876999832506846533901269995525124,639.6,1.276999832506846533901269995525124
41,673.281989417230475953575739640890118,672.0,1.281989417230475953575739640890118
42,706.486858079580022907500014504173127,705.2,1.286858079580022907500014504173127
43,740.491611550698624974264041931521749,739.2,1.291611550698624974264041931521749
44,775.296255163311172450145405767551810,774.0,1.296255163311172450145405767551810
45,810.900793887845810930087795884819868,809.6,1.300793887845810930087795884819868
46,847.305232364550279688681321148941633,846.0,1.305232364550279688681321148941633
47,884.509574932124661867838566309655307,883.2,1.309574932124661867838566309655307
48,922.513825653314536113395404705716841,921.2,1.313825653314536113395404705716841
49,961.317988337843856758791952232287632,960.0,1.317988337843856758791952232287632
50,1000.92206656301276694019143505842583,999.6,1.32206656301276694019143505842583
51,1041.32606369224008206480501531019516,1040.0,1.32606369224008206480501531019516
52,1082.52998289179183583979380631007399,1081.2,1.32998289179183583979380631007399
53,1124.53382714590483095049451464232354,1123.2,1.33382714590483095049451464232354
54,1167.33759927048657534519460037151076,1166.0,1.33759927048657534519460037151076
55,1210.94130192554950959111749326670216,1209.6,1.34130192554950959111749326670216
56,1255.34493762651735619611063142084189,1254.0,1.34493762651735619611063142084189
57,1300.54850875452422282537447773092840,1299.2,1.34850875452422282537447773092840
58,1346.55201756581229415625321831504297,1345.2,1.35201756581229415625321831504297
59,1393.35546620032119316680818667255312,1392.0,1.35546620032119316680818667255312
60,1440.95885668955106814617715181689325,1439.6,1.35885668955106814617715181689325
61,1489.36219096377189748720403178709855,1488.0,1.36219096377189748720403178709855
62,1538.56547085864320331670097440723262,1537.2,1.36547085864320331670097440723262
63,1588.56869812130112312967606396519945,1587.2,1.36869812130112312967606396519945
64,1639.37187441596347611393490716866082,1638.0,1.37187441596347611393490716866082
65,1690.97500132909792601148999869168998,1689.6,1.37500132909792601148999869168998
66,1743.37808037419349502415615993333726,1742.0,1.37808037419349502415615993333726
67,1796.58111299617142097938783715106867,1795.2,1.38111299617142097938783715106867
68,1850.58410057546759381160741170867750,1849.2,1.38410057546759381160741170867750
69,1905.38704443181549474355430983187758,1904.0,1.38704443181549474355430983187758
70,1960.98994582775563328392140140004796,1959.6,1.38994582775563328392140140004796
71,2017.39280597189487845382765436101011,2016.0,1.39280597189487845382765436101011
72,2074.59562602193678241229725808637033,2073.2,1.39562602193678241229725808637033
73,2132.59840708750194164452678952524518,2131.2,1.39840708750194164452678952524518
74,2191.40115023275562202817406415281102,2190.0,1.40115023275562202817406415281102
75,2251.00385647885824299181327960272780,2249.6,1.40385647885824299181327960272780
76,2311.40652680625286642295341373401098,2310.0,1.40652680625286642295341373401098
77,2372.60916215680253358461395898405530,2371.2,1.40916215680253358461395898405530
78,2434.61176343578912750128179280364008,2433.2,1.41176343578912750128179280364008
79,2497.41433151378439145509491280765904,2496.0,1.41433151378439145509491280765904
80,2561.01686722840279610746636811969548,2559.6,1.41686722840279610746636811969548
81,2625.41937138594509841990162721085084,2624.0,1.41937138594509841990162721085084
82,2690.62184476294067409722143305601916,2689.2,1.42184476294067409722143305601916
83,2756.62428810759601654262852495898850,2755.2,1.42428810759601654262852495898850
84,2823.42670214115617102235663922698527,2822.0,1.42670214115617102235663922698527
85,2891.02908755918531346148197929936121,2889.6,1.42908755918531346148197929936121
86,2959.43144503277216742710447023388562,2958.0,1.43144503277216742710447023388562
87,3028.63377520966549538432483212957701,3027.2,1.43377520966549538432483212957701
88,3098.63607871534447693272391156597729,3097.2,1.43607871534447693272391156597729
89,3169.43835615402840322890796284832600,3168.0,1.43835615402840322890796284832600
90,3241.04060810962977358397313868988333,3239.6,1.44060810962977358397313868988333
91,3313.44283514665455877271144143296883,3312.0,1.44283514665455877271144143296883
92,3386.64503781105310729385930886055271,3385.2,1.44503781105310729385930886055271
93,3460.64721663102490856565691622254715,3459.2,1.44721663102490856565691622254715
94,3535.44937211778018411226684150802800,3534.0,1.44937211778018411226684150802800
95,3611.05150476626105664259467677938703,3609.6,1.45150476626105664259467677938703
96,3687.45361505582484510095793854065235,3686.0,1.45361505582484510095793854065235
97,3764.65570345089184942696495389842596,3763.2,1.45570345089184942696495389842596
98,3842.65777040155981588769002756985719,3841.2,1.45777040155981588769002756985719
99,3921.45981634418712037307011618013220,3920.0,1.45981634418712037307011618013220
100,4001.06184170194656070505156895611668,3999.6,1.46184170194656070505156895611668
101,4081.46384688535151970689011976833206,4080.0,1.46384688535151970689011976833206
102,4162.66583229275613520430855768259947,4161.2,1.46583229275613520430855768259947
103,4244.66779831083100521663029859433992,4243.2,1.46779831083100521663029859433992
104,4327.46974531501584933132587362549626,4326.0,1.46974531501584933132587362549626
105,4411.07167366995045418167532520661122,4409.6,1.47167366995045418167532520661122
106,4495.47358372988514018303726482963326,4494.0,1.47358372988514018303726482963326
107,4580.67547583907190860128782317560002,4579.2,1.47547583907190860128782317560002
108,4666.67735033213734878746677107506458,4665.2,1.47735033213734878746677107506458
109,4753.47920753443831681916555671978128,4752.0,1.47920753443831681916555671978128
110,4841.08104776240133436909662003991721,4839.6,1.48104776240133436909662003991721
111,4929.48287132384659076011735466229458,4928.0,1.48287132384659076011735466229458
112,5018.68467851829738173238107399765592,5017.2,1.48467851829738173238107399765592
113,5108.68646963727576291252553052126991,5107.2,1.48646963727576291252553052126991
114,5199.48824496458514721708972684854696,5198.0,1.48824496458514721708972684854696
115,5291.09000477658053497387885438696623,5289.6,1.49000477658053497387885438696623
116,5383.49174934242701721338820062698876,5382.0,1.49174934242701721338820062698876
117,5476.69347892434716086942505172423107,5475.2,1.49347892434716086942505172423107
118,5570.69519377785784359699996414418024,5569.2,1.49519377785784359699996414418024
119,5665.49689415199707220188242266866366,5664.0,1.49689415199707220188242266866366
120,5761.09858028954129283401856790540650,5759.6,1.49858028954129283401856790540650
121,5857.50025242721366282980752311256344,5856.0,1.50025242721366282980752311256344
122,5954.70191079588373517514127295338274,5953.2,1.50191079588373517514127295338274
123,6052.70355562075897436822232820780898,6051.2,1.50355562075897436822232820780898
124,6151.50518712156850478141017567802387,6150.0,1.50518712156850478141017567802387
125,6251.10680551273946305513093022535415,6249.6,1.50680551273946305513093022535415
126,6351.50841100356631085963007821960406,6350.0,1.50841100356631085963007821960406
127,6452.71000379837344378251298878940432,6451.2,1.51000379837344378251298878940432
128,6554.71158409667140951287366251575936,6553.2,1.51158409667140951287366251575936
129,6657.51315209330703641962720491589977,6656.0,1.51315209330703641962720491589977
130,6761.11470797860775523984223270604181,6759.6,1.51470797860775523984223270604181
131,6865.51625193852038118880809008878236,6864.0,1.51625193852038118880809008878236
132,6970.71778415474460882642342198296622,6969.2,1.51778415474460882642342198296622
133,7076.71930480486146023296158366184090,7075.2,1.51930480486146023296158366184090
134,7183.52081406245691577137244099475200,7182.0,1.52081406245691577137244099475200
135,7291.12231209724093860499296243267967,7289.6,1.52231209724093860499296243267967
136,7399.52379907516210045206710474454782,7398.0,1.52379907516210045206710474454782
137,7508.72527515851800275059916985130676,7507.2,1.52527515851800275059916985130676
138,7618.72674050606167379513327402665524,7617.2,1.52674050606167379513327402665524
139,7729.52819527310412030121309516238065,7728.0,1.52819527310412030121309516238065
140,7841.12963961161319640737661601744685,7839.6,1.52963961161319640737661601744685
141,7953.53107367030894856711490281792262,7952.0,1.53107367030894856711490281792262
142,8066.73249759475558671003433659081137,8065.2,1.53249759475558671003433659081137
143,8180.73391152745022340136005879719340,8179.2,1.53391152745022340136005879719340
144,8295.53531560790851554935958464398038,8294.0,1.53531560790851554935958464398038
145,8411.13670997274733902258061209596874,8409.6,1.53670997274733902258061209596874
146,8527.53809475576461867012953610465109,8526.0,1.53809475576461867012953610465109
147,8644.73947008801642803532832202567172,8643.2,1.53947008801642803532832202567172
148,8762.74083609789147409513996225041052,8761.2,1.54083609789147409513996225041052
149,8881.54219291118306882976587954616516,8880.0,1.54219291118306882976587954616516
150,9001.14354065115869126682462900512681,8999.6,1.54354065115869126682462900512681
151,9121.54487943862723591799852667751657,9120.0,1.54487943862723591799852667751657
152,9242.74620939200403791103158424263901,9241.2,1.54620939200403791103158424263901
153,9364.74753062737376377059220180165651,9363.2,1.54753062737376377059220180165651
154,9487.54884325855125175115464064621620,9486.0,1.54884325855125175115464064621620
155,9611.15014739714037996190972068917133,9609.6,1.55014739714037996190972068917133
156,9735.55144315259104015418867549267437,9734.0,1.55144315259104015418867549267437
157,9860.75273063225428822222937249868680,9859.2,1.55273063225428822222937249868680
158,9986.75400994143574323972877223604391,9985.2,1.55400994143574323972877223604391
159,10113.5552811834472987094650877337647,10112.0,1.5552811834472987094650877337647
160,10241.1565444596572123681019012118597,10239.6,1.5565444596572123681019012118597
161,10369.5577998695386330469840314619848,10368.0,1.5577998695386330469840314619848
162,10498.7590475107166240548425015335294,10497.2,1.5590475107166240548425015335294
163,10628.7602874790137379406516585769807,10627.2,1.5602874790137379406516585769807
164,10759.5615198684941972783105859474653,10758.0,1.5615198684941972783105859474653
165,10891.1627447715067300785804920924372,10889.6,1.5627447715067300785804920924372
166,11023.5639622787261103492177814185926,11022.0,1.5639622787261103492177814185926
167,11156.7651724791934510411221814973566,11155.2,1.5651724791934510411221814973566
168,11290.7663754603552920750620291428636,11289.2,1.5663754603552920750620291428636
169,11425.5675713081015285168645165362917,11424.0,1.5675713081015285168645165362917
170,11561.1687601068022186501508714020762,11559.6,1.5687601068022186501508714020762
171,11697.5699419393433121471955831247676,11696.0,1.5699419393433121471955831247676
172,11834.7711168871613362108607908591066,11833.2,1.5711168871613362108607908591066
173,11972.7722850302770750963988868604380,11971.2,1.5722850302770750963988868604380
174,12111.5734464473282788632815249140582,12110.0,1.5734464473282788632815249140582
175,12251.1746012156014353488144807417770,12249.6,1.5746012156014353488144807417770
176,12391.5757494110626350769072846534839,12390.0,1.5757494110626350769072846534839
177,12532.7768911083875623697490822102082,12531.2,1.5768911083875623697490822102082
178,12674.7780263809906418242006091666253,12673.2,1.5780263809906418242006091666253
179,12817.5791553010533666054717396519168,12816.0,1.5791553010533666054717396519168
180,12961.1802779395518395123228276201364,12959.6,1.5802779395518395123228276201364
181,13105.5813943662835494704341948672736,13104.0,1.5813943662835494704341948672736
182,13250.7825046498934111576174531323573,13249.2,1.5825046498934111576174531323573
183,13396.7836088578990908186712722114521,13395.2,1.5836088578990908186712722114521
184,13543.5847070567156425201809834213326,13542.0,1.5847070567156425201809834213326
185,13691.1857993116794766624111334344831,13689.6,1.5857993116794766624111334344831
186,13839.5868856870716817261837482109776,13838.0,1.5868856870716817261837482109776
187,13988.7879662461407230647930126320117,13987.2,1.5879662461407230647930126320117
188,14138.7890410511245341870918564412569,14137.2,1.5890410511245341870918564412569
189,14289.5901101632720242729497326318712,14288.0,1.5901101632720242729497326318712
190,14441.1911736428640175825617682751292,14439.6,1.5911736428640175825617682751292
191,14593.5922315492336439928663932839615,14592.0,1.5922315492336439928663932839615
192,14746.7932839407861970542984051235819,14745.2,1.5932839407861970542984051235819
193,14900.7943308750184778830692526520719,14899.2,1.5943308750184778830692526520719
194,15055.5953724085376382414396819135955,15054.0,1.5953724085376382414396819135955
195,15211.1964085970795407503724703818139,15209.6,1.5964085970795407503724703818139
196,15367.5974394955266499388530980134467,15366.0,1.5974394955266499388530980134467
197,15524.7984651579254685179565851193190,15523.2,1.5984651579254685179565851193190
198,15682.7994856375035330547816193638258,15681.2,1.5994856375035330547816193638258
199,15841.6005009866859818936460876034658,15840.0,1.6005009866859818936460876034658
200,16001.2015112571117092786891120330033,15999.6,1.6015112571117092786891120330033
201,16161.6025164996491166686699643972911,16160.0,1.6025164996491166686699643972911
202,16322.8035167644114746349308174675581,16321.2,1.6035167644114746349308174675581
203,16484.8045121007719060125024582360921,16483.2,1.6045121007719060125024582360921
204,16647.6055025573780019349945705794817,16646.0,1.6055025573780019349945705794817
205,16811.2064881821660807348401371135861,16809.6,1.6064881821660807348401371135861
206,16975.6074690223751027443551089381396,16974.0,1.6074690223751027443551089381396
207,17140.8084451245602468855254980921436,17139.2,1.6084451245602468855254980921436
208,17306.8094165346061632877472242577332,17305.2,1.6094165346061632877472242577332
209,17473.6103832977399076947282599515430,17472.0,1.6103832977399076947282599515430
210,17641.2113454585435691751141478443803,17639.6,1.6113454585435691751141478443803
211,17809.6123030609665985153477197985400,17808.0,1.6123030609665985153477197985400
212,17978.8132561483378475420619944319789,17977.2,1.6132561483378475420619944319789
213,18148.8142047633773237727225998857623,18147.2,1.6142047633773237727225998857623
214,18319.6151489482076753916753021068527,18318.0,1.6151489482076753916753021068527
215,18491.2160887443654057800073176278251,18489.6,1.6160887443654057800073176278251
216,18663.6170241928118315765602094773249,18662.0,1.6170241928118315765602094773249
217,18836.8179553339437882527517623478231,18835.2,1.6179553339437882527517623478231
218,19010.8188822076040921980528336701133,19009.2,1.6188822076040921980528336701133
219,19185.6198048530917626142438223569008,19184.0,1.6198048530917626142438223569008
220,19361.2207233091720157525789231341471,19359.6,1.6207233091720157525789231341471
221,19537.6216376140860294230196913343133,19536.0,1.6216376140860294230196913343133
222,19714.8225478055604950006555753829202,19713.2,1.6225478055604950006555753829202
223,19892.8234539208169505188214298774043,19891.2,1.6234539208169505188214298774043
224,20071.6243559965809099378304303235770,20070.0,1.6243559965809099378304303235770
225,20251.2252540690907911765003973608357,20249.6,1.6252540690907911765003973608357
226,20431.6261481741066464760492676627025,20430.0,1.6261481741066464760492676627025
227,20612.8270383469187037719377651211799,20611.2,1.6270383469187037719377651211799
228,20794.8279246223557209176789096108259,20793.2,1.6279246223557209176789096108259
229,20977.6288070347931599477446059040467,20976.0,1.6288070347931599477446059040467
230,21161.2296856181611861019777896542901,21159.6,1.6296856181611861019777896542901
231,21345.6305604059524934381897423992650,21344.0,1.6305604059524934381897423992650
232,21530.8314314312299674805744538585165,21529.2,1.6314314312299674805744538585165
233,21716.8322987266341799294802389254665,21715.2,1.6322987266341799294802389254665
234,21903.6331623243907316200462799362450,21902.0,1.6331623243907316200462799362450
235,22091.2340222563174369436926164442659,22089.6,1.6340222563174369436926164442659
236,22279.6348785538313594756265990776114,22278.0,1.6348785538313594756265990776114
237,22468.8357312479557024744496994919181,22467.2,1.6357312479557024744496994919181
238,22658.8365803693265560324716442029254,22657.2,1.6365803693265560324716442029254
