Eigenstate,Energy,Kinetic Energy,Potential Energy
1,0.500000000012342052861630241156237503,0.0,0.500000000012342052861630241156237503
2,1.84623093773167711406472350423843277,1.2,0.64623093773167711406472350423843277
3,3.93633760994162132668264238745973663,3.2,0.73633760994162132668264238745973663
4,6.79966527830714452142674216538868350,6.0,0.79966527830714452142674216538868350
5,10.4480465761394989510971396622857992,9.6,0.8480465761394989510971396622857992
6,14.8870659981914561640511252349688759,14.0,0.8870659981914561640511252349688759
7,20.1197208259002990836764845878245125,19.2,0.9197208259002990836764845878245125
8,26.1477838456425106461592372626806937,25.2,0.9477838456425106461592372626806937
9,32.9723835564241049265068248988008687,32.0,0.9723835564241049265068248988008687
10,40.5942802123934886536558963767268105,39.6,0.9942802123934886536558963767268105
11,49.0140093836915897039427403057879989,48.0,1.0140093836915897039427403057879989
12,58.2319621656229578410057245113244302,57.2,1.0319621656229578410057245113244302
13,68.2484326882533396966848237439755481,67.2,1.0484326882533396966848237439755481
14,79.0636476492658306208048586967729276,78.0,1.0636476492658306208048586967729276
15,90.6777854297750537270604375365517176,89.6,1.0777854297750537270604375365517176
16,103.090988899197601357410902077349742,102.0,1.090988899197601357410902077349742
17,116.303374248713537174684242723771281,115.2,1.103374248713537174684242723771281
18,130.315037242272594208970704727665541,129.2,1.115037242272594208970704727665541
19,145.126057739698151566940872398134025,144.0,1.126057739698151566940872398134025
20,160.736503034321170279264847873546716,159.6,1.136503034321170279264847873546716
21,177.146430359061890079538731794121500,176.0,1.146430359061890079538731794121500
22,194.355888797588569263201914746891573,193.2,1.155888797588569263201914746891573
23,212.364920762254009150402510859672080,211.2,1.164920762254009150402510859672080
24,231.173563151495976107882293474138276,230.0,1.173563151495976107882293474138276
25,250.781848266633127841226618838295688,249.6,1.181848266633127841226618838295688
26,271.189804545672601072765284988335059,270.0,1.189804545672601072765284988335059
27,292.397457156272587323403224977898792,291.2,1.197457156272587323403224977898792
28,314.404828479101372710358966493491441,313.2,1.204828479101372710358966493491441
29,337.211938505039289853223413070402556,336.0,1.211938505039289853223413070402556
30,360.818805164020542412808145335351794,359.6,1.218805164020542412808145335351794
31,385.225444599165924288135333264815074,384.0,1.225444599165924288135333264815074
32,410.431871396779555912892133352025150,409.2,1.231871396779555912892133352025150
33,436.438098780473112289056981428704635,435.2,1.238098780473112289056981428704635
34,463.244138775930471129639184932846080,462.0,1.244138775930471129639184932846080
35,490.850002351486514417076950538186685,489.6,1.250002351486514417076950538186685
36,519.255699538660337805529677264599806,518.0,1.255699538660337805529677264599806
37,548.461239535979037746975471665304577,547.2,1.261239535979037746975471665304577
38,578.466630798797827478037134209297657,577.2,1.266630798797827478037134209297657
39,609.271881117324384355064742360070036,608.0,1.271881117324384355064742360070036
40,640.876997684659510241556303961760859,639.6,1.276997684659510241556303961760859
41,673.281987156349436378356481192693367,672.0,1.281987156349436378356481192693367
42,706.486855702690111565632390633412735,705.2,1.286855702690111565632390633412735
43,740.491609054817326140761736764752784,739.2,1.291609054817326140761736764752784
44,775.296252545448430220807628798776250,774.0,1.296252545448430220807628798776250
45,810.900791145003835109293139326732291,809.6,1.300791145003835109293139326732291
46,847.305229493723350484424936437549081,846.0,1.305229493723350484424936437549081
47,884.509571930298933373608707035356892,883.2,1.309571930298933373608707035356892
48,922.513822517467838554871725786784647,921.2,1.313822517467838554871725786784647
49,961.317985064945497481928848531838147,960.0,1.317985064945497481928848531838147
50,1000.92206315002333011598953540922427,999.6,1.32206315002333011598953540922427
51,1041.32606013611122708494324597095004,1040.0,1.32606013611122708494324597095004
52,1082.52997918946609437627146254525100,1081.2,1.32997918946609437627146254525100
53,1124.53382329431540265149725151821439,1123.2,1.33382329431540265149725151821439
54,1167.33759526655712213853445563057853,1166.0,1.33759526655712213853445563057853
55,1210.94129776619394856579299112014813,1209.6,1.34129776619394856579299112014813
56,1255.34493330863965103177684055909375,1254.0,1.34493330863965103177684055909375
57,1300.54850427501817373879684005276099,1299.2,1.34850427501817373879684005276099
58,1346.55201292156132633313324016661314,1345.2,1.35201292156132633313324016661314
59,1393.35546138819814364671123726967566,1392.0,1.35546138819814364671123726967566
60,1440.95885170641797112765320624470821,1439.6,1.35885170641797112765320624470821
61,1489.36218580647976801956926931232672,1488.0,1.36218580647976801956926931232672
62,1538.56546552403181934433645628284513,1537.2,1.36546552403181934433645628284513
63,1588.56869260619880585409801207314290,1587.2,1.36869260619880585409801207314290
64,1639.37186871718686863829389627029263,1638.0,1.37186871718686863829389627029263
65,1690.97499544345177023156202664579497,1689.6,1.37499544345177023156202664579497
66,1743.37807429847040672929699367234287,1742.0,1.37807429847040672929699367234287
67,1796.58110672715166312632814500025189,1795.2,1.38110672715166312632814500025189
68,1850.58409410991884793337130825488971,1849.2,1.38409410991884793337130825488971
69,1905.38703776649263045518235889919582,1904.0,1.38703776649263045518235889919582
70,1960.98993895940047584607761358812254,1959.6,1.38993895940047584607761358812254
71,2017.39279889723597435475530187740559,2016.0,1.39279889723597435475530187740559
72,2074.59561873768916292797324332208303,2073.2,1.39561873768916292797324332208303
73,2132.59839959036688433623464135753927,2131.2,1.39839959036688433623464135753927
74,2191.40114251942041013608163204435476,2190.0,1.40114251942041013608163204435476
75,2251.00384854599592268249346745448785,2249.6,1.40384854599592268249346745448785
76,2311.40651865052200184813130789598427,2310.0,1.40651865052200184813130789598427
77,2372.60915377484695970775368692734446,2371.2,1.40915377484695970775368692734446
78,2434.61175482423770064794675048220401,2433.2,1.41175482423770064794675048220401
79,2497.41432266925073754232128993651446,2496.0,1.41432266925073754232128993651446
80,2561.01685814748505650668433361988371,2559.6,1.41685814748505650668433361988371
81,2625.41936206522567340721653182490282,2624.0,1.41936206522567340721653182490282
82,2690.62183519898596384413320061189011,2689.2,1.42183519898596384413320061189011
83,2756.62427829695615959951732779336591,2755.2,1.42427829695615959951732779336591
84,2823.42669208036478024629677893099827,2822.0,1.42669208036478024629677893099827
85,2891.02907724475920933916432466759848,2889.6,1.42907724475920933916432466759848
86,2959.43143446121110874284988160019550,2958.0,1.43143446121110874284988160019550
87,3028.63376437745190718235449554900274,3027.2,1.43376437745190718235449554900274
88,3098.63606761894317572201997772458293,3097.2,1.43606761894317572201997772458293
89,3169.43834478988631937814663695600349,3168.0,1.43834478988631937814663695600349
90,3241.04059647417567085314229200400501,3239.6,1.44059647417567085314229200400501
91,3313.44282323629875092713509687672944,3312.0,1.44282323629875092713509687672944
92,3386.64502562218717174544360286073052,3385.2,1.44502562218717174544360286073052
93,3460.64720416002139698524187872121642,3459.2,1.44720416002139698524187872121642
94,3535.44935936099232995601941646832079,3534.0,1.44935936099232995601941646832079
95,3611.05149172002247953440655049805455,3609.6,1.45149172002247953440655049805455
96,3687.45360171644925201181974402631051,3686.0,1.45360171644925201181974402631051
97,3764.65568981467273259127142203003501,3763.2,1.45568981467273259127142203003501
98,3842.65775646477014739539445011673981,3841.2,1.45775646477014739539445011673981
99,3921.45980210307904337554210476295954,3920.0,1.45980210307904337554210476295954
100,4001.06182715275107717140845447225635,3999.6,1.46182715275107717140845447225635
101,4081.46383202427817466645948955495589,4080.0,1.46383202427817466645948955495589
102,4162.66581711599269740974433477670821,4161.2,1.46581711599269740974433477670821
103,4244.66778281454314416104298626796842,4243.2,1.46778281454314416104298626796842
104,4327.46972949534680855159656355128931,4326.0,1.46972949534680855159656355128931
105,4411.07165752302072077890925764112177,4409.6,1.47165752302072077890925764112177
106,4495.47356725179211048986736784523473,4494.0,1.47356725179211048986736784523473
107,4580.67545902588954992446545238552576,4579.2,1.47545902588954992446545238552576
108,4666.67733317991585715287523029744710,4665.2,1.47733317991585715287523029744710
109,4753.47919003920377064505868583616267,4752.0,1.47919003920377064505868583616267
110,4841.08102992015534399200181142156518,4839.6,1.48102992015534399200181142156518
111,4929.48285313056594373644686532369573,4928.0,1.48285313056594373644686532369573
112,5018.68465996993368383736757548029364,5017.2,1.48465996993368383736757548029364
113,5108.68645072975507475663763268013862,5107.2,1.48645072975507475663763268013862
114,5199.48822569380761639858647970006535,5198.0,1.48822569380761639858647970006535
115,5291.08998513842002368463382704198600,5289.6,1.48998513842002368463382704198600
116,5383.49172933273072521354612440541188,5382.0,1.49172933273072521354612440541188
117,5476.69345853893524374485143409761181,5475.2,1.49345853893524374485143409761181
118,5570.69517301252302621184357587917409,5569.2,1.49517301252302621184357587917409
119,5665.49687300250425725689016027866621,5664.0,1.49687300250425725689016027866621
120,5761.09855875162716443952408073489402,5759.6,1.49855875162716443952408073489402
121,5857.50023049658628500055385951925087,5856.0,1.50023049658628500055385951925087
122,5954.70188846822214515229543664166622,5953.2,1.50188846822214515229543664166622
123,6052.70353289171277067209599128539361,6051.2,1.50353289171277067209599128539361
124,6151.50516398675742989651172466069965,6150.0,1.50516398675742989651172466069965
125,6251.10678196775298064723843237402871,6249.6,1.50678196775298064723843237402871
126,6351.50838704396317742259612987467605,6350.0,1.50838704396317742259612987467605
127,6452.70997941968127461048259047249642,6451.2,1.50997941968127461048259047249642
128,6554.71155929438623889152078467676391,6553.2,1.51155929438623889152078467676391
129,6657.51312686289287192788708075859799,6656.0,1.51312686289287192788708075859799
130,6761.11468231549612605143982214753539,6759.6,1.51468231549612605143982214753539
131,6865.51622583810988026064979812439412,6864.0,1.51622583810988026064979812439412
132,6970.71775761240042885863331290320589,6969.2,1.51775761240042885863331290320589
133,7076.71927781591492328300470463286578,7075.2,1.51927781591492328300470463286578
134,7183.52078662220499640230612669694501,7182.0,1.52078662220499640230612669694501
135,7291.12228420094578044543006474611803,7289.6,1.52228420094578044543006474611803
136,7399.52377071805052604291969132468186,7398.0,1.52377071805052604291969132468186
137,7508.72524633578101655108845062490829,7507.2,1.52524633578101655108845062490829
138,7618.72671121285395821790980479547691,7617.2,1.52671121285395821790980479547691
139,7729.52816550454352464372237595683756,7728.0,1.52816550454352464372237595683756
140,7841.12960936278021854382746707023330,7839.6,1.52960936278021854382746707023330
141,7953.53104293624620926256603133606700,7952.0,1.53104293624620926256603133606700
142,8066.73246637046729641519497149362717,8065.2,1.53246637046729641519497149362717
143,8180.73387980790164138371349677717329,8179.2,1.53387980790164138371349677717329
144,8295.53528338802540121315313506249486,8294.0,1.53528338802540121315313506249486
145,8411.13667724741539526708606359887773,8409.6,1.53667724741539526708606359887773
146,8527.53806151982892713235532709693143,8526.0,1.53806151982892713235532709693143
147,8644.73943633628087606006462186198154,8643.2,1.53943633628087606006462186198154
148,8762.74080182511817327183197824867277,8761.2,1.54080182511817327183197824867277
149,8881.54215811209176493223729087038502,8880.0,1.54215811209176493223729087038502
150,9001.14350532042616542831662189090606,8999.6,1.54350532042616542831662189090606
151,9121.54484357088669687033222885770225,9120.0,1.54484357088669687033222885770225
152,9242.74617298184450511296278964080791,9241.2,1.54617298184450511296278964080791
153,9364.74749366933944124658151313494337,9363.2,1.54749366933944124658151313494337
154,9487.54880574714089245783792793768455,9486.0,1.54880574714089245783792793768455
155,9611.15010932680664049550923042785125,9609.6,1.55010932680664049550923042785125
156,9735.55140451773982560795712495181977,9734.0,1.55140451773982560795712495181977
157,9860.75269142724408699876601427008875,9859.2,1.55269142724408699876601427008875
158,9986.75397016057695161863588683886737,9985.2,1.55397016057695161863588683886737
159,10113.5552408210015349663352921180550,10112.0,1.5552408210015349663352921180550
160,10241.1565035098366202362240619366012,10239.6,1.5565035098366202362240619366012
161,10369.5577583265051743084366722120990,10368.0,1.5577583265051743084366722120990
162,10498.7590053685813600427975156766865,10497.2,1.5590053685813600427975156766865
163,10628.7602447318360997297374247724764,10627.2,1.5602447318360997297374247724764
164,10759.5614765102812443347762713103432,10758.0,1.5614765102812443347762713103432
165,10891.1627007962123971367591469075859,10889.6,1.5627007962123971367591469075859
166,11023.5639176802504422754048998048363,11022.0,1.5639176802504422754048998048363
167,11156.7651272513818254404562789326288,11155.2,1.5651272513818254404562789326288
168,11290.7663295969976293913150332357788,11289.2,1.5663295969976293913150332357788
169,11425.5675248029314893692225624275806,11424.0,1.5675248029314893692225624275806
170,11561.1687129534963881450715548812131,11559.6,1.5687129534963881450715548812131
171,11697.5698941315203708972793341154439,11696.0,1.5698941315203708972793341154439
172,11834.7710684183812177863506122855245,11833.2,1.5710684183812177863506122855245
173,11972.7722358940401096284302508885736,11971.2,1.5722358940401096284302508885736
174,12111.5733966370743225113298126168786,12110.0,1.5733966370743225113298126168786
175,12251.1745507247089853379306624580832,12249.6,1.5745507247089853379306624580832
176,12391.5756982328479300032862301385943,12390.0,1.5756982328479300032862301385943
177,12532.7768392361036674659306096825852,12531.2,1.5768392361036674659306096825852
178,12674.7779738078265188677594078380005,12673.2,1.5779738078265188677594078380005
179,12817.5791020201329281473983384442160,12816.0,1.5791020201329281473983384442160
180,12961.1802239439329870934281111247635,12959.6,1.5802239439329870934281111247635
181,13105.5813396489571954860214013960710,13104.0,1.5813396489571954860214013960710
182,13250.7824492037824840223468574236363,13249.2,1.5824492037824840223468574236363
183,13396.7835526758575230749835904291904,13395.2,1.5835526758575230749835904291904
184,13543.5846501315273415248516984428687,13542.0,1.5846501315273415248516984428687
185,13691.1857416360572774767514727715135,13689.6,1.5857416360572774767514727715135
186,13839.5868272536562818261000451562717,13838.0,1.5868272536562818261000451562717
187,13988.7879070474995984773319561988222,13987.2,1.5879070474995984773319561988222
188,14138.7889810797508366502472323859950,14137.2,1.5889810797508366502472323859950
189,14289.5900494115834590053635371681567,14288.0,1.5900494115834590053635371681567
190,14441.1911121032017012393159436552434,14439.6,1.5911121032017012393159436552434
191,14593.5921692138609423728215833221896,14592.0,1.5921692138609423728215833221896
192,14746.7932208018875421133768835198763,14745.2,1.5932208018875421133768835198763
193,14900.7942669246981635964995227263184,14899.2,1.5942669246981635964995227263184
194,15055.5953076388185948462612251231578,15054.0,1.5953076388185948462612251231578
195,15211.1963429999020868874330986415852,15209.6,1.5963429999020868874330986415852
196,15367.5973730627472222011057929113384,15366.0,1.5973730627472222011057929113384
197,15524.7983978813153278990673666659839,15523.2,1.5983978813153278990673666659839
198,15682.7994175087474477788796258535790,15681.2,1.5994175087474477788796258535790
199,15841.6004319973808860934679748346060,15840.0,1.6004319973808860934679748346060
200,16001.2014413987653369753854232524407,15999.6,1.6014413987653369753854232524407
201,16161.6024457636786104921291188587507,16160.0,1.6024457636786104921291188587507
202,16322.8034451421419687086202718826332,16321.2,1.6034451421419687086202718826332
203,16484.8044395834350824115291499530577,16483.2,1.6044395834350824115291499530577
204,16647.6054291361106201103061604295128,16646.0,1.6054291361106201103061604295128
205,16811.2064138480084792802306942734506,16809.6,1.6064138480084792802306942734506
206,16975.6073937662696728661741329925104,16974.0,1.6073937662696728661741329925104
207,17140.8083689373498769177021104228634,17139.2,1.6083689373498769177021104228634
208,17306.8093394070326535769202192860531,17305.2,1.6093394070326535769202192860531
209,17473.6103052204423551618902551651323,17472.0,1.6103052204423551618902551651323
210,17641.2112664220567208412156483593360,17639.6,1.6112664220567208412156483593360
211,17809.6122230557191732587519704694961,17808.0,1.6122230557191732587519704694961
212,17978.8131751646508253355641991374550,17977.2,1.6131751646508253355641991374550
213,18148.8141227914622016270181223445573,18147.2,1.6141227914622016270181223445573
214,18319.6150659781646892106890454311473,18318.0,1.6150659781646892106890454311473
215,18491.2160047661817173113119092851871,18489.6,1.6160047661817173113119092851871
216,18663.6169391963596796172228913799018,18662.0,1.6169391963596796172228913799018
217,18836.8178693089786032473273710106093,18835.2,1.6178693089786032473273710106093
218,19010.8187951437625733410366949945951,19009.2,1.6187951437625733410366949945951
219,19185.6197167398899165441020447210163,19184.0,1.6197167398899165441020447210163
220,19361.2206341360031558984655247134056,19359.6,1.6206341360031558984655247134056
221,19537.6215473702187350384104841047408,19536.0,1.6215473702187350384104841047408
222,19714.8224564801365288903685994890973,19713.2,1.6224564801365288903685994890973
223,19892.8233615028491344372069056227319,19891.2,1.6233615028491344372069056227319
224,20071.6242624749509566062848064421084,20070.0,1.6242624749509566062848064421084
225,20251.2251594325470918378152970626391,20249.6,1.6251594325470918378152970626391
226,20431.6260524112620128714629626868133,20430.0,1.6260524112620128714629626868133
227,20612.8269414462480633940167504754385,20611.2,1.6269414462480633940167504754385
228,20794.8278265721937643583283228201111,20793.2,1.6278265721937643583283228201111
229,20977.6287078233319391256508104283170,20976.0,1.6287078233319391256508104283170
230,21161.2295852334476621176057232108027,21159.6,1.6295852334476621176057232108027
231,21345.6304588358860327670319173183744,21344.0,1.6304588358860327670319173183744
232,21530.8313286635597851766205972040372,21529.2,1.6313286635597851766205972040372
233,21716.8321947489567284708239403676725,21715.2,1.6321947489567284708239403676725
234,21903.6330571241470339870861882712498,21902.0,1.6330571241470339870861882712498
235,22091.2339158207903624774800732613333,22089.6,1.6339158207903624774800732613333
236,22279.6347708701428410194994456186603,22278.0,1.6347708701428410194994456186603
237,22468.8356223030638932561174055531429,22467.2,1.6356223030638932561174055531429
238,22658.8364701500229246961031144291515,22657.2,1.6364701500229246961031144291515
