Eigenstate,Energy,Kinetic Energy,Potential Energy
1,0.500000000023129014364016878314716933,0.0,0.500000000023129014364016878314716933
2,1.84623093780208869508390440230771503,1.2,0.64623093780208869508390440230771503
3,3.93633761014844928962629115407441214,3.2,0.73633761014844928962629115407441214
4,6.79966527873794248238661985480795269,6.0,0.79966527873794248238661985480795269
5,10.4480465768857268163098453476213941,9.6,0.8480465768857268163098453476213941
6,14.8870659993461729992244222662547942,14.0,0.8870659993461729992244222662547942
7,20.1197208275573126407396402568906109,19.2,0.9197208275573126407396402568906109
8,26.1477838478960223080382101493431017,25.2,0.9477838478960223080382101493431017
9,32.9723835593685442637239090833908817,32.0,0.9723835593685442637239090833908817
10,40.5942802161234291390602569391938284,39.6,0.9942802161234291390602569391938284
11,49.0140093883017026327771585395700449,48.0,1.0140093883017026327771585395700449
12,58.2319621712079857196366542028790372,57.2,1.0319621712079857196366542028790372
13,68.2484326949080802299539417929895915,67.2,1.0484326949080802299539417929895915
14,79.0636476570851267987147673311683375,78.0,1.0636476570851267987147673311683375
15,90.6777854388537875908865926974041751,89.6,1.0777854388537875908865926974041751
16,103.090988909630690076864652523068025,102.0,1.090988909630690076864652523068025
17,116.303374260595930628205784014556867,115.2,1.103374260595930628205784014556867
18,130.315037255699273571882712062177896,129.2,1.115037255699273571882712062177896
19,145.126057754764128593700318216969440,144.0,1.126057754764128593700318216969440
20,160.736503051121487075185288228905311,159.6,1.136503051121487075185288228905311
21,177.146430377691619225047367262915381,176.0,1.146430377691619225047367262915381
22,194.355888818142814196862658633889517,193.2,1.155888818142814196862658633889517
23,212.364920784827904745156386684642286,211.2,1.164920784827904745156386684642286
24,231.173563176184689393822945077533169,230.0,1.173563176184689393822945077533169
25,250.781848293531858841100176126342452,249.6,1.181848293531858841100176126342452
26,271.189804574876583725328561165355519,270.0,1.189804574876583725328561165355519
27,292.397457187877090476095631952625230,291.2,1.197457187877090476095631952625230
28,314.404828513201701167280347604114135,313.2,1.204828513201701167280347604114135
29,337.211938541730785467712460390636788,336.0,1.211938541730785467712460390636788
30,360.818805203398585216351609171737606,359.6,1.218805203398585216351609171737606
31,385.225444641325933649156245647428907,384.0,1.225444641325933649156245647428907
32,410.431871441816991720337588126542352,409.2,1.231871441816991720337588126542352
33,436.438098828483476156752745092090301,435.2,1.238098828483476156752745092090301
34,463.244138827009307618184577075921877,462.0,1.244138827009307618184577075921877
35,490.850002405729412270679961908637859,489.6,1.250002405729412270679961908637859
36,519.255699596162931201673345858972520,518.0,1.255699596162931201673345858972520
37,548.461239596837007557194503051566319,547.2,1.261239596837007557194503051566319
38,578.466630863106902538392539415761112,577.2,1.266630863106902538392539415761112
39,609.271881185180342745151769787856913,608.0,1.271881185180342745151769787856913
40,640.876997756158180571080671658821321,639.6,1.276997756158180571080671658821321
41,673.281987231586699080476048808318698,672.0,1.281987231586699080476048808318698
42,706.486855781761900196393860032986828,705.2,1.286855781761900196393860032986828
43,740.491609137819628684070752264972480,739.2,1.291609137819628684070752264972480
44,775.296252632477290398460452022724279,774.0,1.296252632477290398460452022724279
45,810.900791236155353695672623709851242,809.6,1.300791236155353695672623709851242
46,847.305229589093686625525687447130446,846.0,1.305229589093686625525687447130446
47,884.509572029984305910108372532613223,883.2,1.309572029984305910108372532613223
48,922.513822621564527349009193738322463,921.2,1.313822621564527349009193738322463
49,961.317985173549844747987129704665978,960.0,1.317985173549844747987129704665978
50,1000.92206326323174175421251672308322,999.6,1.32206326323174175421251672308322
51,1041.32606025402017401874224930537063,1040.0,1.32606025402017401874224930537063
52,1082.52997931217211389260039239618289,1081.2,1.32997931217211389260039239618289
53,1124.53382342191509974429471606823450,1123.2,1.33382342191509974429471606823450
54,1167.33759539914717085514813100626154,1166.0,1.33759539914717085514813100626154
55,1210.94129790387109335631605939363688,1209.6,1.34129790387109335631605939363688
56,1255.34493345150070810123896196938756,1254.0,1.34493345150070810123896196938756
57,1300.54850442316003240216306553689477,1299.2,1.34850442316003240216306553689477
58,1346.55201307508095037307387496237958,1345.2,1.35201307508095037307387496237958
59,1393.35546154719257267411396831304800,1392.0,1.35546154719257267411396831304800
60,1440.95885187098432194485616559318860,1439.6,1.35885187098432194485616559318860
61,1489.36218597671523598630012212214382,1488.0,1.36218597671523598630012212214382
62,1538.56546570003367974634830380816976,1537.2,1.36546570003367974634830380816976
63,1588.56869278806441527449788813782247,1587.2,1.36869278806441527449788813782247
64,1639.37186890501366633156407186277754,1638.0,1.37186890501366633156407186277754
65,1690.97499563733727950027832812276317,1689.6,1.37499563733727950027832812276317
66,1743.37807449851223630355180655082103,1742.0,1.37807449851223630355180655082103
67,1796.58110693344750854586893856928566,1795.2,1.38110693344750854586893856928566
68,1850.58409432256649293246830769791224,1849.2,1.38409432256649293246830769791224
69,1905.38703798558994835024155812365815,1904.0,1.38703798558994835024155812365815
70,1960.98993918504543092601750471195969,1959.6,1.38993918504543092601750471195969
71,2017.39279912952662327416784413230881,2016.0,1.39279912952662327416784413230881
72,2074.59561897672365610309134281785143,2073.2,1.39561897672365610309134281785143
73,2132.59839983624346734373016836387037,2131.2,1.39839983624346734373016836387037
74,2191.40114277223742511471947186306540,2190.0,1.40114277223742511471947186306540
75,2251.00384880585180973766852432526280,2249.6,1.40384880585180973766852432526280
76,2311.40651891751530045931661277210283,2310.0,1.40651891751530045931661277210283
77,2372.60915404907631013888894432773130,2371.2,1.40915404907631013888894432773130
78,2434.61175510580184536079770967541379,2433.2,1.41175510580184536079770967541379
79,2497.41432295824852261284132563740384,2496.0,1.41432295824852261284132563740384
80,2561.01685844401543304441048495261586,2559.6,1.41685844401543304441048495261586
81,2625.41936236938769897773312866850551,2624.0,1.41936236938769897773312866850551
82,2690.62183551087880389463696274537788,2689.2,1.42183551087880389463696274537788
83,2756.62427861667908888751853854775968,2755.2,1.42427861667908888751853854775968
84,2823.42669240801718427149181412715780,2822.0,1.42669240801718427149181412715780
85,2891.02907758044058577851545883514857,2889.6,1.42907758044058577851545883514857
86,2959.43143480502106888890885678293953,2958.0,1.43143480502106888890885678293953
87,3028.63376472949017738486693565953982,3027.2,1.43376472949017738486693565953982
88,3098.63606797930959883284822385943227,3097.2,1.43606797930959883284822385943227
89,3169.43834515868085619954908280962747,3168.0,1.43834515868085619954908280962747
90,3241.04059685149840158944777781770305,3239.6,1.44059685149840158944777781770305
91,3313.44282362224987663985136513699091,3312.0,1.44282362224987663985136513699091
92,3386.64502601686701581183925011905460,3385.2,1.44502601686701581183925011905460
93,3460.64720456353040656044163780574151,3459.2,1.44720456353040656044163780574151
94,3535.44935977343107743865301013292690,3534.0,1.44935977343107743865301013292690
95,3611.05149214149166403585173670760045,3609.6,1.45149214149166403585173670760045
96,3687.45360214704970082908050557097218,3686.0,1.45360214704970082908050557097218
97,3764.65569025450540268353267219833833,3763.2,1.45569025450540268353267219833833
98,3842.65775691393612686429487982063407,3841.2,1.45775691393612686429487982063407
99,3921.45980256167955294920722191987313,3920.0,1.45980256167955294920722191987313
100,4001.06182762088747169228611406985174,3999.6,1.46182762088747169228611406985174
101,4081.46383250205194458300057453231302,4080.0,1.46383250205194458300057453231302
102,4162.66581760350547027197154455241191,4161.2,1.46581760350547027197154455241191
103,4244.66778331189668612005096068380756,4243.2,1.46778331189668612005096068380756
104,4327.46973000264302586302694482162102,4326.0,1.46973000264302586302694482162102
105,4411.07165804036166131044450080517279,4409.6,1.47165804036166131044450080517279
106,4495.47356777927996523278744611572459,4494.0,1.47356777927996523278744611572459
107,4580.67545956362665450931188538842609,4579.2,1.47545956362665450931188538842609
108,4666.67733372800469336926711872961152,4665.2,1.47733372800469336926711872961152
109,4753.47919059774696796570575065928405,4752.0,1.47919059774696796570575065928405
110,4841.08103048925568110095968104709568,4839.6,1.48103048925568110095968104709568
111,4929.48285371032635006166015057204185,4928.0,1.48285371032635006166015057204185
112,5018.68466056045724108754653406984150,5017.2,1.48466056045724108754653406984150
113,5108.68645133114501846251448714075158,5107.2,1.48645133114501846251448714075158
114,5199.48822630616733745859774396946459,5198.0,1.48822630616733745859774396946459
115,5291.08998576185306991507525949172558,5289.6,1.48998576185306991507525949172558
116,5383.49172996734080290324717935633385,5382.0,1.49172996734080290324717935633385
117,5476.69345918482621921441636647432932,5475.2,1.49345918482621921441636647432932
118,5570.69517366979892737750663765156427,5569.2,1.49517366979892737750663765156427
119,5665.49687367126927519903254640929153,5664.0,1.49687367126927519903254640929153
120,5761.09855943198565497590060692223805,5759.6,1.49855943198565497590060692223805
121,5857.50023118864277026427760110013627,5856.0,1.50023118864277026427760110013627
122,5954.70188917208131517462882096392157,5953.2,1.50188917208131517462882096392157
123,6052.70353360747948497009711287126550,6051.2,1.50353360747948497009711287126550
124,6151.50516471453671906558492902361742,6150.0,1.50516471453671906558492902361742
125,6251.10678270765004795863849069673549,6249.6,1.50678270765004795863849069673549
126,6351.50838779608340042593558668532158,6350.0,1.50838779608340042593558668532158
127,6452.70998018413020674129215721304736,6451.2,1.50998018413020674129215721304736
128,6554.71156007126961108391292594593289,6553.2,1.51156007126961108391292594593289
129,6657.51312765231659423237321590440196,6656.0,1.51312765231659423237321590440196
130,6761.11468311756628925795184001342423,6759.6,1.51468311756628925795184001342423
131,6865.51622665293275752681687761217730,6864.0,1.51622665293275752681687761217730
132,6970.71775844008247734336534631325541,6969.2,1.51775844008247734336534631325541
133,7076.71927865656278578543382394154970,7075.2,1.51927865656278578543382394154970
134,7183.52078747592550300613823221171709,7182.0,1.52078747592550300613823221171709
135,7291.12228506784595016875849560134291,7289.6,1.52228506784595016875849560134291
136,7399.52377159823756849355342052494301,7398.0,1.52377159823756849355342052494301
137,7508.72524722936233358744756988001530,7507.2,1.52524722936233358744756988001530
138,7618.72671211993714561554130630401063,7617.2,1.52671211993714561554130630401063
139,7729.52816642523637376748956711290387,7728.0,1.52816642523637376748956711290387
140,7841.12961029719071802582664623876983,7839.6,1.52961029719071802582664623876983
141,7953.53104388448254668582430968719139,7952.0,1.53104388448254668582430968719139
142,8066.73246733263786000320353843718811,8065.2,1.53246733263786000320353843718811
143,8180.73388078411502169585081388504465,8179.2,1.53388078411502169585081388504465
144,8295.53528437839039284605300312914492,8294.0,1.53528437839039284605300312914492
145,8411.13667825204099856200563218296086,8409.6,1.53667825204099856200563218296086
146,8527.53806253882434988859861402617403,8526.0,1.53806253882434988859861402617403
147,8644.73943736975553525451735282185860,8643.2,1.53943736975553525451735282185860
148,8762.74080287318169678466382245811539,8761.2,1.54080287318169678466382245811539
149,8881.54215917485399327882804408763824,8880.0,1.54215917485399327882804408763824
150,9001.14350639799715349746304307251999,8999.6,1.54350639799715349746304307251999
151,9121.54484466337671566879270321688398,9120.0,1.54484466337671566879270321688398
152,9242.74617408936404351639728399260733,9241.2,1.54617408936404351639728399260733
153,9364.74749479199920775694463377818785,9363.2,1.54749479199920775694463377818785
154,9487.54880688505181696728316212461357,9486.0,1.54880688505181696728316212461357
155,9611.15011048007987605686291194427686,9609.6,1.55011048007987605686291194427686
156,9735.55140568648675021182095531876761,9734.0,1.55140568648675021182095531876761
157,9860.75269261157630535730732402459785,9859.2,1.55269261157630535730732402459785
158,9986.75397136060629695612516484268345,9985.2,1.55397136060629695612516484268345
159,10113.5552420368400708164908948265782,10112.0,1.5552420368400708164908948265782
160,10241.1565047415966422464243620316921,10239.6,1.5565047415966422464243620316921
161,10369.5577595742992120508602622379610,10368.0,1.5577595742992120508602622379610
162,10498.7590066325221788325525137732765,10497.2,1.5590066325221788325525137732765
163,10628.7602460120367024500411778875227,10627.2,1.5602460120367024500411778875227
164,10759.5614778068548732692472258250629,10758.0,1.5614778068548732692472258250629
165,10891.1627021092725358088830653209240,10889.6,1.5627021092725358088830653209240
166,11023.5639190099108172952378515121551,11022.0,1.5639190099108172952378515121551
167,11156.7651285977564083586273143589145,11155.2,1.5651285977564083586273143589145
168,11290.7663309602006385603918789895242,11289.2,1.5663309602006385603918789895242
169,11425.5675261830773918125039395472369,11424.0,1.5675261830773918125039395472369
170,11561.1687143506999014328702537001847,11559.6,1.5687143506999014328702537001847
171,11697.5698955458964650307604794913912,11696.0,1.5698955458964650307604794913912
172,11834.7710698500451170889900432165778,11833.2,1.5710698500451170889900432165778
173,11972.7722373431072946451582739869461,11971.2,1.5722373431072946451582739869461
174,12111.5733981036605319154260157181310,12110.0,1.5733981036605319154260157181310
175,12251.1745522089302178457359745113323,12249.6,1.5745522089302178457359745113323
176,12391.5756997348204462967987108875817,12390.0,1.5756997348204462967987108875817
177,12532.7768407559439921233519816479104,12531.2,1.5768407559439921233519816479104
178,12674.7779753456514423020596838166671,12673.2,1.5779753456514423020596838166671
179,12817.5791035760595085529664151752767,12816.0,1.5791035760595085529664151752767
180,12961.1802255180785524008765874553498,12959.6,1.5802255180785524008765874553498
181,13105.5813412414393453252143137917515,13104.0,1.5813412414393453252143137917515
182,13250.7824508147190916937195200816284,13249.2,1.5824508147190916937195200816284
183,13396.7835543053667375292241362912581,13395.2,1.5835543053667375292241362912581
184,13543.5846517797275893510143701157689,13542.0,1.5846517797275893510143701157689
185,13691.1857433030672648988722257424273,13689.6,1.5857433030672648988722257424273
186,13839.5868289395949967083854059908905,13838.0,1.5868289395949967083854059908905
187,13988.7879087524863123379926292288563,13987.2,1.5879087524863123379926292288563
188,14138.7889828039051066840483347955141,14137.2,1.5889828039051066840483347955141
189,14289.5900511550251301149639361089467,14288.0,1.5900511550251301149639361089467
190,14441.1911138660509080754695189031065,14439.6,1.5911138660509080754695189031065
191,14593.5921709962381113835138191582485,14592.0,1.5921709962381113835138191582485
192,14746.7932226039133936019706700151213,14745.2,1.5932226039133936019706700151213
193,14900.7942687464937137889644926067812,14899.2,1.5942687464937137889644926067812
194,15055.5953094805051579675615162238565,15054.0,1.5953094805051579675615162238565
195,15211.1963448616012772471489098058533,15209.6,1.5963448616012772471489098058533
196,15367.5973749445809562883645794926510,15366.0,1.5973749445809562883645794926510
197,15524.7983997834058264868611268803632,15523.2,1.5983997834058264868611268803632
198,15682.7994194312172380378451203612689,15681.2,1.5994194312172380378451203612689
199,15841.6004339403528037152074048213836,15840.0,1.6004339403528037152074048213836
200,16001.2014433623625283054054781421257,15999.6,1.6014433623625283054054781421257
201,16161.6024477480245346724768797320204,16160.0,1.6024477480245346724768797320204
202,16322.8034471473603998302951117637440,16321.2,1.6034471473603998302951117637440
203,16484.8044416096501116767501206351476,16483.2,1.6044416096501116767501206351476
204,16647.6054311834466580047151026255180,16646.0,1.6054311834466580047151026255180
205,16811.2064159165902577551116829522964,16809.6,1.6064159165902577551116829522964
206,16975.6073958562222475307705859303508,16974.0,1.6073958562222475307705859303508
207,17140.8083710487986292417133692105405,17139.2,1.6083710487986292417133692105405
208,17306.8093415401032931032599853355667,17305.2,1.6093415401032931032599853355667
209,17473.6103073752609217297899219924240,17472.0,1.6103073752609217297899219924240
210,17641.2112685987495868197560527752674,17639.6,1.6112685987495868197560527752674
211,17809.6122252544130457909077093660291,17808.0,1.6122252544130457909077093660291
212,17978.8131773854727485928452626225016,17977.2,1.6131773854727485928452626225016
213,18148.8141250345395590747942598169330,18147.2,1.6141250345395590747942598169330
214,18319.6150682436252058842827218916181,18318.0,1.6150682436252058842827218916181
215,18491.2160070541534621029465006987465,18489.6,1.6160070541534621029465006987465
216,18663.6169415069710675739132960265843,18662.0,1.6169415069710675739132960265843
217,18836.8178716423583978798008187089186,18835.2,1.6178716423583978798008187089186
218,19010.8187975000398889437722108031446,19009.2,1.6187975000398889437722108031446
219,19185.6197191191942205265776902717963,19184.0,1.6197191191942205265776902717963
220,19361.2206365384642711277030704378923,19359.6,1.6206365384642711277030704378923
221,19537.6215497959668421929079300287615,19536.0,1.6215497959668421929079300287615
222,19714.8224589293021688255115976760837,19713.2,1.6224589293021688255115976760837
223,19892.8233639755632105622507142342435,19891.2,1.6233639755632105622507142342435
224,20071.6242649713447372729991363629648,20070.0,1.6242649713447372729991363629648
225,20251.2251619527522127408851421794353,20249.6,1.6251619527522127408851421794353
226,20431.6260549554104794607390901949723,20430.0,1.6260549554104794607390901949723
227,20612.8269440144722532987102282195458,20611.2,1.6269440144722532987102282195458
228,20794.8278291646264298232442112755098,20793.2,1.6278291646264298232442112755098
229,20977.6287104401062094595568059742635,20976.0,1.6287104401062094595568059742635
230,21161.2295878746970461538322514161331,21159.6,1.6295878746970461538322514161331
231,21345.6304615017444213364008926044598,21344.0,1.6304615017444213364008926044598
232,21530.8313313541614535928007693355789,21529.2,1.6313313541614535928007693355789
233,21716.8321974644363390282115077284727,21715.2,1.6321974644363390282115077284727
234,21903.6330598646396384713101218113279,21902.0,1.6330598646396384713101218113279
235,22091.2339185864314046886322249983326,22089.6,1.6339185864314046886322249983326
236,22279.6347736610681593081903327425131,22278.0,1.6347736610681593081903327425131
237,22468.8356251194097230724594028010409,22467.2,1.6356251194097230724594028010409
238,22658.8364729919259011517233655996604,22657.2,1.6364729919259011517233655996604
