Eigenstate,Energy,Kinetic Energy,Potential Energy
1,0.500000000090243399007765293851430931,0.0,0.500000000090243399007765293851430931
2,1.84623093824017785818099516927149350,1.2,0.64623093824017785818099516927149350
3,3.93633761143530740597038537973029134,3.2,0.73633761143530740597038537973029134
4,6.79966528141833968904139747397597188,6.0,0.79966528141833968904139747397597188
5,10.4480465815287645375031960382561136,9.6,0.8480465815287645375031960382561136
6,14.8870660065309387597184006234887799,14.0,0.8870660065309387597184006234887799
7,20.1197208378675979285155943022771400,19.2,0.9197208378675979285155943022771400
8,26.1477838619181228412853601876041080,25.2,0.9477838619181228412853601876041080
9,32.9723835776902399950063308630005700,32.0,0.9723835776902399950063308630005700
10,40.5942802393334692186149942636610928,39.6,0.9942802393334692186149942636610928
11,49.0140094169895280870430690493785260,48.0,1.0140094169895280870430690493785260
12,58.2319622059635732693593865258337975,57.2,1.0319622059635732693593865258337975
13,68.2484327363218520606469269697639213,67.2,1.0484327363218520606469269697639213
14,79.0636477057478982903595419979057557,78.0,1.0636477057478982903595419979057557
15,90.6777854953567379513311064001631948,89.6,1.0777854953567379513311064001631948
16,103.090988974565347365866683849769919,102.0,1.090988974565347365866683849769919
17,116.303374334554166146143153501498891,115.2,1.103374334554166146143153501498891
18,130.315037339273302532439951367090567,129.2,1.115037339273302532439951367090567
19,145.126057848546515129161990891552330,144.0,1.126057848546515129161990891552330
20,160.736503155705152301997358823604659,159.6,1.136503155705152301997358823604659
21,177.146430493669851518486943329887287,176.0,1.146430493669851518486943329887287
22,194.355888946109281092242540380112819,193.2,1.155888946109281092242540380112819
23,212.364920925376666058578877895322720,211.2,1.164920925376666058578877895322720
24,231.173563329910211272887732886803746,230.0,1.173563329910211272887732886803746
25,250.781848461029028536060768268111794,249.6,1.181848461029028536060768268111794
26,271.189804756740724926849493561064079,270.0,1.189804756740724926849493561064079
27,292.397457384703979105098091638673587,291.2,1.197457384703979105098091638673587
28,314.404828725587581530595549009498857,313.2,1.204828725587581530595549009498857
29,337.211938770272386713813704464359509,336.0,1.211938770272386713813704464359509
30,360.818805448693138040593540225362469,359.6,1.218805448693138040593540225362469
31,385.225444903971187209265156178746043,384.0,1.225444903971187209265156178746043
32,410.431871722411230731438896355402316,409.2,1.231871722411230731438896355402316
33,436.438099127625538141738272664250809,435.2,1.238099127625538141738272664250809
34,463.244139145298600294241959102359001,462.0,1.244139145298600294241959102359001
35,490.850002743765931056708642402716170,489.6,1.250002743765931056708642402716170
36,519.255699954547276834370821395365857,518.0,1.255699954547276834370821395365857
37,548.461239976170403806014398677032890,547.2,1.261239976170403806014398677032890
38,578.466631263991214011501374954435606,577.2,1.266631263991214011501374954435606
39,609.271881608218092780055442194215475,608.0,1.271881608218092780055442194215475
40,640.876998201952569204838574360200824,639.6,1.276998201952569204838574360200824
41,673.281987700741621095433906406567637,672.0,1.281987700741621095433906406567637
42,706.486856274881963238194859908836553,705.2,1.286856274881963238194859908836553
43,740.491609655510171449385935445976125,739.2,1.291609655510171449385935445976125
44,775.296253175344400890442736010724588,774.0,1.296253175344400890442736010724588
45,810.900791804805887545607377347509855,809.6,1.300791804805887545607377347509855
46,847.305230184135285479542491519817461,846.0,1.305230184135285479542491519817461
47,884.509572652025415880147389249714275,883.2,1.309572652025415880147389249714275
48,922.513823271214417527513423360093548,921.2,1.313823271214417527513423360093548
49,961.317985851418625786027310145949609,960.0,1.317985851418625786027310145949609
50,1000.92206396993038450295205772336088,999.6,1.32206396993038450295205772336088
51,1041.32606099016052823432158711967784,1040.0,1.32606099016052823432158711967784
52,1082.52998007836692700466785522814797,1081.2,1.32998007836692700466785522814797
53,1124.53382421877803568853863121472850,1123.2,1.33382421877803568853863121472850
54,1167.33759622729282897029581997028282,1166.0,1.33759622729282897029581997028282
55,1210.94129876391502734616194219659091,1209.6,1.34129876391502734616194219659091
56,1255.34493434405944506234861128501531,1254.0,1.34493434405944506234861128501531
57,1300.54850534885109191797444773199652,1299.2,1.34850534885109191797444773199652
58,1346.55201403452286367518309000009428,1345.2,1.35201403452286367518309000009428
59,1393.35546254100490187159096885455506,1392.0,1.35546254100490187159096885455506
60,1440.95885289978767932248834457781390,1439.6,1.35885289978767932248834457781390
61,1489.36218704113130337270837990763418,1488.0,1.36218704113130337270837990763418
62,1538.56546680068522795296253923034734,1537.2,1.36546680068522795296253923034734
63,1588.56869392557532360641700259792913,1587.2,1.36869392557532360641700259792913
64,1639.37187008000894217136036332858708,1638.0,1.37187008000894217136036332858708
65,1690.97499685044307796583826518569459,1689.6,1.37499685044307796583826518569459
66,1743.37807575035587998107431156087850,1742.0,1.37807575035587998107431156087850
67,1796.58110822465750729916954567795981,1795.2,1.38110822465750729916954567795981
68,1850.58409565377256378976280428103404,1849.2,1.38409565377256378976280428103404
69,1905.38703935742303546960649982770885,1904.0,1.38703935742303546960649982770885
70,1960.98994059813772564074677302191643,1959.6,1.38994059813772564074677302191643
71,2017.39280058451158421926592925451494,2016.0,1.39280058451158421926592925451494
72,2074.59562047423602942416339567430150,2073.2,1.39562047423602942416339567430150
73,2132.59840137691930698954824870526631,2131.2,1.39840137691930698954824870526631
74,2191.40114435671411321476234270475533,2190.0,1.40114435671411321476234270475533
75,2251.00385043476807706595006259862614,2249.6,1.40385043476807706595006259862614
76,2311.40652059151124698583453604081475,2310.0,1.40652059151124698583453604081475
77,2372.60915576879342567004219044664300,2371.2,1.40915576879342567004219044664300
78,2434.61175687188303027013674813272184,2433.2,1.41175687188303027013674813272184
79,2497.41432477133810866353132002095689,2496.0,1.41432477133810866353132002095689
80,2561.01686030475920430480238058159781,2559.6,1.41686030475920430480238058159781
81,2625.41936427843291283145309230497144,2624.0,1.41936427843291283145309230497144
82,2690.62183746887421214661932157137655,2689.2,1.42183746887421214661932157137655
83,2756.62428062427495896742204680026120,2755.2,1.42428062427495896742204680026120
84,2823.42669446586532053595379929079966,2822.0,1.42669446586532053595379929079966
85,2891.02907968919435091371288548618352,2889.6,1.42907968919435091371288548618352
86,2959.43143696533540541490959426615957,2958.0,1.43143696533540541490959426615957
87,3028.63376694202162926326926919004929,3027.2,1.43376694202162926326926919004929
88,3098.63607024471633317922080085576153,3097.2,1.43607024471633317922080085576153
89,3169.43834747762268510219801921593935,3168.0,1.43834747762268510219801921593935
90,3241.04059922463680403605196506790838,3239.6,1.44059922463680403605196506790838
91,3313.44282605024802055352179979990215,3312.0,1.44282605024802055352179979990215
92,3386.64502850038978019817244077699128,3385.2,1.44502850038978019817244077699128
93,3460.64720710324440376715208579540973,3459.2,1.44720710324440376715208579540973
94,3535.44936237000467552938436757943835,3534.0,1.44936237000467552938436757943835
95,3611.05149479559500927978114718658942,3609.6,1.45149479559500927978114718658942
96,3687.45360485935474030794557081506560,3686.0,1.45360485935474030794557081506560
97,3764.65569302568590701772576353089714,3763.2,1.45569302568590701772576353089714
98,3842.65775974466771305968450838970263,3841.2,1.45775974466771305968450838970263
99,3921.45980545263970736636197669405822,3920.0,1.45980545263970736636197669405822
100,4001.06183057275557313979181613603125,3999.6,1.46183057275557313979181613603125
101,4081.46383551550928753657749315394870,4080.0,1.46383551550928753657749315394870
102,4162.66582067923528822111408158472609,4161.2,1.46582067923528822111408158472609
103,4244.66778645058417504392838185353461,4243.2,1.46778645058417504392838185353461
104,4327.46973320497536783740048077964197,4326.0,1.46973320497536783740048077964197
105,4411.07166130702804824737203103702228,4409.6,1.47166130702804824737203103702228
106,4495.47357111097162275490406701800259,4494.0,1.47357111097162275490406701800259
107,4580.67546296103686596049152451325701,4579.2,1.47546296103686596049152451325701
108,4666.67733719182882396348747140051766,4665.2,1.47733719182882396348747140051766
109,4753.47919412868248907595629415308879,4752.0,1.47919412868248907595629415308879
110,4841.08103408800219469004999939518436,4839.6,1.48103408800219469004999939518436
111,4929.48285737758561325680370163758752,4928.0,1.48285737758561325680370163758752
112,5018.68466429693319090061319961587379,5017.2,1.48466429693319090061319961587379
113,5108.68645513754379665786337749994929,5107.2,1.48645513754379665786337749994929
114,5199.48823018319731557042055776897634,5198.0,1.48823018319731557042055776897634
115,5291.08998971022487441619908491013384,5289.6,1.48998971022487441619908491013384
116,5383.49173398776734052736506252184639,5382.0,1.49173398776734052736506252184639
117,5476.69346327802270243373307959952090,5475.2,1.49346327802270243373307959952090
118,5570.69517783648290003780690642359578,5569.2,1.49517783648290003780690642359578
119,5665.49687791216063831419881492673693,5664.0,1.49687791216063831419881492673693
120,5761.09856374780669268392789845705086,5759.6,1.49856374780669268392789845705086
121,5857.50023558011817594685326574710433,5856.0,1.50023558011817594685326574710433
122,5954.70189363993821774236589439733229,5953.2,1.50189363993821774236589439733229
123,6052.70353815244747531553123378698756,6051.2,1.50353815244747531553123378698756
124,6151.50516933734787668606588753713993,6150.0,1.50516933734787668606588753713993
125,6251.10678740903896775126963481829690,6249.6,1.50678740903896775126963481829690
126,6351.50839257678721965673597906073893,6350.0,1.50839257678721965673597906073893
127,6452.70998504488863219077894872137795,6451.2,1.50998504488863219077894872137795
128,6554.71156501282494637132412553206539,6553.2,1.51156501282494637132412553206539
129,6657.51313267541376732077391552913335,6656.0,1.51313267541376732077391552913335
130,6761.11468822295288014249040640416062,6759.6,1.51468822295288014249040640416062
131,6865.51623184135902610842129598917751,6864.0,1.51623184135902610842129598917751
132,6970.71776371230139149019424353347744,6969.2,1.51776371230139149019424353347744
133,7076.71928401333004958442038990217153,7075.2,1.51928401333004958442038990217153
134,7183.52079291799958520699086539502644,7182.0,1.52079291799958520699086539502644
135,7291.12229059598811282280666908657857,7289.6,1.52229059598811282280666908657857
136,7399.52377721321189578985263828289219,7398.0,1.52377721321189578985263828289219
137,7508.72525293193576088858352338507513,7507.2,1.52525293193576088858352338507513
138,7618.72671791087948869559949452017935,7617.2,1.52671791087948869559949452017935
139,7729.52817230532035825468306492838944,7728.0,1.52817230532035825468306492838944
140,7841.12961626719200905230211007154524,7839.6,1.52961626719200905230211007154524
141,7953.53104994517977874719321929475679,7952.0,1.53104994517977874719321929475679
142,8066.73247348481266703037419636540374,8065.2,1.53247348481266703037419636540374
143,8180.73388702855206734176421362411205,8179.2,1.53388702855206734176421362411205
144,8295.53529071587740098995493670823290,8294.0,1.53529071587740098995493670823290
145,8411.13668468336878403391597290821297,8409.6,1.53668468336878403391597290821297
146,8527.53806906478684941666858371218318,8526.0,1.53806906478684941666858371218318
147,8644.73944399114983863799554741863529,8643.2,1.53944399114983863799554741863529
148,8762.74080959080807829522186798887072,8761.2,1.54080959080807829522186798887072
149,8881.54216598951594329302815212882777,8880.0,1.54216598951594329302815212882777
150,9001.14351331050141036318018159129813,8999.6,1.54351331050141036318018159129813
151,9121.54485167453329780843717748278161,9120.0,1.54485167453329780843717748278161
152,9242.74618119998628176981444720167650,9241.2,1.54618119998628176981444720167650
153,9364.74750200290377796690205155617775,9363.2,1.54750200290377796690205155617775
154,9487.54881419705877281048840296171847,9486.0,1.54881419705877281048840296171847
155,9611.15011789401268212348888846826115,9609.6,1.55011789401268212348888846826115
156,9735.55141320317231533655042111012423,9734.0,1.55141320317231533655042111012423
157,9860.75270023184501620494197375025273,9859.2,1.55270023184501620494197375025273
158,9986.75397908529205186484090104634148,9985.2,1.55397908529205186484090104634148
159,10113.5552498667803139018560574485454,10112.0,1.5552498667803139018560574485454
160,10241.1565126776323977693343188323495,10239.6,1.5565126776323977693343188323495
161,10369.5577676172751190525785503308789,10368.0,1.5577676172751190525785503308789
162,10498.7590147832865260400861457660731,10497.2,1.5590147832865260400861457660731
163,10628.7602542714414634551154144085001,10627.2,1.5602542714414634551154144085001
164,10759.5614861757557419841841209118971,10758.0,1.5614861757557419841841209118971
165,10891.1627105885289622027271836357487,10889.6,1.5627105885289622027271836357487
166,11023.5639276003860434135116506782646,11022.0,1.5639276003860434135116506782646
167,11156.7651373003175046301396705877866,11155.2,1.5651373003175046301396705877866
168,11290.7663397757185403945640236631875,11289.2,1.5663397757185403945640236631875
169,11425.5675351124269364907180969068862,11424.0,1.5675351124269364907180969068862
170,11561.1687233947598652973893498703057,11559.6,1.5687233947598652973893498703057
171,11697.5699047055496009748091466824352,11696.0,1.5699047055496009748091466824352
172,11834.7710791261781923516311942857592,11833.2,1.5710791261781923516311942857592
173,11972.7722467366111289146431600674707,11971.2,1.5722467366111289146431600674707
174,12111.5734076154300357447412589263777,12110.0,1.5734076154300357447412589263777
175,12251.1745618398644313841153716018363,12249.6,1.5745618398644313841153716018363
176,12391.5757094858225783410146770972421,12390.0,1.5757094858225783410146770972421
177,12532.7768506279214594926480188236918,12531.2,1.5768506279214594926480188236918
178,12674.7779853395159095406325451092929,12673.2,1.5779853395159095406325451092929
179,12817.5791136927269279639553318239062,12816.0,1.5791136927269279639553318239062
180,12961.1802357584692044158659552189344,12959.6,1.5802357584692044158659552189344
181,13105.5813516064778792133054768144904,13104.0,1.5813516064778792133054768144904
182,13250.7824613053345666142782764474677,13249.2,1.5824613053345666142782764474677
183,13396.7835649224926639324618309199093,13395.2,1.5835649224926639324618309199093
184,13543.5846625243019707306121811358263,13542.0,1.5846625243019707306121811358263
185,13691.1857541760326399009120932176759,13689.6,1.5857541760326399009120932176759
186,13839.5868399418984816009030173781725,13838.0,1.5868399418984816009030173781725
187,13988.7879198850796438455242921849870,13987.2,1.5879198850796438455242921849870
188,14138.7889940677446851915976495177998,14137.2,1.5889940677446851915976495177998
189,14289.5900625510720632458708257008761,14288.0,1.5900625510720632458708257008761
190,14441.1911253952710546477213547416428,14439.6,1.5911253952710546477213547416428
191,14593.5921826596021257490962009506315,14592.0,1.5921826596021257490962009506315
192,14746.7932344023967703739141623100104,14745.2,1.5932344023967703739141623100104
193,14900.7942806810768329608039163244727,14899.2,1.5942806810768329608039163244727
194,15055.5953215521733304299840623670211,15054.0,1.5953215521733304299840623670211
195,15211.1963570713447907066704022586090,15209.6,1.5963570713447907066704022586090
196,15367.5973872933951215929345446256059,15366.0,1.5973872933951215929345446256059
197,15524.7984122722910243633615683517675,15523.2,1.5984122722910243633615683517675
198,15682.7994320611789662465122329472848,15681.2,1.5994320611789662465122329472848
199,15841.6004467124017246260716346769838,15840.0,1.6004467124017246260716346769838
200,16001.2014562775145169019109079898104,15999.6,1.6014562775145169019109079898104
201,16161.6024608073007269875090347344265,16160.0,1.6024608073007269875090347344265
202,16322.8034603517872418199160958701311,16321.2,1.6034603517872418199160958701311
203,16484.8044549602594085370074566068781,16483.2,1.6044549602594085370074566068781
204,16647.6054446812756239369641163386993,16646.0,1.6054446812756239369641163386993
205,16811.2064295626815661853611955978318,16809.6,1.6064295626815661853611955978318
206,16975.6074096516240817886361846169998,16974.0,1.6074096516240817886361846169998
207,17140.8083849945647337046365208163796,17139.2,1.6083849945647337046365208163796
208,17306.8093556372930248117259078322284,17305.2,1.6093556372930248117259078322284
209,17473.6103216249393024793556778923003,17472.0,1.6103216249393024793556778923003
210,17641.2112830019873557357762032270164,17639.6,1.6112830019873557357762032270164
211,17809.6122398122867123919251411696930,17808.0,1.6122398122867123919251411696930
212,17978.8131920990646463486952261946443,17977.2,1.6131920990646463486952261946443
213,18148.8141399049378994655513242488931,18147.2,1.6141399049378994655513242488931
214,18319.6150832719241329662626250047447,18318.0,1.6150832719241329662626250047447
215,18491.2160222414531075880603692299236,18489.6,1.6160222414531075880603692299236
216,18663.6169568543776064287568205451905,18662.0,1.6169568543776064287568205451905
217,18836.8178871509841044509479530754524,18835.2,1.6178871509841044509479530754524
218,19010.8188131710031936158311314065299,19009.2,1.6188131710031936158311314065299
219,19185.6197349536197669196584178456842,19184.0,1.6197349536197669196584178456842
220,19361.2206525374829738410350422761475,19359.6,1.6206525374829738410350422761475
221,19537.6215659607159451014405759900253,19536.0,1.6215659607159451014405759900253
222,19714.8224752609253039364244319926475,19713.2,1.6224752609253039364244319926475
223,19892.8233804752104574383954769940471,19891.2,1.6233804752104574383954769940471
224,20071.6242816401726830303942120855093,20070.0,1.6242816401726830303942120855093
225,20251.2251787919240126274814648547306,20249.6,1.6251787919240126274814648547306
226,20431.6260719660959180237776554051126,20430.0,1.6260719660959180237776554051126
227,20612.8269611978478061480923568695887,20611.2,1.6269611978478061480923568695887
228,20794.8278465218753259984418231266952,20793.2,1.6278465218753259984418231266952
229,20977.6287279724184944076942728153801,20976.0,1.6287279724184944076942728153801
230,21161.2296055832696453266786055965922,21159.6,1.6296055832696453266786055965922
231,21345.6304793877812044141216554423057,21344.0,1.6304793877812044141216554423057
232,21530.8313494188732993424287582487335,21529.2,1.6313494188732993424287582487335
233,21716.8322157090412008049087744075962,21715.2,1.6322157090412008049087744075962
234,21903.6330782903626103706089900740712,21902.0,1.6330782903626103706089900740712
235,22091.2339371945047883579585652739770,22089.6,1.6339371945047883579585652739770
236,22279.6347924527315314260917986827302,22278.0,1.6347924527315314260917986827302
237,22468.8356440959100035040817418084853,22467.2,1.6356440959100035040817418084853
238,22658.8364921545174217892005065359822,22657.2,1.6364921545174217892005065359822
