Eigenstate,Energy,Kinetic Energy,Potential Energy
1,0.500000000315114950634743954045057408,0.0,0.500000000315114950634743954045057408
2,1.84623093970804335922471396888035941,1.2,0.64623093970804335922471396888035941
3,3.93633761574714057045064554915019605,3.2,0.73633761574714057045064554915019605
4,6.79966529039967177394432975531192827,6.0,0.79966529039967177394432975531192827
5,10.4480465970868787270796341183583050,9.6,0.8480465970868787270796341183583050
6,14.8870660306068842113369826120745806,14.0,0.8870660306068842113369826120745806
7,20.1197208724185703264059188743023032,19.2,0.9197208724185703264059188743023032
8,26.1477839089101728902761283578852136,25.2,0.9477839089101728902761283578852136
9,32.9723836390949348391397122982678315,32.0,0.9723836390949348391397122982678315
10,40.5942803171262458999334874879033312,39.6,0.9942803171262458999334874879033312
11,49.0140095131488436342583345756899459,48.0,1.0140095131488436342583345756899459
12,58.2319623224704608328006488980748259,57.2,1.0319623224704608328006488980748259
13,68.2484328751596981976729427832174773,67.2,1.0484328751596981976729427832174773
14,79.0636478689023476222207521502260967,78.0,1.0636478689023476222207521502260967
15,90.6777856848156747614508144960149901,89.6,1.0777856848156747614508144960149901
16,103.090989192318925631094511581206599,102.0,1.090989192318925631094511581206599
17,116.303374582594871176603056143062711,115.2,1.103374582594871176603056143062711
18,130.315037619596033913710675214291034,129.2,1.115037619596033913710675214291034
19,145.126058163148684444628640578789046,144.0,1.126058163148684444628640578789046
20,160.736503506586791388548780610048531,159.6,1.136503506586791388548780610048531
21,177.146430882833728420091782168499847,176.0,1.146430882833728420091782168499847
22,194.355889375561021776005336253900043,193.2,1.155889375561021776005336253900043
23,212.364921397124880546338616995800163,211.2,1.164921397124880546338616995800163
24,231.173563845966623234880519737409650,230.0,1.173563845966623234880519737409650
25,250.781849023408607661645319185859255,249.6,1.181849023408607661645319185859255
26,271.189805367461821573908939956887838,270.0,1.189805367461821573908939956887838
27,292.397458045788460861657453051545949,291.2,1.197458045788460861657453051545949
28,314.404829439060971416917671782472073,313.2,1.204829439060971416917671782472073
29,337.211939538164002822229319250389026,336.0,1.211939538164002822229319250389026
30,360.818806273036234461243937361950803,359.6,1.218806273036234461243937361950803
31,385.225445786803096127988529364780028,384.0,1.225445786803096127988529364780028
32,410.431872665773505614796362190662473,409.2,1.231872665773505614796362190662473
33,436.438100133564097946157534563078891,435.2,1.238100133564097946157534563078891
34,463.244140215863874653227467744082222,462.0,1.244140215863874653227467744082222
35,490.850003881013006413298718440828874,489.6,1.250003881013006413298718440828874
36,519.255701160536043496434017921945667,518.0,1.255701160536043496434017921945667
37,548.461241252965703910245967729632872,547.2,1.261241252965703910245967729632872
38,578.466632613662990388603733310855787,577.2,1.266632613662990388603733310855787
39,609.271883032841538718938234659141331,608.0,1.271883032841538718938234659141331
40,640.876999703608279118034939157789452,639.6,1.276999703608279118034939157789452
41,673.281989281515742091513298877684642,672.0,1.281989281515742091513298877684642
42,706.486857936866347609923529489074699,705.2,1.286857936866347609923529489074699
43,740.491611400802530088869963759272255,739.2,1.291611400802530088869963759272255
44,775.296255006048457644582995646865447,774.0,1.296255006048457644582995646865447
45,810.900793723031534526978806050313836,809.6,1.300793723031534526978806050313836
46,847.305232191998739349341468110451196,846.0,1.305232191998739349341468110451196
47,884.509574751649375121178624326369132,883.2,1.309574751649375121178624326369132
48,922.513825464728220726350600443082185,921.2,1.313825464728220726350600443082185
49,961.317988140958410944509450251053733,960.0,1.317988140958410944509450251053733
50,1000.92206635763924940009543133685305,999.6,1.32206635763924940009543133685305
51,1041.32606347818869186055549567772182,1040.0,1.32606347818869186055549567772182
52,1082.52998266887189209105662554932930,1081.2,1.32998266887189209105662554932930
53,1124.53382691392475235434658833292272,1123.2,1.33382691392475235434658833292272
54,1167.33759902925385951289686947163570,1166.0,1.33759902925385951289686947163570
55,1210.94130167487071219790002797912615,1209.6,1.34130167487071219790002797912615
56,1255.34493736619806993952739639707307,1254.0,1.34493736619806993952739639707307
57,1300.54850848436905618769958810202388,1299.2,1.34850848436905618769958810202388
58,1346.55201728562484996630591729633785,1345.2,1.35201728562484996630591729633785
59,1393.35546590990404695650876263409582,1392.0,1.35546590990404695650876263409582
60,1440.95885638870574629705173378091823,1439.6,1.35885638870574629705173378091823
61,1489.36219065229885516197094999158171,1488.0,1.36219065229885516197094999158171
62,1538.56547053634180217098585341979327,1537.2,1.36547053634180217098585341979327
63,1588.56869778796960879881642758284523,1587.2,1.36869778796960879881642758284523
64,1639.37187407139895546974731146437971,1638.0,1.37187407139895546974731146437971
65,1690.97500097309634418378442967869527,1689.6,1.37500097309634418378442967869527
66,1743.37808000654961218169194540642183,1742.0,1.37808000654961218169194540642183
67,1796.58111261667878886487383883111114,1795.2,1.38111261667878886487383883111114
68,1850.58410018391853202525615193093403,1849.2,1.38410018391853202525615193093403
69,1905.38704402800106676960436734407586,1904.0,1.38704402800106676960436734407586
70,1960.98994541146562225444580006017398,1959.6,1.38994541146562225444580006017398
71,2017.39280554291776264404657673845408,2016.0,1.39280554291776264404657673845408
72,2074.59562558005971046151286288038154,2073.2,1.39562558005971046151286288038154
73,2132.59840663251070749669437400519308,2131.2,1.39840663251070749669437400519308
74,2191.40114976443463958601821159480906,2190.0,1.40114976443463958601821159480906
75,2251.00385599699052047828993085507122,2249.6,1.40385599699052047828993085507122
76,2311.40652631061998044374839650757588,2310.0,1.40652631061998044374839650757588
77,2372.60916164718460288525522134718834,2371.2,1.40916164718460288525522134718834
78,2434.61176291196478641232744482066036,2433.2,1.41176291196478641232744482066036
79,2497.41433097553076301874044491847022,2496.0,1.41433097553076301874044491847022
80,2561.01686667549546487879362965191730,2559.6,1.41686667549546487879362965191730
81,2625.41937081815808293586777719924268,2624.0,1.41937081815808293586777719924268
82,2690.62184418004639900635906750946532,2689.2,1.42184418004639900635906750946532
83,2756.62428750936528438829837722012049,2755.2,1.42428750936528438829837722012049
84,2823.42670152735813367226062002000583,2822.0,1.42670152735813367226062002000583
85,2891.02908692958744317600790921766025,2889.6,1.42908692958744317600790921766025
86,2959.43144438714022755893405160206310,2958.0,1.43144438714022755893405160206310
87,3028.63377454776351070159308833828143,3027.2,1.43377454776351070159308833828143
88,3098.63607803693470355787126015967510,3097.2,1.43607803693470355787126015967510
89,3169.43835545887129818521610225144121,3168.0,1.43835545887129818521610225144121
90,3241.04060739748396394162120521557118,3239.6,1.44060739748396394162120521557118
91,3313.44283441727681038603141766818851,3312.0,1.44283441727681038603141766818851
92,3386.64503706419829312130740801023797,3385.2,1.44503706419829312130740801023797
93,3460.64721586644597656385177197252709,3459.2,1.44721586644597656385177197252709
94,3535.44937133522812469527546928868891,3534.0,1.44937133522812469527546928868891
95,3611.05150396548486969747265544936267,3609.6,1.45150396548486969747265544936267
96,3687.45361423657150655037160146575828,3686.0,1.45361423657150655037160146575828
97,3764.65570261290627732954051613150707,3763.2,1.45570261290627732954051613150707
98,3842.65776954458483606654632838732884,3841.2,1.45776954458483606654632838732884
99,3921.45981546796343156279971389878159,3920.0,1.45981546796343156279971389878159
100,4001.06184080621269920721743673372237,3999.6,1.46184080621269920721743673372237
101,4081.46384596984382354390278665015755,4080.0,1.46384596984382354390278665015755
102,4162.66583135720870776134165896696024,4161.2,1.46583135720870776134165896696024
103,4244.66779735497567836101922066321105,4243.2,1.46779735497567836101922066321105
104,4327.46974433858214599867675162145269,4326.0,1.46974433858214599867675162145269
105,4411.07167267266555041768799656110203,4409.6,1.47167267266555041768799656110203
106,4495.47358271147382662981641216207167,4494.0,1.47358271147382662981641216207167
107,4580.67547479925655141668182734123627,4579.2,1.47547479925655141668182734123627
108,4666.67734927063784998573254266669892,4665.2,1.47734927063784998573254266669892
109,4753.47920645097207402101069737432490,4752.0,1.47920645097207402101069737432490
110,4841.08104665668319994889639408371407,4839.6,1.48104665668319994889639408371407
111,4929.48287019558883037784437980977839,4928.0,1.48287019558883037784437980977839
112,5018.68467736720963223751881586073826,5017.2,1.48467736720963223751881586073826
113,5108.68646846306498960696333027962565,5107.2,1.48646846306498960696333027962565
114,5199.48824376695560046371580491094480,5198.0,1.48824376695560046371580491094480
115,5291.09000355523370613730117122373461,5289.6,1.49000355523370613730117122373461
116,5383.49174809706159391891656360397131,5382.0,1.49174809706159391891656360397131
117,5476.69347765465898156614584066037577,5475.2,1.49347765465898156614584066037577
118,5570.69519248353985141046344078190818,5569.2,1.49519248353985141046344078190818
119,5665.49689283273926806160381909594314,5664.0,1.49689283273926806160381909594314
120,5761.09857894503068786066702047576254,5759.6,1.49857894503068786066702047576254
121,5857.50025105713422996662169292117195,5856.0,1.50025105713422996662169292117195
122,5954.70190939991636004776421663037231,5953.2,1.50190939991636004776421663037231
123,6052.70355419858140535679658403257412,6051.2,1.50355419858140535679658403257412
124,6151.50518567285530228840960164437432,6150.0,1.50518567285530228840960164437432
125,6251.10680403716194795203364138724799,6249.6,1.50680403716194795203364138724799
126,6351.50840950079251209515501510586692,6350.0,1.50840950079251209515501510586692
127,6452.71000226806804513474869065190969,6451.2,1.51000226806804513474869065190969
128,6554.71158253849569546722667184018691,6553.2,1.51158253849569546722667184018691
129,6657.51315050691883715410189135678386,6656.0,1.51315050691883715410189135678386
130,6761.11470636366139069874005075930540,6759.6,1.51470636366139069874005075930540
131,6865.51625029466660422549794551515088,6864.0,1.51625029466660422549794551515088
132,6970.71778248163054739538669606472805,6969.2,1.51778248163054739538669606472805
133,7076.71930310213055861085500831079796,7075.2,1.51930310213055861085500831079796
134,7183.52081232974887478638091269412855,7182.0,1.52081232974887478638091269412855
135,7291.12231033419165485325654613493964,7289.6,1.52231033419165485325654613493964
136,7399.52379728140360447947109334883918,7398.0,1.52379728140360447947109334883918
137,7508.72527333367839617770204478579474,7507.2,1.52527333367839617770204478579474
138,7618.72673864976506536248168861348705,7617.2,1.52673864976506536248168861348705
139,7729.52819338497056081175319314371738,7728.0,1.52819338497056081175319314371738
140,7841.12963769125861254211560524985920,7839.6,1.52963769125861254211560524985920
141,7953.53107171734507554961567602569717,7952.0,1.53107171734507554961567602569717
142,8066.73249560878989979474054795775078,8065.2,1.53249560878989979474054795775078
143,8180.73390950808586816014572692256904,8179.2,1.53390950808586816014572692256904
144,8295.53531355474423693007887701670424,8294.0,1.53531355474423693007887701670424
145,8411.13670788537740915275601666462781,8409.6,1.53670788537740915275601666462781
146,8527.53809263377876337826288960300669,8526.0,1.53809263377876337826288960300669
147,8644.73946793099975206164718076192715,8643.2,1.53946793099975206164718076192715
148,8762.74083390542438496289875237790658,8761.2,1.54083390542438496289875237790658
149,8881.54219068284119934751144860974597,8880.0,1.54219068284119934751144860974597
150,9001.14353838651282063130497335695767,8999.6,1.54353838651282063130497335695767
151,9121.54487713724320938664017556831727,9120.0,1.54487713724320938664017556831727
152,9242.74620705344268501213929590417786,9241.2,1.54620705344268501213929590417786
153,9364.74752825119081501862895927382586,9363.2,1.54752825119081501862895927382586
154,9487.54884084429725383364248507932163,9486.0,1.54884084429725383364248507932163
155,9611.15014494436060936364880882287637,9609.6,1.55014494436060936364880882287637
156,9735.55144066082541518362785739428804,9734.0,1.55144066082541518362785739428804
157,9860.75272810103727940393075484763660,9859.2,1.55272810103727940393075484763660
158,9986.75400737029628203595129483049705,9985.2,1.55400737029628203595129483049705
159,10113.5552785719086845329497376702076,10112.0,1.5552785719086845329497376702076
160,10241.1565418072370178471710587850263,10239.6,1.5565418072370178471710587850263
161,10369.5577971757486075030666032437763,10368.0,1.5577971757486075030666032437763
162,10498.7590447750625951515105044754949,10497.2,1.5590447750625951515105044754949
163,10628.7602847009955114621928726251431,10627.2,1.5602847009955114621928726251431
164,10759.5615170476054549947748857797402,10758.0,1.5615170476054549947748857797402
165,10891.1627419072349256531126720316750,10889.6,1.5627419072349256531126720316750
166,11023.5639593705523632423357490822330,11022.0,1.5639593705523632423357490822330
167,11156.7651695265924383654091395843545,11155.2,1.5651695265924383654091395843545
168,11290.7663724627951383525151028989653,11289.2,1.5663724627951383525151028989653
169,11425.5675682650436932898813060548039,11424.0,1.5675682650436932898813060548039
170,11561.1687570177013818958335821660588,11559.6,1.5687570177013818958335821660588
171,11697.5699388036472574433135518902385,11696.0,1.5699388036472574433135518902385
172,11834.7711137043108316004323300329057,11833.2,1.5711137043108316004323300329057
173,11972.7722817997057515964295215446801,11971.2,1.5722817997057515964295215446801
174,12111.5734431684625065617324314480007,12110.0,1.5734431684625065617324314480007
175,12251.1745978878601970323616942502343,12249.6,1.5745978878601970323616942502343
176,12391.5757460338573973304980600483350,12390.0,1.5757460338573973304980600483350
177,12532.7768876811221440873542642703730,12531.2,1.5768876811221440873542642703730
178,12674.7780229030610800685083863856657,12673.2,1.5780229030610800685083863856657
179,12817.5791517718477797525624918387044,12816.0,1.5791517718477797525624918387044
180,12961.1802743584502876156042651527649,12959.6,1.5802743584502876156042651527649
181,13105.5813907326578917763023738721747,13104.0,1.5813907326578917763023738721747
182,13250.7825009631071607034393611566264,13249.2,1.5825009631071607034393611566264
183,13396.7836051173072660417509480381329,13395.2,1.5836051173072660417509480381329
184,13543.5847032616646158043846552540089,13542.0,1.5847032616646158043846552540089
185,13691.1857954615068197470677879259656,13689.6,1.5857954615068197470677879259656
186,13839.5868817811060078997616187163119,13838.0,1.5868817811060078997616187163119
187,13988.7879622837015260636627258864694,13987.2,1.5879622837015260636627258864694
188,14138.7890370315220237174304036702745,14137.2,1.5890370315220237174304036702745
189,14289.5901060858069580715087081715808,14288.0,1.5901060858069580715087081715808
190,14441.1911695068275299296175086942999,14439.6,1.5911695068275299296175086942999
191,14593.5922273539070705881867924405246,14592.0,1.5922273539070705881867924405246
192,14746.7932796854408961643963998562557,14745.2,1.5932796854408961643963998562557
193,14900.7943265589156476653642815804088,14899.2,1.5943265589156476653642815804088
194,15055.5953680309281301482147854793210,15054.0,1.5953680309281301482147854793210
195,15211.1964041572036689125888825714967,15209.6,1.5964041572036689125888825714967
196,15367.5974349926139964269651813043314,15366.0,1.5974349926139964269651813043314
197,15524.7984605911946843738568955502137,15523.2,1.5984605911946843738568955502137
198,15682.7994810061621349858884619027195,15681.2,1.5994810061621349858884619027195
199,15841.6004962899301445169284985124476,15840.0,1.6004962899301445169284985124476
200,16001.2015064941260527990942855695567,15999.6,1.6015064941260527990942855695567
201,16161.6025116696064898729819558593849,16160.0,1.6025116696064898729819558593849
202,16322.8035118664727330785313150060776,16321.2,1.6035118664727330785313150060776
203,16484.8045071340856852728279150365816,16483.2,1.6045071340856852728279150365816
204,16647.6054975210804858016848846856354,16646.0,1.6054975210804858016848846856354
205,16811.2064830753807642026405195382668,16809.6,1.6064830753807642026405195382668
206,16975.6074638442125496707681932675640,16974.0,1.6074638442125496707681932675640
207,17140.8084398741178421710021621033268,17139.2,1.6084398741178421710021621033268
208,17306.8094112109678594318539922440590,17305.2,1.6094112109678594318539922440590
209,17473.6103778999759655772274629072017,17472.0,1.6103778999759655772274629072017
210,17641.2113399857102929062288873164533,17639.6,1.6113399857102929062288873164533
211,17809.6122975121060641946640973525082,17808.0,1.6122975121060641946640973525082
212,17978.8132505224776257605291241714428,17977.2,1.6132505224776257605291241714428
213,18148.8141990595301956870348879881195,18147.2,1.6141990595301956870348879881195
214,18319.6151431653713421949794724360835,18318.0,1.6151431653713421949794724360835
215,18491.2160828815221913873257884007946,18489.6,1.6160828815221913873257884007946
216,18663.6170182489283783375846461324134,18662.0,1.6170182489283783375846461324134
217,18836.8179493079707454987171878089690,18835.2,1.6179493079707454987171878089690
218,19010.8188760984757974232372767713173,19009.2,1.6188760984757974232372767713173
219,19185.6197986597259150862568160653205,19184.0,1.6197986597259150862568160653205
220,19361.2207170304693423389857985835735,19359.6,1.6207170304693423389857985835735
221,19537.6216312489299424149967898766832,19536.0,1.6216312489299424149967898766832
222,19714.8225413528167417072566469315241,19713.2,1.6225413528167417072566469315241
223,19892.8234473793332543980695708184690,19891.2,1.6234473793332543980695708184690
224,20071.6243493651866030232100607992276,20070.0,1.6243493651866030232100607992276
225,20251.2252473465964375494970431791595,20249.6,1.6252473465964375494970431791595
226,20431.6261413593036565271657404887992,20430.0,1.6261413593036565271657404887992
227,20612.8270314385789389840846508980739,20611.2,1.6270314385789389840846508980739
228,20794.8279176192310888969964680987627,20793.2,1.6279176192310888969964680987627
229,20977.6287999356151994177243226470992,20976.0,1.6287999356151994177243226470992
230,21161.2296784216406415672227085643145,21159.6,1.6296784216406415672227085643145
231,21345.6305531107788792142652252015226,21344.0,1.6305531107788792142652252015226
232,21530.8314240360711207761261974110838,21529.2,1.6314240360711207761261974110838
233,21716.8322912301358026561303589662028,21715.2,1.6322912301358026561303589662028
234,21903.6331547251759205945060303912659,21902.0,1.6331547251759205945060303912659
235,22091.2340145529862021350173334778583,22089.6,1.6340145529862021350173334778583
236,22279.6348707449601299385899103815044,22278.0,1.6348707449601299385899103815044
237,22468.8357233320968195975967620241030,22467.2,1.6357233320968195975967620241030
238,22658.8365723450077537164948978333293,22657.2,1.6365723450077537164948978333293
