Eigenstate,Energy,Kinetic Energy,Potential Energy
1,0.500000000053681042749734766950344340,0.0,0.500000000053681042749734766950344340
2,1.84623093800151669909995538589265592,1.2,0.64623093800151669909995538589265592
3,3.93633761073425425721773353033198331,3.2,0.73633761073425425721773353033198331
4,6.79966527995811104337975565683015381,6.0,0.79966527995811104337975565683015381
5,10.4480465789993166290136891989164040,9.6,0.8480465789993166290136891989164040
6,14.8870660026167807181951642427356201,14.0,0.8870660026167807181951642427356201
7,20.1197208322506675934419379371695473,19.2,0.9197208322506675934419379371695473
8,26.1477838542789833516375579933808162,25.2,0.9477838542789833516375579933808162
9,32.9723835677086336836903790235670322,32.0,0.9723835677086336836903790235670322
10,40.5942802266885964149193479139707852,39.6,0.9942802266885964149193479139707852
11,49.0140094013601964153165790072460591,48.0,1.0140094013601964153165790072460591
12,58.2319621870282809515233746742766352,57.2,1.0319621870282809515233746742766352
13,68.2484327137588352871267739698113308,67.2,1.0484327137588352871267739698113308
14,79.0636476792351579092838455940774402,78.0,1.0636476792351579092838455940774402
15,90.6777854645720536777410710047471494,89.6,1.0777854645720536777410710047471494
16,103.090988939186284148472244670880758,102.0,1.090988939186284148472244670880758
17,116.303374294258075429477699179036294,115.2,1.103374294258075429477699179036294
18,130.315037293737320092512386863691616,129.2,1.115037293737320092512386863691616
19,145.126057797447556545473229425161067,144.0,1.126057797447556545473229425161067
20,160.736503098719906758864765859815840,159.6,1.136503098719906758864765859815840
21,177.146430430474774399169266199452006,176.0,1.146430430474774399169266199452006
22,194.355888876380585683036336163811383,193.2,1.155888876380585683036336163811383
23,212.364920848790314584399447716399181,211.2,1.164920848790314584399447716399181
24,231.173563246141905421894528961859215,230.0,1.173563246141905421894528961859215
25,250.781848369754199587254892429759644,249.6,1.181848369754199587254892429759644
26,271.189804657634523564248633950773807,270.0,1.189804657634523564248633950773807
27,292.397457277441264980664060816568645,291.2,1.197457277441264980664060816568645
28,314.404828609842912622708506998158257,313.2,1.204828609842912622708506998158257
29,337.211938645720008516890051104612429,336.0,1.211938645720008516890051104612429
30,360.818805315006972613185906231071180,359.6,1.218805315006972613185906231071180
31,385.225444760824822101817549525529909,384.0,1.225444760824822101817549525529909
32,410.431871569477907810215376001685969,409.2,1.231871569477907810215376001685969
33,436.438098964578142321892447408776366,435.2,1.238098964578142321892447408776366
34,463.244138971809648192258914051507588,462.0,1.244138971809648192258914051507588
35,490.850002559507559570324040551992042,489.6,1.250002559507559570324040551992042
36,519.255699759191231656404246415397184,518.0,1.255699759191231656404246415397184
37,548.461239769388027877235654897256416,547.2,1.261239769388027877235654897256416
38,578.466631045453435916598478597841485,577.2,1.266631045453435916598478597841485
39,609.271881377595415089930637265154499,608.0,1.271881377595415089930637265154499
40,640.876997958915056767778241672146317,639.6,1.276997958915056767778241672146317
41,673.281987444958889279145051965755516,672.0,1.281987444958889279145051965755516
42,706.486856006023166124248278150926356,705.2,1.286856006023166124248278150926356
43,740.491609373243989981233649842345648,739.2,1.291609373243989981233649842345648
44,775.296252879339030975869075417339379,774.0,1.296252879339030975869075417339379
45,810.900791494729028114216437521500504,809.6,1.300791494729028114216437521500504
46,847.305229859654126495669952365689111,846.0,1.305229859654126495669952365689111
47,884.509572312806626311404130700932089,883.2,1.309572312806626311404130700932089
48,922.513822916924133269015565132526694,921.2,1.313822916924133269015565132526694
49,961.317985481722437540237512419396944,960.0,1.317985481722437540237512419396944
50,1000.92206358449332561494611952245127,999.6,1.32206358449332561494611952245127
51,1041.32606058864706248219910739215490,1040.0,1.32606058864706248219910739215490
52,1082.52997966044093634474366396692466,1081.2,1.32997966044093634474366396692466
53,1124.53382378410280795488053474826030,1123.2,1.33382378410280795488053474826030
54,1167.33759577553104552811210259634463,1166.0,1.33759577553104552811210259634463
55,1210.94129829472875069848775079600982,1209.6,1.34129829472875069848775079600982
56,1255.34493385711010640943250209096313,1254.0,1.34493385711010640943250209096313
57,1300.54850484379947866872406700588129,1299.2,1.34850484379947866872406700588129
58,1346.55201351102910690999111743744846,1345.2,1.35201351102910690999111743744846
59,1393.35546199872846375582892928057200,1392.0,1.35546199872846375582892928057200
60,1440.95885233838734046992540240830230,1439.6,1.35885233838734046992540240830230
61,1489.36218646026515015808485977620963,1488.0,1.36218646026515015808485977620963
62,1538.56546620001063977292284581090718,1537.2,1.36546620001063977292284581090718
63,1588.56869330474896008798380991108778,1587.2,1.36869330474896008798380991108778
64,1639.37186943868673032711093252678054,1638.0,1.37186943868673032711093252678054
65,1690.97499618828019929492409739485269,1689.6,1.37499618828019929492409739485269
66,1743.37807506700675751520736920836780,1742.0,1.37807506700675751520736920836780
67,1796.58110751977579259268118105818958,1795.2,1.38110751977579259268118105818958
68,1850.58409492701112385282556559525789,1849.2,1.38409492701112385282556559525789
69,1905.38703860843393964369373063222091,1904.0,1.38703860843393964369373063222091
70,1960.98993982657223241539071600436868,1959.6,1.38993982657223241539071600436868
71,2017.39279979002012798916094376544112,2016.0,1.39279979002012798916094376544112
72,2074.59561965646820718564791423739946,2073.2,1.39561965646820718564791423739946
73,2132.59840053552386497548608075014244,2131.2,1.39840053552386497548608075014244
74,2191.40114349133893346683162052056765,2190.0,1.40114349133893346683162052056765
75,2251.00384954506016394333591658120426,2249.6,1.40384954506016394333591658120426
76,2311.40651967711671360930989218725757,2310.0,1.40651967711671360930989218725757
77,2372.60915482935748030040936561781428,2371.2,1.40915482935748030040936561781428
78,2434.61175590704996261999109602246914,2433.2,1.41175590704996261999109602246914
79,2497.41432378075127614129689786192351,2496.0,1.41432378075127614129689786192351
80,2561.01685928806101818997853157741678,2559.6,1.41685928806101818997853157741678
81,2625.41936323526482437999959239103276,2624.0,1.41936323526482437999959239103276
82,2690.62183639887669862539678103758492,2689.2,1.42183639887669862539678103758492
83,2756.62427952708750961659333503293233,2755.2,1.42427952708750961659333503293233
84,2823.42669334112642245824112090278433,2822.0,1.42669334112642245824112090278433
85,2891.02907853654147488939422766368053,2889.6,1.42907853654147488939422766368053
86,2959.43143578440499164142732885330206,2958.0,1.43143578440499164142732885330206
87,3028.63376573244907301831246121860066,3027.2,1.43376573244907301831246121860066
88,3098.63606900613597040613181005872379,3097.2,1.43606900613597040613181005872379
89,3169.43834620966777791654273646145280,3168.0,1.43834620966777791654273646145280
90,3241.04059792693952615218189136385390,3239.6,1.44059792693952615218189136385390
91,3313.44282472243944262994464328789452,3312.0,1.44282472243944262994464328789452
92,3386.64502714209985510053672140542370,3385.2,1.44502714209985510053672140542370
93,3460.64720571410195174763949199899147,3459.2,1.44720571410195174763949199899147
94,3535.44936094963736932129203347318580,3534.0,1.44936094963736932129203347318580
95,3611.05149334362935910606432672319077,3609.6,1.45149334362935910606432672319077
96,3687.45360337541607880247915905880520,3686.0,1.45360337541607880247915905880520
97,3764.65569150939837405803112972660496,3763.2,1.45569150939837405803112972660496
98,3842.65775819565424050985597326902251,3841.2,1.45775819565424050985597326902251
99,3921.45980387052200372891477681324526,3920.0,1.45980387052200372891477681324526
100,4001.06182895715410811514114449501984,3999.6,1.46182895715410811514114449501984
101,4081.46383386604327648884529811346188,4080.0,1.46383386604327648884529811346188
102,4162.66581899552267654894772807166783,4161.2,1.46581899552267654894772807166783
103,4244.66778473224162245500223535514212,4243.2,1.46778473224162245500223535514212
104,4327.46973145161823252525807812456045,4326.0,1.46973145161823252525807812456045
105,4411.07165951827037096925348229975823,4409.6,1.47165951827037096925348229975823
106,4495.47356928642611080918973403849493,4494.0,1.47356928642611080918973403849493
107,4580.67546110031487706237904836593647,4579.2,1.47546110031487706237904836593647
108,4666.67733529454035001750571587119025,4665.2,1.47733529454035001750571587119025
109,4753.47919219443613984390525851521758,4752.0,1.47919219443613984390525851521758
110,4841.08103211640518135294178868739057,4839.6,1.48103211640518135294178868739057
111,4929.48285536824373186936488289140286,4928.0,1.48285536824373186936488289140286
112,5018.68466224945080573689414785614279,5017.2,1.48466224945080573689414785614279
113,5108.68645305152382344648549930641917,5107.2,1.48645305152382344648549930641917
114,5199.48822805824120461797675143644221,5198.0,1.48822805824120461797675143644221
115,5291.08998754593259361730777440787926,5289.6,1.48998754593259361730777440787926
116,5383.49173178373735825986216094361148,5382.0,1.49173178373735825986216094361148
117,5476.69346103385197033747072270982214,5475.2,1.49346103385197033747072270982214
118,5570.69517555176683567551139631380681,5569.2,1.49517555176683567551139631380681
119,5665.49687558649310771282418005904265,5664.0,1.49687558649310771282418005904265
120,5761.09856138077999275492460412995072,5759.6,1.49856138077999275492460412995072
121,5857.50023317132301678375500143185915,5856.0,1.50023317132301678375500143185915
122,5954.70189118896370479408024175691693,5953.2,1.50189118896370479408024175691693
123,6052.70353565888109143370254607725842,6051.2,1.50353565888109143370254607725842
124,6151.50516680077546404486140010530704,6150.0,1.50516680077546404486140010530704
125,6251.10678482904470963792159143865525,6249.6,1.50678482904470963792159143865525
126,6351.50838995295362213115476352924156,6350.0,1.50838995295362213115476352924156
127,6452.70998237679650561253363763853779,6451.2,1.50998237679650561253363763853779
128,6554.71156230005338679226814137854949,6553.2,1.51156230005338679226814137854949
129,6657.51312991754013774157471236640633,6656.0,1.51312991754013774157471236640633
130,6761.11468541955279163130261222809521,6759.6,1.51468541955279163130261222809521
131,6865.51622899200631877992337995622806,6864.0,1.51622899200631877992337995622806
132,6970.71776081656811534318875804973266,6969.2,1.51776081656811534318875804973266
133,7076.71928107078644519617793217844576,7075.2,1.51928107078644519617793217844576
134,7183.52078992821406428249716019718108,7182.0,1.52078992821406428249716019718108
135,7291.12228755852723859705161528016769,7289.6,1.52228755852723859705161528016769
136,7399.52377412764036328127913013694095,7398.0,1.52377412764036328127913013694095
137,7508.72524979781637700179227822893476,7507.2,1.52524979781637700179227822893476
138,7618.72671472777315217138434286463575,7617.2,1.52671472777315217138434286463575
139,7729.52816907278603946544946058044765,7728.0,1.52816907278603946544946058044765
140,7841.12961298478672964089881501262714,7839.6,1.52961298478672964089881501262714
141,7953.53104661245859110716476654935959,7952.0,1.53104661245859110716476654935959
142,8066.73247010132863362561822522434627,8065.2,1.53247010132863362561822522434627
143,8180.73388359385623986355474815778601,8179.2,1.53388359385623986355474815778601
144,8295.53528722951879934926860795605067,8294.0,1.53528722951879934926860795605067
145,8411.13668114489437518697417928405360,8409.6,1.53668114489437518697417928405360
146,8527.53806547374152602158404541366713,8526.0,1.53806547374152602158404541366713
147,8644.73944034707639754038663670196858,8643.2,1.53944034707639754038663670196858
148,8762.74080589324719884063318844707294,8761.2,1.54080589324719884063318844707294
149,8881.54216223800616546396966872624667,8880.0,1.54216223800616546396966872624667
150,9001.14350950457911273857176090449050,8999.6,1.54350950457911273857176090449050
151,9121.54484781373267534321820316882642,9120.0,1.54484781373267534321820316882642
152,9242.74617728383932339245202136277428,9241.2,1.54617728383932339245202136277428
153,9364.74749803094024399250356550031278,9363.2,1.54749803094024399250356550031278
154,9487.54881016880617216719669500106643,9486.0,1.54881016880617216719669500106643
155,9611.15011380899624938981018487169206,9609.6,1.55011380899624938981018487169206
156,9735.55140906091498758723639882816823,9734.0,1.55140906091498758723639882816823
157,9860.75269603186740966301865135851417,9859.2,1.55269603186740966301865135851417
158,9986.75397482711243835734747666439601,9985.2,1.55397482711243835734747666439601
159,10113.5552455499145971168267833449714,10112.0,1.5552455499145971168267833449714
160,10241.1565083015940893115264157479483,10239.6,1.5565083015940893115264157479483
161,10369.5577631815753142954180276816552,10368.0,1.5577631815753142954180276816552
162,10498.7590102874338797712723449508632,10497.2,1.5590102874338797712723449508632
163,10628.7602497149421653132932550997618,10627.2,1.5602497149421653132932550997618
164,10759.5614815581134916840606474335088,10758.0,1.5614815581134916840606474335088
165,10891.1627059092449445459762463886295,10889.6,1.5627059092449445459762463886295
166,11023.5639228589589030827774933057524,11022.0,1.5639228589589030827774933057524
167,11156.7651324962433207634160801310292,11155.2,1.5651324962433207634160801310292
168,11290.7663349084908009371915294866690,11289.2,1.5663349084908009371915294866690
169,11425.5675301815365123222069356519208,11424.0,1.5675301815365123222069356519208
170,11561.1687183996949841302402367824354,11559.6,1.5687183996949841302402367824354
171,11697.5698996457958210224681906836390,11696.0,1.5698996457958210224681906836390
172,11834.7710740012183757626786914238416,11833.2,1.5710740012183757626786914238416
173,11972.7722415459254149702790889479965,11971.2,1.5722415459254149702790889479965
174,12111.5734023584958138165919677973668,12110.0,1.5734023584958138165919677973668
175,12251.1745565161563136493487493724587,12249.6,1.5745565161563136493487493724587
176,12391.5757040948123722517113707916862,12390.0,1.5757040948123722517113707916862
177,12532.7768451690781399963370647719852,12531.2,1.5768451690781399963370647719852
178,12674.7779798123055910488600383907961,12673.2,1.5779798123055910488600383907961
179,12817.5791080966128360657135157374802,12816.0,1.5791080966128360657135157374802
180,12961.1802300929116473326688852767532,12959.6,1.5802300929116473326688852767532
181,13105.5813458709342189926558150425884,13104.0,1.5813458709342189926558150425884
182,13250.7824554992591900582266040047452,13249.2,1.5824554992591900582266040047452
183,13396.7835590453369532579167686719751,13395.2,1.5835590453369532579167686719751
184,13543.5846565755142739580157073601544,13542.0,1.5846565755142739580157073601544
185,13691.1857481550582409678490671479223,13689.6,1.5857481550582409678490671479223
186,13839.5868338481795701971696376472907,13838.0,1.5868338481795701971696376472907
187,13988.7879137180552849661328664776883,13987.2,1.5879137180552849661328664776883
188,14138.7889878268507884041489801279043,14137.2,1.5889878268507884041489801279043
189,14289.5900562357413516686775225013679,14288.0,1.5900562357413516686775225013679
190,14441.1911190049330336350171280389097,14439.6,1.5911190049330336350171280389097
191,14593.5921761936830512796167988393214,14592.0,1.5921761936830512796167988393214
192,14746.7932278603196171390861796178779,14745.2,1.5932278603196171390861796178779
193,14900.7942740622612621487260433819130,14899.2,1.5942740622612621487260433819130
194,15055.5953148560356572013351781864554,15054.0,1.5953148560356572013351781864554
195,15211.1963502972979513586247863322224,15209.6,1.5963502972979513586247863322224
196,15367.5973804408486404071127820473937,15366.0,1.5973804408486404071127820473937
197,15524.7984053406509801337908874730445,15523.2,1.5984053406509801337908874730445
198,15682.7994250498479584835151434274138,15681.2,1.5994250498479584835151434274138
199,15841.6004396207788394319456941029415,15840.0,1.6004396207788394319456941029415
200,16001.2014491049952925142062968612342,15999.6,1.6014491049952925142062968612342
201,16161.6024535532771189856526700697131,16160.0,1.6024535532771189856526700697131
202,16322.8034530156475879908715315346858,16321.2,1.6034530156475879908715315346858
203,16484.8044475413883933956022309590299,16483.2,1.6044475413883933956022309590299
204,16647.6054371790542428964534777327190,16646.0,1.6054371790542428964534777327190
205,16811.2064219764870893737372298713236,16809.6,1.6064219764870893737372298713236
206,16975.6074019808300175061282908717077,16974.0,1.6074019808300175061282908717077
207,17140.8083772385407915177851641409690,17139.2,1.6083772385407915177851641409690
208,17306.8093477954050782793484817505269,17305.2,1.6093477954050782793484817505269
209,17473.6103136965493515056553356505341,17472.0,1.6103136965493515056553356505341
210,17641.2112749864534885457802705974414,17639.6,1.6112749864534885457802705974414
211,17809.6122317089630671243705172408070,17808.0,1.6122317089630671243705172408070
212,17978.8131839073013722614092613111024,17977.2,1.6131839073013722614092613111024
213,18148.8141316240811177483071038445849,18147.2,1.6141316240811177483071038445849
214,18319.6150749013158971560163276310040,18318.0,1.6150749013158971560163276310040
215,18491.2160137804313635814056676243603,18489.6,1.6160137804313635814056676243603
216,18663.6169483022761520863576227710963,18662.0,1.6169483022761520863576227710963
217,18836.8178785071325487886364372808354,18835.2,1.6178785071325487886364372808354
218,19010.8188044347269155769821316515252,19009.2,1.6188044347269155769821316515252
219,19185.6197261242398737233724957400011,19184.0,1.6197261242398737233724957400011
220,19361.2206436143162589005857192573204,19359.6,1.6206436143162589005857192573204
221,19537.6215569430748455073602940897300,19536.0,1.6215569430748455073602940897300
222,19714.8224661481178574985224999961263,19713.2,1.6224661481178574985224999961263
223,19892.8233712665402592809193675080610,19891.2,1.6233712665402592809193675080610
224,20071.6242723349388417344605888501505,20070.0,1.6242723349388417344605888501505
225,20251.2251693894211059148185101220615,20249.6,1.6251693894211059148185101220615
226,20431.6260624656139479757328243222677,20430.0,1.6260624656139479757328243222677
227,20612.8269515986721539537727721608394,20611.2,1.6269515986721539537727721608394
228,20794.8278368232867062257624810984355,20793.2,1.6278368232867062257624810984355
229,20977.6287181736929087910194221250766,20976.0,1.6287181736929087910194221250766
230,21161.2295956836783360646487252486363,21159.6,1.6295956836783360646487252486363
231,21345.6304693865906069711630531684788,21344.0,1.6304693865906069711630531684788
232,21530.8313393153449947473472253573547,21529.2,1.6313393153449947473472253573547
233,21716.8322055024318674398716347555622,21715.2,1.6322055024318674398716347555622
234,21903.6330679799239752437185922467675,21902.0,1.6330679799239752437185922467675
235,22091.2339267794835778525213400069462,22089.6,1.6339267794835778525213400069462
236,22279.6347819323694215195828766142425,22278.0,1.6347819323694215195828766142425
237,22468.8356334694435694497004965031475,22467.2,1.6356334694435694497004965031475
238,22658.8364814211780872528063912818671,22657.2,1.6364814211780872528063912818671
