Eigenstate,Energy,Kinetic Energy,Potential Energy
1,0.500000000068824263331438903620852091,0.0,0.500000000068824263331438903620852091
2,1.84623093810036413055774074345366209,1.2,0.64623093810036413055774074345366209
3,3.93633761102461234058269899034447041,3.2,0.73633761102461234058269899034447041
4,6.79966528056289871199639165769428254,6.0,0.79966528056289871199639165769428254
5,10.4480465800469435261420232988882440,9.6,0.8480465800469435261420232988882440
6,14.8870660042379107139266157811715217,14.0,0.8870660042379107139266157811715217
7,20.1197208345770272249446746753055578,19.2,0.9197208345770272249446746753055578
8,26.1477838574428657558033500506971916,25.2,0.9477838574428657558033500506971916
9,32.9723835718426687176637716299495336,32.0,0.9723835718426687176637716299495336
10,40.5942802319256347122982193235527429,39.6,0.9942802319256347122982193235527429
11,49.0140094078332470789760535873376583,48.0,1.0140094078332470789760535873376583
12,58.2319621948704765797512187454313242,57.2,1.0319621948704765797512187454313242
13,68.2484327231034118810203527421987262,67.2,1.0484327231034118810203527421987262
14,79.0636476902154433452493797298422514,78.0,1.0636476902154433452493797298422514
15,90.6777854773214613480822254533644739,89.6,1.0777854773214613480822254533644739
16,103.090988953838309849257982096167913,102.0,1.090988953838309849257982096167913
17,116.303374310946296361679539975691213,115.2,1.103374310946296361679539975691213
18,130.315037312595395281323166234737016,129.2,1.115037312595395281323166234737016
19,145.126057818609228237531995861064359,144.0,1.126057818609228237531995861064359
20,160.736503122319002510324738279026493,159.6,1.136503122319002510324738279026493
21,177.146430456645209662577954016534391,176.0,1.146430456645209662577954016534391
22,194.355888905256366761599066677687989,193.2,1.155888905256366761599066677687989
23,212.364920880505541861816195969972299,211.2,1.164920880505541861816195969972299
24,231.173563280830776802447244281496158,230.0,1.173563280830776802447244281496158
25,250.781848407551014098893523003755075,249.6,1.181848407551014098893523003755075
26,271.189804698673685089982378243987180,270.0,1.189804698673685089982378243987180
27,292.397457321857286092439859065556458,291.2,1.197457321857286092439859065556458
28,314.404828657770418498328852525680888,313.2,1.204828657770418498328852525680888
29,337.211938697293740925159416327326052,336.0,1.211938697293740925159416327326052
30,360.818805370361793955895182592271748,359.6,1.218805370361793955895182592271748
31,385.225444820095719503729094125006178,384.0,1.225444820095719503729094125006178
32,410.431871632799997250138731593998054,409.2,1.231871632799997250138731593998054
33,436.438099032086672799411201646106044,435.2,1.238099032086672799411201646106044
34,463.244139043640005925801832407303913,462.0,1.244139043640005925801832407303913
35,490.850002635795272223154114438095048,489.6,1.250002635795272223154114438095048
36,519.255699840071972587789607633643571,518.0,1.255699840071972587789607633643571
37,548.461239854997620416611926225274386,547.2,1.261239854997620416611926225274386
38,578.466631135927857658966595389460772,577.2,1.266631135927857658966595389460772
39,609.271881473070802211082638773413504,608.0,1.271881473070802211082638773413504
40,640.876998059527708358224929455191013,639.6,1.276998059527708358224929455191013
41,673.281987550845271695848073656785920,672.0,1.281987550845271695848073656785920
42,706.486856117319917359446180921427308,705.2,1.286856117319917359446180921427308
43,740.491609490087924047805252896116528,739.2,1.291609490087924047805252896116528
44,775.296253001867142308804688418666746,774.0,1.296253001867142308804688418666746
45,810.900791623078495987873239571574059,809.6,1.300791623078495987873239571574059
46,847.305229993962319456576262246561945,846.0,1.305229993962319456576262246561945
47,884.509572453211106626451593221919000,883.2,1.309572453211106626451593221919000
48,922.513823063562661388940974979610595,921.2,1.313823063562661388940974979610595
49,961.317985634732976578349229666219686,960.0,1.317985634732976578349229666219686
50,1000.92206374401404584109536653632820,999.6,1.32206374401404584109536653632820
51,1041.32606075481634583203527207971415,1040.0,1.32606075481634583203527207971415
52,1082.52997983339738094432616972006265,1081.2,1.32997983339738094432616972006265
53,1124.53382396398523266074866776199034,1123.2,1.33382396398523266074866776199034
54,1167.33759596247849448293930834703162,1166.0,1.33759596247849448293930834703162
55,1210.94129848888049790246875332184951,1209.6,1.34129848888049790246875332184951
56,1255.34493405860566030757077516453577,1254.0,1.34493405860566030757077516453577
57,1300.54850505277858675420402294543952,1299.2,1.34850505277858675420402294543952
58,1346.55201372763176034383439849306475,1345.2,1.35201372763176034383439849306475
59,1393.35546222309490200304731973114792,1392.0,1.35546222309490200304731973114792
60,1440.95885257065805595239485865799343,1439.6,1.35885257065805595239485865799343
61,1489.36218670058089292437570221221566,1488.0,1.36218670058089292437570221221566
62,1538.56546644851242218533084359817179,1537.2,1.36546644851242218533084359817179
63,1588.56869356157806152701551853772785,1587.2,1.36869356157806152701551853772785
64,1639.37186970398470191368461420509605,1638.0,1.37186970398470191368461420509605
65,1690.97499646218886863055486321704049,1689.6,1.37499646218886863055486321704049
66,1743.37807534966823344045183205826286,1742.0,1.37807534966823344045183205826286
67,1796.58110781133246996412315387579654,1795.2,1.38110781133246996412315387579654
68,1850.58409522760568833889010896192678,1849.2,1.38409522760568833889010896192678
69,1905.38703891820937253958228311498526,1904.0,1.38703891820937253958228311498526
70,1960.98994014567181547743509389597507,1959.6,1.38994014567181547743509389597507
71,2017.39280011858744828889886644405006,2016.0,1.39280011858744828889886644405006
72,2074.59561999464716198392723369752993,2073.2,1.39561999464716198392723369752993
73,2132.59840088345866661690931795132179,2131.2,1.39840088345866661690931795132179
74,2191.40114384917411429485654625703581,2190.0,1.40114384917411429485654625703581
75,2251.00384991294058123635202207957227,2249.6,1.40384991294058123635202207957227
76,2311.40652005518755453801443697786586,2310.0,1.40652005518755453801443697786586
77,2372.60915521776426690681049574898319,2371.2,1.40915521776426690681049574898319
78,2434.61175630593855681836929839809996,2433.2,1.41175630593855681836929839809996
79,2497.41432419026788474145958644025393,2496.0,1.41432419026788474145958644025393
80,2561.01685970835219794314615552254981,2559.6,1.41685970835219794314615552254981
81,2625.41936366647748704766515546999072,2624.0,1.41936366647748704766515546999072
82,2690.62183684115811607150413912937722,2689.2,1.42183684115811607150413912937722
83,2756.62427998058531892338299755220330,2755.2,1.42427998058531892338299755220330
84,2823.42669380598863106611574480768382,2822.0,1.42669380598863106611574480768382
85,2891.02907901291646576115931609043637,2889.6,1.42907901291646576115931609043637
86,2959.43143627244152845126603402272315,2958.0,1.43143627244152845126603402272315
87,3028.63376623229630536585674525262662,3027.2,1.43376623229630536585674525262662
88,3098.63606951794343905599555388678288,3097.2,1.43606951794343905599555388678288
89,3169.43834673358542006368577773273380,3168.0,1.43834673358542006368577773273380
90,3241.04059846311768071347730453849936,3239.6,1.44059846311768071347730453849936
91,3313.44282527102885556232495896666284,3312.0,1.44282527102885556232495896666284
92,3386.64502770325168474609822040158048,3385.2,1.44502770325168474609822040158048
93,3460.64720628796777420608704384468434,3459.2,1.44720628796777420608704384468434
94,3535.44936153636918385011048631740454,3534.0,1.44936153636918385011048631740454
95,3611.05149394337959354880582473279624,3609.6,1.45149394337959354880582473279624
96,3687.45360398833759504555932352184964,3686.0,1.45360398833759504555932352184964
97,3764.65569213564447351643051666255651,3763.2,1.45569213564447351643051666255651
98,3842.65775883537866964212679629527730,3841.2,1.45775883537866964212679629527730
99,3921.45980452387895958189647660738968,3920.0,1.45980452387895958189647660738968
100,4001.06182962429824389879202917562076,3999.6,1.46182962429824389879202917562076
101,4081.46383454712970718160112832947843,4080.0,1.46383454712970718160112832947843
102,4162.66581969070698453402179912886747,4161.2,1.46581969070698453402179912886747
103,4244.66778544167986318804525513653815,4243.2,1.46778544167986318804525513653815
104,4327.46973217546694023380006763034336,4326.0,1.46973217546694023380006763034336
105,4411.07166025668656438435361045059558,4409.6,1.47166025668656438435361045059558
106,4495.47357003956729892972389517371826,4494.0,1.47357003956729892972389517371826
107,4580.67546186833906495239909858266985,4579.2,1.47546186833906495239909858266985
108,4666.67733607760604463710802126350577,4665.2,1.47733607760604463710802126350577
109,4753.47919299270235591405045495608055,4752.0,1.47919299270235591405045495608055
110,4841.08103293003144725467160203427551,4839.6,1.48103293003144725467160203427551
111,4929.48285619739009557786611027759269,4928.0,1.48285619739009557786611027759269
112,5018.68466309427784079086405589272728,5017.2,1.48466309427784079086405589272728
113,5108.68645391219263495325710441800721,5107.2,1.48645391219263495325710441800721
114,5199.48822893491343529486683832559103,5198.0,1.48822893491343529486683832559103
115,5291.08998843877042986965484573241090,5289.6,1.48998843877042986965484573241090
116,5383.49173269290353629622591178371567,5382.0,1.49173269290353629622591178371567
117,5476.69346195950978232246921034879219,5475.2,1.49346195950978232246921034879219
118,5570.69517649408013592077658082563517,5569.2,1.49517649408013592077658082563517
119,5665.49687654562631890656107050725164,5664.0,1.49687654562631890656107050725164
120,5761.09856235689811223056403533366441,5759.6,1.49856235689811223056403533366441
121,5857.50023416459162282819475273575695,5856.0,1.50023416459162282819475273575695
122,5954.70189219954896299601404716406411,5953.2,1.50189219954896299601404716406411
123,6052.70353668694976107254136390222448,6051.2,1.50353668694976107254136390222448
124,6151.50516784649490452075638463979165,6150.0,1.50516784649490452075638463979165
125,6251.10678589258288694340307927315503,6249.6,1.50678589258288694340307927315503
126,6351.50839103447911536490686394194285,6350.0,1.50839103447911536490686394194285
127,6452.70998347647851353582887559116409,6451.2,1.50998347647851353582887559116409
128,6554.71156341806173442859225790192167,6553.2,1.51156341806173442859225790192167
129,6657.51313105404528301997663569260568,6656.0,1.51313105404528301997663569260568
130,6761.11468657472583207401027281848652,6759.6,1.51468657472583207401027281848652
131,6865.51623016601899823477128831163782,6864.0,1.51623016601899823477128831163782
132,6970.71776200959283076140906428384711,6969.2,1.51776200959283076140906428384711
133,7076.71928228299625345611201375723797,7075.2,1.51928228299625345611201375723797
134,7183.52079115978268905979070777808662,7182.0,1.52079115978268905979070777808662
135,7291.12228880962907728190188833991200,7289.6,1.52228880962907728190188833991200
136,7399.52377539845049394330877155763351,7398.0,1.52377539845049394330877155763351
137,7508.72525108851056540313030086673853,7507.2,1.52525108851056540313030086673853
138,7618.72671603852785882854073296781436,7617.2,1.52671603852785882854073296781436
139,7729.52817040377842676057599293317409,7728.0,1.52817040377842676057599293317409
140,7841.12961433619466898303491768807042,7839.6,1.52961433619466898303491768807042
141,7953.53104798446067014407346826346901,7952.0,1.53104798446067014407346826346901
142,8066.73247149410416350682373548970314,8065.2,1.53247149410416350682373548970314
143,8180.73388500758526255519964040656476,8179.2,1.53388500758526255519964040656476
144,8295.53528866438209500141496119008025,8294.0,1.53528866438209500141496119008025
145,8411.13668260107346955398005182812762,8409.6,1.53668260107346955398005182812762
146,8527.53806695141869793619303823111997,8526.0,1.53806695141869793619303823111997
147,8644.73944184643468644217547588104815,8643.2,1.53944184643468644217547588104815
148,8762.74080741447041235946882775218003,8761.2,1.54080741447041235946882775218003
149,8881.54216378127888705913490308794316,8880.0,1.54216378127888705913490308794316
150,9001.14351107008670939422506407640712,8999.6,1.54351107008670939422506407640712
151,9121.54484940166130532086110966198998,9120.0,1.54484940166130532086110966198998
152,9242.74617889437594404108443616716888,9241.2,1.54617889437594404108443616716888
153,9364.74749966427261961715503254602030,9363.2,1.54749966427261961715503254602030
154,9487.54881182512288195652910866059060,9486.0,1.54881182512288195652910866059060
155,9611.15011548848669540349519350889820,9609.6,1.55011548848669540349519350889820
156,9735.55141076376940280381845452350806,9734.0,1.55141076376940280381845452350806
157,9860.75269775827686608898265157206475,9859.2,1.55269775827686608898265157206475
158,9986.75397657726885519811775562238363,9985.2,1.55397657726885519811775562238363
159,10113.5552473240107490104326124391966,10112.0,1.5552473240107490104326124391966
160,10241.1565100998236146256771040282557,10239.6,1.5565100998236146256771040282557
161,10369.5577650041327234887394158966415,10368.0,1.5577650041327234887394158966415
162,10498.7590121345145638194646383593607,10497.2,1.5590121345145638194646383593607
163,10628.7602515867424042009788717857678,10627.2,1.5602515867424042009788717857678
164,10759.5614834548304629630996055884226,10758.0,1.5614834548304629630996055884226
165,10891.1627078310767319610352977449163,10889.6,1.5627078310767319610352977449163
166,11023.5639248061045052649481682618084,11022.0,1.5639248061045052649481682618084
167,11156.7651344689026599926860668796425,11155.2,1.5651344689026599926860668796425
168,11290.7663369068647319745829691897513,11289.2,1.5663369068647319745829691897513
169,11425.5675322058268313124044928862697,11424.0,1.5675322058268313124044928862697
170,11561.1687204501044375755415045123813,11559.6,1.5687204501044375755415045123813
171,11697.5699017225281148288984787514795,11696.0,1.5699017225281148288984787514795
172,11834.7710761044781843591221255432836,11833.2,1.5710761044781843591221255432836
173,11972.7722436759183905014877099467687,11971.2,1.5722436759183905014877099467687
174,12111.5734045154285954109448535919979,12110.0,1.5734045154285954109448535919979
175,12251.1745587002365367622431217487903,12249.6,1.5745587002365367622431217487903
176,12391.5757063062486780854782380968199,12390.0,1.5757063062486780854782380968199
177,12532.7768474080801849975843275100999,12531.2,1.5768474080801849975843275100999
178,12674.7779820790840564841567057767185,12673.2,1.5779820790840564841567057767185
179,12817.5791103913794376765393718711843,12816.0,1.5791103913794376765393718711843
180,12961.1802324158791450705652358296860,12959.6,1.5802324158791450705652358296860
181,13105.5813482223164268355237506279995,13104.0,1.5813482223164268355237506279995
182,13250.7824578792709859087306422106481,13249.2,1.5824578792709859087306422106481
183,13396.7835614541942889249632870206122,13395.2,1.5835614541942889249632870206122
184,13543.5846590134341852222870516729828,13542.0,1.5846590134341852222870516729828
185,13691.1857506222588577323861999626985,13689.6,1.5857506222588577323861999626985
186,13839.5868363448801267240079918655807,13838.0,1.5868363448801267240079918655807
187,13988.7879162444761302000083378363904,13987.2,1.5879162444761302000083378363904
188,14138.7889903832133963843032461601580,14137.2,1.5889903832133963843032461601580
189,14289.5900588222683320298045974161346,14288.0,1.5900588222683320298045974161346
190,14441.1911216218481421984052749845805,14439.6,1.5911216218481421984052749845805
191,14593.5921788412112007355534642160753,14592.0,1.5921788412112007355534642160753
192,14746.7932305386868878216061195362293,14745.2,1.5932305386868878216061195362293
193,14900.7942767716949129037963507092055,14899.2,1.5942767716949129037963507092055
194,15055.5953175967641363495842489489821,15054.0,1.5953175967641363495842489489821
195,15211.1963530695509077537361980544980,15209.6,1.5963530695509077537361980544980
196,15367.5973832448569345910184777341101,15366.0,1.5973832448569345910184777341101
197,15524.7984081766466955898125049237423,15523.2,1.5984081766466955898125049237423
198,15682.7994279180644129886163719384583,15681.2,1.5994279180644129886163719384583
199,15841.6004425214505965092732653618918,15840.0,1.6004425214505965092732653618918
200,16001.2014520383581729871114846387239,15999.6,1.6014520383581729871114846387239
201,16161.6024565195682126344007359291203,16160.0,1.6024565195682126344007359291203
202,16322.8034560151052653132611140137597,16321.2,1.6034560151052653132611140137597
203,16484.8044505742523174727321701619980,16483.2,1.6044505742523174727321701619980
204,16647.6054402455653813648906104344261,16646.0,1.6054402455653813648906104344261
205,16811.2064250768877265053537806637942,16809.6,1.6064250768877265053537806637942
206,16975.6074051153637663968942239497429,16974.0,1.6074051153637663968942239497429
207,17140.8083804074526063868167033363572,17139.2,1.6083804074526063868167033363572
208,17306.8093509989412668795308187655835,17305.2,1.6093509989412668795308187655835
209,17473.6103169349575876471743137389023,17472.0,1.6103169349575876471743137389023
210,17641.2112782599828247339149221646050,17639.6,1.6112782599828247339149221646050
211,17809.6122350178639473129151957361479,17808.0,1.6122350178639473129151957361479
212,17978.8131872518256447231125731291103,17977.2,1.6131872518256447231125731291103
213,18148.8141350044820480637318067515025,18147.2,1.6141350044820480637318067515025
214,18319.6150783178481813222429412565108,18318.0,1.6150783178481813222429412565108
215,18491.2160172333511412420206268449818,18489.6,1.6160172333511412420206268449818
216,18663.6169517918410198841861239946064,18662.0,1.6169517918410198841861239946064
217,18836.8178820336015738426982342938806,18835.2,1.6178820336015738426982342938806
218,19010.8188079983606490851680605505868,19009.2,1.6188079983606490851680605505868
219,19185.6197297253003646923593074872507,19184.0,1.6197297253003646923593074872507
220,19361.2206472530670680045265360643988,19359.6,1.6206472530670680045265360643988
221,19537.6215606197810590769075580032598,19536.0,1.6215606197810590769075580032598
222,19714.8224698630461016417617858030813,19713.2,1.6224698630461016417617858030813
223,19892.8233750199587141378120672834304,19891.2,1.6233750199587141378120672834304
224,20071.6242761271172558664153502506459,20070.0,1.6242761271172558664153502506459
225,20251.2251732206308108310323045959044,20249.6,1.6251732206308108310323045959044
226,20431.6260663361278727979643903110018,20430.0,1.6260663361278727979643903110018
227,20612.8269555087648402212328907768375,20611.2,1.6269555087648402212328907768375
228,20794.8278407732343228418286792887933,20793.2,1.6278407732343228418286792887933
229,20977.6287221637732671135046807807094,20976.0,1.6287221637732671135046807807094
230,21161.2295997141709051413772732065046,21159.6,1.6295997141709051413772732065046
231,21345.6304734577765289226295471405409,21344.0,1.6304734577765289226295471405409
232,21530.8313434275071002982597850230641,21529.2,1.6313434275071002982597850230641
233,21716.8322096558546916014025444019987,21715.2,1.6322096558546916014025444019987
234,21903.6330721748937731483127021093846,21902.0,1.6330721748937731483127021093846
235,22091.2339310162883407431352064512690,22089.6,1.6339310162883407431352064512690
236,22279.6347862112988928952539678082591,22278.0,1.6347862112988928952539678082591
237,22468.8356377907892613693722054051908,22467.2,1.6356377907892613693722054051908
238,22658.8364857852332967993588971372445,22657.2,1.6364857852332967993588971372445
