Eigenstate,Energy,Kinetic Energy,Potential Energy
1,0.500000000013471955412555257662871187,0.0,0.500000000013471955412555257662871187
2,1.84623093773905251509783793128823225,1.2,0.64623093773905251509783793128823225
3,3.93633760996328590831631553052368069,3.2,0.73633760996328590831631553052368069
4,6.79966527835226918923071116639025004,6.0,0.79966527835226918923071116639025004
5,10.4480465762176637082261644503002732,9.6,0.8480465762176637082261644503002732
6,14.8870659983124084203157361874095619,14.0,0.8870659983124084203157361874095619
7,20.1197208260738645451819633399090621,19.2,0.9197208260738645451819633399090621
8,26.1477838458785560985078052421550505,25.2,0.9477838458785560985078052421550505
9,32.9723835567325208792628490184030369,32.0,0.9723835567325208792628490184030369
10,40.5942802127841804858696176535863912,39.6,0.9942802127841804858696176535863912
11,49.0140093841744728115542299120126772,48.0,1.0140093841744728115542299120126772
12,58.2319621662079548235178115937241084,57.2,1.0319621662079548235178115937241084
13,68.2484326889503786539939198745998943,67.2,1.0484326889503786539939198745998943
14,79.0636476500848440889019858231152289,78.0,1.0636476500848440889019858231152289
15,90.6777854307259779991234389780648216,89.6,1.0777854307259779991234389780648216
16,103.090988900290376046953641427451216,102.0,1.090988900290376046953641427451216
17,116.303374249958104936134393814704135,115.2,1.103374249958104936134393814704135
18,130.315037243678900563797036279350436,129.2,1.115037243678900563797036279350436
19,145.126057741276144802463175169745090,144.0,1.126057741276144802463175169745090
20,160.736503036080801398711159825609069,159.6,1.136503036080801398711159825609069
21,177.146430361013112789005026674109217,176.0,1.146430361013112789005026674109217
22,194.355888799741339985691005353039598,193.2,1.155888799741339985691005353039598
23,212.364920764618287060074871691522261,211.2,1.164920764618287060074871691522261
24,231.173563154081723179627698300852213,230.0,1.173563154081723179627698300852213
25,250.781848269450308912013725156845219,249.6,1.181848269450308912013725156845219
26,271.189804548731183912163221370977876,270.0,1.189804548731183912163221370977876
27,292.397457159582542711331378918830786,291.2,1.197457159582542711331378918830786
28,314.404828482672674520596379507037118,313.2,1.204828482672674520596379507037118
29,337.211938508881915141555108247637877,336.0,1.211938508881915141555108247637877
30,360.818805168144471508940822401935282,359.6,1.218805168144471508940822401935282
31,385.225444603581140890705291482763469,384.0,1.225444603581140890705291482763469
32,410.431871401496047187032026008833297,409.2,1.231871401496047187032026008833297
33,436.438098785500868966097641963541694,435.2,1.238098785500868966097641963541694
34,463.244138781279487608607203669731219,462.0,1.244138781279487608607203669731219
35,490.850002357166788867714305027872040,489.6,1.250002357166788867714305027872040
36,519.255699544681872272613150243437799,518.0,1.255699544681872272613150243437799
37,548.461239542351838255754225596839252,547.2,1.261239542351838255754225596839252
38,578.466630805531904140639151660646277,577.2,1.266630805531904140639151660646277
39,609.271881124429751477748763286720664,608.0,1.271881124429751477748763286720664
40,640.876997692146186432706807861000112,639.6,1.276997692146186432706807861000112
41,673.281987164227444657136240788018982,672.0,1.281987164227444657136240788018982
42,706.486855710969479471220994859461597,705.2,1.286855710969479471220994859461597
43,740.491609063508085842119869573646746,739.2,1.291609063508085842119869573646746
44,775.296252554560618626916294060482332,774.0,1.296252554560618626916294060482332
45,810.900791154547493979824828103934858,809.6,1.300791154547493979824828103934858
46,847.305229503708526540810238462941643,846.0,1.305229503708526540810238462941643
47,884.509571940735678410467317035366710,883.2,1.309571940735678410467317035366710
48,922.513822528366209551781382095373567,921.2,1.313822528366209551781382095373567
49,961.317985076315556715509615999536401,960.0,1.317985076315556715509615999536401
50,1000.92206316187514527228412585704756,999.6,1.32206316187514527228412585704756
51,1041.32606014845487137207686976160047,1040.0,1.32606014845487137207686976160047
52,1082.52997920231164663737709277946183,1081.2,1.32997920231164663737709277946183
53,1124.53382330767294747789423019522388,1123.2,1.33382330767294747789423019522388
54,1167.33759528043674998315013733497455,1166.0,1.33759528043674998315013733497455
55,1210.94129778060575585681863766026802,1209.6,1.34129778060575585681863766026802
56,1255.34493332359374028655029979270080,1254.0,1.34493332359374028655029979270080
57,1300.54850429052465367790568300040528,1299.2,1.34850429052465367790568300040528
58,1346.55201293763031199473303211499996,1345.2,1.35201293763031199473303211499996
59,1393.35546140483975650105448288780569,1392.0,1.35546140483975650105448288780569
60,1440.95885172364233919182527386783605,1439.6,1.35885172364233919182527386783605
61,1489.36218582429702597242826680423093,1488.0,1.36218582429702597242826680423093
62,1538.56546554245210864165462348127698,1537.2,1.36546554245210864165462348127698
63,1588.56869262523227484390270992584798,1587.2,1.36869262523227484390270992584798
64,1639.37186873684367267640673475549079,1638.0,1.37186873684367267640673475549079
65,1690.97499546374207179733508260884267,1689.6,1.37499546374207179733508260884267
66,1743.37807431940437554154542953365938,1742.0,1.37807431940437554154542953365938
67,1796.58110674873947625945886384065271,1795.2,1.38110674873947625945886384065271
68,1850.58409413217068993370756676341627,1849.2,1.38409413217068993370756676341627
69,1905.38703778941869345748452451316753,1904.0,1.38703778941869345748452451316753
70,1960.98993898301095969026047120846786,1959.6,1.38993898301095969026047120846786
71,2017.39279892154108670280253670981390,2016.0,1.39279892154108670280253670981390
72,2074.59561876269911938104990253247129,2073.2,1.39561876269911938104990253247129
73,2132.59839961609190855199855608400570,2131.2,1.39839961609190855199855608400570
74,2191.40114254587073394619492359285507,2190.0,1.40114254587073394619492359285507
75,2251.00384857318178621033541229066043,2249.6,1.40384857318178621033541229066043
76,2311.40651867845365362671394772165923,2310.0,1.40651867845365362671394772165923
77,2372.60915380353465679784169685811364,2371.2,1.40915380353465679784169685811364
78,2434.61175485369170875638317801327410,2433.2,1.41175485369170875638317801327410
79,2497.41432269948133114056087071232265,2496.0,1.41432269948133114056087071232265
80,2561.01685817850251894953618077024395,2559.6,1.41685817850251894953618077024395
81,2625.41936209704029705179807415092254,2624.0,1.41936209704029705179807415092254
82,2690.62183523160805016903731978907139,2689.2,1.42183523160805016903731978907139
83,2756.62427833039601932419471166286013,2755.2,1.42427833039601932419471166286013
84,2823.42669211463273345065557320324897,2822.0,1.42669211463273345065557320324897
85,2891.02907727986558558338921813762285,2889.6,1.42907727986558558338921813762285
86,2959.43143449716624718744282300566278,2958.0,1.43143449716624718744282300566278
87,3028.63376441426615670839928351076563,3027.2,1.43376441426615670839928351076563
88,3098.63606765662689505167300791324694,3097.2,1.43606765662689505167300791324694
89,3169.43834482844987719535614947895797,3168.0,1.43834482844987719535614947895797
90,3241.04059651362944592459848834606252,3239.6,1.44059651362944592459848834606252
91,3313.44282327665313222345354137935066,3312.0,1.44282327665313222345354137935066
92,3386.64502566345255856258435890149011,3385.2,1.44502566345255856258435890149011
93,3460.64720420220819906616686297901239,3459.2,1.44720420220819906616686297901239
94,3535.44935940411096761259048699951651,3534.0,1.44935940411096761259048699951651
95,3611.05149176408338376952687818644197,3609.6,1.45149176408338376952687818644197
96,3687.45360176146286464182103732880164,3686.0,1.45360176146286464182103732880164
97,3764.65568986064950636854961927536861,3763.2,1.45568986064950636854961927536861
98,3842.65775651172054613129649719383938,3841.2,1.45775651172054613129649719383938
99,3921.45980215101354206350648675521583,3920.0,1.45980215101354206350648675521583
100,4001.06182720168016211036214887742110,3999.6,1.46182720168016211036214887742110
101,4081.46383207421234358447405302652941,4080.0,1.46383207421234358447405302652941
102,4162.66581716694245958795384741080933,4161.2,1.46581716694245958795384741080933
103,4244.66778286651902055782659723368046,4243.2,1.46778286651902055782659723368046
104,4327.46972954835933192702841387133428,4326.0,1.46972954835933192702841387133428
105,4411.07165757708043581947856130255619,4409.6,1.47165757708043581947856130255619
106,4495.47356730690957393347146809842975,4494.0,1.47356730690957393347146809842975
107,4580.67545908207533068567867417904704,4579.2,1.47545908207533068567867417904704
108,4666.67733323718053644849637980838705,4665.2,1.47733323718053644849637980838705
109,4753.47919009755794211994006222525272,4752.0,1.47919009755794211994006222525272
110,4841.08102997960961384516261552979708,4839.6,1.48102997960961384516261552979708
111,4929.48285319113093084747390401553539,4928.0,1.48285319113093084747390401553539
112,5018.68466003162001989310618112655080,5017.2,1.48466003162001989310618112655080
113,5108.68645079257340437817573341950303,5107.2,1.48645079257340437817573341950303
114,5199.48822575776859726853477429252531,5198.0,1.48822575776859726853477429252531
115,5291.08998520353432667470503274385926,5289.6,1.48998520353432667470503274385926
116,5383.49172939900903451243628224128000,5382.0,1.49172939900903451243628224128000
117,5476.69345860638825698642627563753628,5475.2,1.49345860638825698642627563753628
118,5570.69517308116145460363296863708987,5569.2,1.49517308116145460363296863708987
119,5665.49687307233882570889366458410471,5664.0,1.49687307233882570889366458410471
120,5761.09855882266861169333066808228936,5759.6,1.49855882266861169333066808228936
121,5857.50023056884536375877886141226316,5856.0,1.50023056884536375877886141226316
122,5954.70188854170962220833780190511953,5953.2,1.50188854170962220833780190511953
123,6052.70353296643942704021894880794320,6051.2,1.50353296643942704021894880794320
124,6151.50516406273406094224996632151085,6150.0,1.50516406273406094224996632151085
125,6251.10678204499039621813494668811821,6249.6,1.50678204499039621813494668811821
126,6351.50838712247220197927181971680127,6350.0,1.50838712247220197927181971680127
127,6452.70997949947274735804184812995349,6451.2,1.50997949947274735804184812995349
128,6554.71155937547101391129618782842560,6553.2,1.51155937547101391129618782842560
129,6657.51312694528181830952640628293213,6656.0,1.51312694528181830952640628293213
130,6761.11468239920012802533858112277685,6759.6,1.51468239920012802533858112277685
131,6865.51622592313983733073251366412459,6864.0,1.51622592313983733073251366412459
132,6970.71775769876725593548678059081198,6969.2,1.51775769876725593548678059081198
133,7076.71927790362955081736648002566753,7075.2,1.51927790362955081736648002566753
134,7183.52078671127837051891152018984851,7182.0,1.52078671127837051891152018984851
135,7291.12228429138886307722092394320633,7289.6,1.52228429138886307722092394320633
136,7399.52377080987429506561826180929962,7398.0,1.52377080987429506561826180929962
137,7508.72524642899646591813964201585913,7507.2,1.52524642899646591813964201585913
138,7618.72671130747209809579519185616293,7617.2,1.52671130747209809579519185616293
139,7729.52816560057538154764927955693660,7728.0,1.52816560057538154764927955693660
140,7841.12960946023683547379648249466390,7839.6,1.52960946023683547379648249466390
141,7953.53104303513864583982037916778700,7952.0,1.53104303513864583982037916778700
142,8066.73246647080662901905507157363689,8065.2,1.53246647080662901905507157363689
143,8180.73387990969896328880017816727229,8179.2,1.53387990969896328880017816727229
144,8295.53528349129182272700291340618971,8294.0,1.53528349129182272700291340618971
145,8411.13667735216204386816191993367454,8409.6,1.53667735216204386816191993367454
146,8527.53806162606694760845646900032574,8526.0,1.53806162606694760845646900032574
147,8644.73943644402143064713869225461276,8643.2,1.53943644402143064713869225461276
148,8762.74080193437244179319321199245329,8761.2,1.54080193437244179319321199245329
149,8881.54215822287094493819413812167408,8880.0,1.54215822287094493819413812167408
150,9001.14350543274147233621235977405653,8999.6,1.54350543274147233621235977405653
151,9121.54484368474936410500211585626717,9120.0,1.54484368474936410500211585626717
152,9242.74617309726578424761132566968941,9241.2,1.54617309726578424761132566968941
153,9364.74749378633060214408338869164380,9363.2,1.54749378633060214408338869164380
154,9487.54880586571322341246626089107577,9486.0,1.54880586571322341246626089107577
155,9611.15010944697144837509471065325869,9609.6,1.55010944697144837509471065325869
156,9735.55140463950843599648170279443019,9734.0,1.55140463950843599648170279443019
157,9860.75269155062784433939478526167732,9859.2,1.55269155062784433939478526167732
158,9986.75397028558721935719084922601803,9985.2,1.55397028558721935719084922601803
159,10113.5552409476496956952146635956732,10112.0,1.5552409476496956952146635956732
160,10241.1565036381340758387708679037209,10239.6,1.5565036381340758387708679037209
161,10369.5577584564633461037603308661647,10368.0,1.5577584564633461037603308661647
162,10498.7590055002116889310521712514067,10497.2,1.5590055002116889310521712514067
163,10628.7602448651500463378607905219255,10627.2,1.5602448651500463378607905219255
164,10759.5614766452902891626927628891008,10758.0,1.5614766452902891626927628891008
165,10891.1627009329280407040511282015405,10889.6,1.5627009329280407040511282015405
166,11023.5639178186842052684558433156835,11022.0,1.5639178186842052684558433156835
167,11156.7651273915452488600696870647281,11155.2,1.5651273915452488600696870647281
168,11290.7663297389022747008130030343316,11289.2,1.5663297389022747008130030343316
169,11425.5675249465889386430278608221890,11424.0,1.5675249465889386430278608221890
170,11561.1687130989182442177770999710121,11559.6,1.5687130989182442177770999710121
171,11697.5698942787182575132090284470577,11696.0,1.5698942787182575132090284470577
172,11834.7710685673667797496154492784089,11833.2,1.5710685673667797496154492784089
173,11972.7722360448250129534836735152397,11971.2,1.5722360448250129534836735152397
174,12111.5733967896702545740262972827015,12110.0,1.5733967896702545740262972827015
175,12251.1745508791276550270915510060551,12249.6,1.5745508791276550270915510060551
176,12391.5756983891010678727768136392974,12390.0,1.5756983891010678727768136392974
177,12532.7768393942030258872525395576351,12531.2,1.5768393942030258872525395576351
178,12674.7779739677838721831624814158388,12673.2,1.5779739677838721831624814158388
179,12817.5791021819600728235157609902972,12816.0,1.5791021819600728235157609902972
180,12961.1802241076417418754393522623238,12959.6,1.5802241076417418754393522623238
181,13105.5813398145594015523467633217395,13104.0,1.5813398145594015523467633217395
182,13250.7824493712900051398779367059682,13249.2,1.5824493712900051398779367059682
183,13396.7835528452822457548537944833614,13395.2,1.5835528452822457548537944833614
184,13543.5846503028811751787510242814561,13542.0,1.5846503028811751787510242814561
185,13691.1857418093521545737897881206706,13689.6,1.5857418093521545737897881206706
186,13839.5868274289041580502230978936901,13838.0,1.5868274289041580502230978936901
187,13988.7879072247124528852943916528663,13987.2,1.5879072247124528852943916528663
188,14138.7889812589406718301469237078849,14137.2,1.5889812589406718301469237078849
189,14289.5900495927623012357415335418035,14288.0,1.5900495927623012357415335418035
190,14441.1911122863816006488263925344150,14439.6,1.5911122863816006488263925344150
191,14593.5921693990539731004759770948482,14592.0,1.5921693990539731004759770948482
192,14746.7932209891058024693670346344866,14745.2,1.5932209891058024693670346344866
193,14900.7942671139537762236036803765874,14899.2,1.5942671139537762236036803765874
194,15055.5953078301237068818377716153321,15054.0,1.5953078301237068818377716153321
195,15211.1963431932688701260062757792978,15209.6,1.5963431932688701260062757792978
196,15367.5973732581878732575479818387575,15366.0,1.5973732581878732575479818387575
197,15524.7983980788420683723824056201143,15523.2,1.5983980788420683723824056201143
198,15682.7994177083725244165917135635611,15681.2,1.5994177083725244165917135635611
199,15841.6004321991165709566207370972572,15840.0,1.6004321991165709566207370972572
200,16001.2014416026239276041557195341893,15999.6,1.6014416026239276041557195341893
201,16161.6024459696724300720602148022027,16160.0,1.6024459696724300720602148022027
202,16322.8034453502833662374790219642324,16321.2,1.6034453502833662374790219642324
203,16484.8044397937364328667918644694449,16483.2,1.6044397937364328667918644694449
204,16647.6054293485843246172778549419774,16646.0,1.6054293485843246172778549419774
205,16811.2064140626669652808024320950594,16809.6,1.6064140626669652808024320950594
206,16975.6073939831253942882232251249938,16974.0,1.6073939831253942882232251249938
207,17140.8083691564153143451399658670957,17139.2,1.6083691564153143451399658670957
208,17306.8093396283203144203926184504607,17305.2,1.6093396283203144203926184504607
209,17473.6103054439647738301349215556496,17472.0,1.6103054439647738301349215556496
210,17641.2112666478264589130819519947498,17639.6,1.6112666478264589130819519947498
211,17809.6122232837488196558876726276782,17808.0,1.6122232837488196558876726276782
212,17978.8131753949529964957741478154283,17977.2,1.6131753949529964957741478154283
213,18148.8141230240495416782998612251777,18147.2,1.6141230240495416782998612251777
214,18319.6150662130498701459503000117458,18318.0,1.6150662130498701459503000117458
215,18491.2160050033774391637749762206549,18489.6,1.6160050033774391637749762206549
216,18663.6169394358786706365209538208231,18662.0,1.6169394358786706365209538208231
217,18836.8178695508336200762978231085178,18835.2,1.6178695508336200762978231085178
218,19010.8187953879664011932165543962733,19009.2,1.6187953879664011932165543962733
219,19185.6197169864553693819305984381232,19184.0,1.6197169864553693819305984381232
220,19361.2206343849430766121993664686998,19359.6,1.6206343849430766121993664686998
221,19537.6215476215459956257561294561556,19536.0,1.6215476215459956257561294561556
222,19714.8224567338640306368378991321579,19713.2,1.6224567338640306368378991321579
223,19892.8233617589898080972005139597336,19891.2,1.6233617589898080972005139597336
224,20071.6242627335177625849089918193601,20070.0,1.6242627335177625849089918193601
225,20251.2251596935530203734374069721170,20249.6,1.6251596935530203734374069721170
226,20431.6260526747200842190108954604636,20430.0,1.6260526747200842190108954604636
227,20612.8269417121713280090278156970528,20611.2,1.6269417121713280090278156970528
228,20794.8278268405953030817529112043919,20793.2,1.6278268405953030817529112043919
229,20977.6287080942248633694163059040369,20976.0,1.6287080942248633694163059040369
230,21161.2295855068451140509461652912356,21159.6,1.6295855068451140509461652912356
231,21345.6304591118011855035889018724938,21344.0,1.6304591118011855035889018724938
232,21530.8313289420058429623209753222389,21529.2,1.6313289420058429623209753222389
233,21716.8321950299469268725399067988457,21715.2,1.6321950299469268725399067988457
234,21903.6330574076946400820833721377820,21902.0,1.6330574076946400820833721377820
235,22091.2339161069086750436592822686846,22089.6,1.6339161069086750436592822686846
236,22279.6347711588451907264377553888459,22278.0,1.6347711588451907264377553888459
237,22468.8356225943636428569143193194588,22467.2,1.6356225943636428569143193194588
238,22658.8364704439334692200375413343068,22657.2,1.6364704439334692200375413343068
