Eigenstate,Energy,Kinetic Energy,Potential Energy
1,0.500000000429064090860099328003990189,0.0,0.500000000429064090860099328003990189
2,1.84623094045186218641112064045009558,1.2,0.64623094045186218641112064045009558
3,3.93633761793213147321073985383112353,3.2,0.73633761793213147321073985383112353
4,6.79966529495099553095218456434555770,6.0,0.79966529495099553095218456434555770
5,10.4480466049712264382907858224143826,9.6,0.8480466049712264382907858224143826
6,14.8870660428081972925291590290378267,14.0,0.8870660428081972925291590290378267
7,20.1197208899291481915249629666422863,19.2,0.9197208899291481915249629666422863
8,26.1477839327270141898639631265482064,25.2,0.9477839327270141898639631265482064
9,32.9723836702180818520613671533726463,32.0,0.9723836702180818520613671533726463
10,40.5942803565579864286154626310520405,39.6,0.9942803565579864286154626310520405
11,49.0140095618933166813370899362841172,48.0,1.0140095618933166813370899362841172
12,58.2319623815334681487708038916367797,57.2,1.0319623815334681487708038916367797
13,68.2484329455486280179634458174693697,67.2,1.0484329455486280179634458174693697
14,79.0636479516261630842299502068192931,78.0,1.0636479516261630842299502068192931
15,90.6777857808849414586564989656964854,89.6,1.0777857808849414586564989656964854
16,103.090989302745863869948353894200337,102.0,1.090989302745863869948353894200337
17,116.303374708393424422800094275690382,115.2,1.103374708393424422800094275690382
18,130.315037761781948217526237681148315,129.2,1.115037761781948217526237681148315
19,145.126058322739595552687041498044113,144.0,1.126058322739595552687041498044113
20,160.736503684602317402509730765288187,159.6,1.136503684602317402509730765288187
21,177.146431080295566578050760456359536,176.0,1.146431080295566578050760456359536
22,194.355889593493048388624550204517486,193.2,1.155889593493048388624550204517486
23,212.364921636553253418043535512477035,211.2,1.164921636553253418043535512477035
24,231.173564107919886099962634164236004,230.0,1.173564107919886099962634164236004
25,250.781849308917796301287504819059813,249.6,1.181849308917796301287504819059813
26,271.189805677560571374846307944727332,270.0,1.189805677560571374846307944727332
27,292.397458381513115644174627466485234,291.2,1.197458381513115644174627466485234
28,314.404829801450693408024254729111475,313.2,1.204829801450693408024254729111475
29,337.211939928260883684962708340591207,336.0,1.211939928260883684962708340591207
30,360.818806691885407317004455575814034,359.6,1.218806691885407317004455575814034
31,385.225446235452848528251862648336193,384.0,1.225446235452848528251862648336193
32,410.431873145275393433287609827806718,409.2,1.231873145275393433287609827806718
33,436.438100644973060173879473012435116,435.2,1.238100644973060173879473012435116
34,463.244140760238349087511093280709014,462.0,1.244140760238349087511093280709014
35,490.850004459415046238931155496873284,489.6,1.250004459415046238931155496873284
36,519.255701774031434762383788758906695,518.0,1.255701774031434762383788758906695
37,548.461241902624083909891240398738660,547.2,1.261241902624083909891240398738660
38,578.466633300557966954928095229605080,577.2,1.266633300557966954928095229605080
39,609.271883758050810449080243750070595,608.0,1.271883758050810449080243750070595
40,640.877000468213756544004841304518705,639.6,1.277000468213756544004841304518705
41,673.281990086603669815931017247717439,672.0,1.281990086603669815931017247717439
42,706.486858783527427427369893747088109,705.2,1.286858783527427427369893747088109
43,740.491612290132045114941830123356864,739.2,1.291612290132045114941830123356864
44,775.296255939146397476052658581816056,774.0,1.296255939146397476052658581816056
45,810.900794701002721457617790581215480,809.6,1.300794701002721457617790581215480
46,847.305233215952955667009710144752040,846.0,1.305233215952955667009710144752040
47,884.509575822701491512725967519945678,883.2,1.309575822701491512725967519945678
48,922.513826583998325817748692210201010,921.2,1.313826583998325817748692210201010
49,961.317989309571942004443773261146150,960.0,1.317989309571942004443773261146150
50,1000.92206757672712423601240122017616,999.6,1.32206757672712423601240122017616
51,1041.32606474888744193688842530954027,1040.0,1.32606474888744193688842530954027
52,1082.52998399232379690005539587597738,1081.2,1.32998399232379690005539587597738
53,1124.53382829127797507061597070717236,1123.2,1.33382829127797507061597070717236
54,1167.33760046166258396341399323208844,1166.0,1.33760046166258396341399323208844
55,1210.94130316349528117993638783663110,1209.6,1.34130316349528117993638783663110
56,1255.34493891220512491954924370290592,1254.0,1.34493891220512491954924370290592
57,1300.54851008893167841496716161833353,1299.2,1.34851008893167841496716161833353
58,1346.55201894992270303553822442682753,1345.2,1.35201894992270303553822442682753
59,1393.35546763512352085462938211392666,1392.0,1.35546763512352085462938211392666
60,1440.95885817604010296968498078386021,1439.6,1.35885817604010296968498078386021
61,1489.36219250294837563601839565120796,1488.0,1.36219250294837563601839565120796
62,1538.56547245151393527028232950762686,1537.2,1.36547245151393527028232950762686
63,1588.56869976887912149054321036453814,1587.2,1.36869976887912149054321036453814
64,1639.37187611926808487997029681220044,1638.0,1.37187611926808487997029681220044
65,1690.97500308915495132118775494728231,1689.6,1.37500308915495132118775494728231
66,1743.37808219203533740929324062960158,1742.0,1.37808219203533740929324062960158
67,1796.58111487283720916023783812941657,1795.2,1.38111487283720916023783812941657
68,1850.58410251200332007046926378688698,1849.2,1.38410251200332007046926378688698
69,1905.38704642927415191303512474664603,1904.0,1.38704642927415191303512474664603
70,1960.98994788719735338709513203562743,1959.6,1.38994788719735338709513203562743
71,2017.39280809438707303408982935713613,2016.0,1.39280809438707303408982935713613
72,2074.59562820855428459145095946472462,2073.2,1.39562820855428459145095946472462
73,2132.59840933932714994836745510132381,2131.2,1.39840933932714994836745510132381
74,2191.40115255087864601959118945746169,2190.0,1.40115255087864601959118945746169
75,2251.00385886437705075219580427661815,2249.6,1.40385886437705075219580427661815
76,2311.40652926027343392347393344750992,2310.0,1.40652926027343392347393344750992
77,2372.60916468043899598977466287200348,2371.2,1.40916468043899598977466287200348
78,2434.61176603016393244793404697703963,2433.2,1.41176603016393244793404697703963
79,2497.41433418002845435099381223631052,2496.0,1.41433418002845435099381223631052
80,2561.01686996765565749429299446711948,2559.6,1.41686996765565749429299446711948
81,2625.41937419935508344657999099956003,2624.0,1.41937419935508344657999099956003
82,2690.62184765166505415027391607684077,2689.2,1.42184765166505415027391607684077
83,2756.62429107280117308125479916551330,2755.2,1.42429107280117308125479916551330
84,2823.42670518401776166688607087588816,2822.0,1.42670518401776166688607087588816
85,2891.02909068088844038484056572469872,2889.6,1.42909068088844038484056572469872
86,2959.43144823451154809995336734894399,2958.0,1.43144823451154809995336734894399
87,3028.63377849264563572557127621788505,3027.2,1.43377849264563572557127621788505
88,3098.63608208077984691817543340775411,3097.2,1.43608208077984691817543340775411
89,3169.43835960314361501194019862847814,3168.0,1.43835960314361501194019862847814
90,3241.04061164365976218320874089736945,3239.6,1.44061164365976218320874089736945
91,3313.44283876684476538286590616013192,3312.0,1.44283876684476538286590616013192
92,3386.64504151865966527709764752659380,3385.2,1.44504151865966527709764752659380
93,3460.64722042731483218202464005215506,3459.2,1.44722042731483218202464005215506
94,3535.44937600403156004901196507945560,3534.0,1.44937600403156004901196507945560
95,3611.05150874376323840348261202738189,3609.6,1.45150874376323840348261202738189
96,3687.45361912587865031800103187912022,3686.0,1.45361912587865031800103187912022
97,3764.65570761480976015834476180202443,3763.2,1.45570761480976015834476180202443
98,3842.65777466066618196704086663521814,3841.2,1.45777466066618196704086663521814
99,3921.45982069981836587672279321615096,3920.0,1.45982069981836587672279321615096
100,4001.06184615545139360530278533228764,3999.6,1.46184615545139360530278533228764
101,4081.46385143809114478087050462289807,4080.0,1.46385143809114478087050462289807
102,4162.66583694610447026957024485540244,4161.2,1.46583694610447026957024485540244
103,4244.66780306617490076616402324158640,4243.2,1.46780306617490076616402324158640
104,4327.46975017375531164235108533829092,4326.0,1.46975017375531164235108533829092
105,4411.07167863349887197422309682169875,4409.6,1.47167863349887197422309682169875
106,4495.47358879966951490606971784871172,4494.0,1.47358879966951490606971784871172
107,4580.67548101653308842586596228507757,4579.2,1.47548101653308842586596228507757
108,4666.67735561873026638829747261432580,4665.2,1.47735561873026638829747261432580
109,4753.47921293163223102772761220682793,4752.0,1.47921293163223102772761220682793
110,4841.08105327168007578346304005831411,4839.6,1.48105327168007578346304005831411
111,4929.48287694670881139856443249032677,4928.0,1.48287694670881139856443249032677
112,5018.68468425625680881990091245793696,5017.2,1.48468425625680881990091245793696
113,5108.68647549186145689144090985898438,5107.2,1.48647549186145689144090985898438
114,5199.48825093734176407511068740160631,5198.0,1.48825093734176407511068740160631
115,5291.09001086906859298514078591126566,5289.6,1.49001086906859298514078591126566
116,5383.49175555622316819027080807029850,5382.0,1.49175555622316819027080807029850
117,5476.69348526104446602527678283895297,5475.2,1.49348526104446602527678283895297
118,5570.69520023906605412228142371788793,5569.2,1.49520023906605412228142371788793
119,5665.49690073934291465869796329062039,5664.0,1.49690073934291465869796329062039
120,5761.09858700466875947653135459196153,5759.6,1.49858700466875947653135459196153
121,5857.50025927178430696063002312686473,5856.0,1.50025927178430696063002312686473
122,5954.70191777157697165046204781849147,5953.2,1.50191777157697165046204781849147
123,6052.70356272927238536717704663969657,6051.2,1.50356272927238536717704663969657
124,6151.50519436461815095802785914402202,6150.0,1.50519436461815095802785914402202
125,6251.10681289206020019409148624605521,6249.6,1.50681289206020019409148624605521
126,6351.50841852091211216005607515948954,6350.0,1.50841852091211216005607515948954
127,6452.71001145551772789709221335713194,6451.2,1.51001145551772789709221335713194
128,6554.71159189540737447277017560441619,6553.2,1.51159189540737447277017560441619
129,6657.51316003544799957889184339102855,6656.0,1.51316003544799957889184339102855
130,6761.11471606598749937637992223986075,6759.6,1.51471606598749937637992223986075
131,6865.51626017299350690240364381328594,6864.0,1.51626017299350690240364381328594
132,6970.71779253818689337787208560999851,6969.2,1.51779253818689337787208560999851
133,7076.71931333917022297199624495871283,7075.2,1.51931333917022297199624495871283
134,7183.52082274955139030483719078418602,7182.0,1.52082274955139030483719078418602
135,7291.12232093906265186057437119567691,7289.6,1.52232093906265186057437119567691
136,7399.52380807367525879687411238943689,7398.0,1.52380807367525879687411238943689
137,7508.72528431570988532797985346306422,7507.2,1.52528431570988532797985346306422
138,7618.72674982394303324733148802324276,7617.2,1.52674982394303324733148802324276
139,7729.52820475370959104981383308775828,7728.0,1.52820475370959104981383308775828
140,7841.12964925700171066795890779500681,7839.6,1.52964925700171066795890779500681
141,7953.53108348256416027913879975546282,7952.0,1.53108348256416027913879975546282
142,8066.73250757598630356773190405653639,8065.2,1.53250757598630356773190405653639
143,8180.73392167979084717628907858414767,8179.2,1.53392167979084717628907858414767
144,8295.53532593351949090031196643528968,8294.0,1.53532593351949090031196643528968
145,8411.13672047381561099372627313857154,8409.6,1.53672047381561099372627313857154
146,8527.53810543450409908362082943063502,8526.0,1.53810543450409908362082943063502
147,8644.73948094666847099010081703427956,8643.2,1.53948094666847099010081703427956
148,8762.74084713872536078931887316907067,8761.2,1.54084713872536078931887316907067
149,8881.54220413649650192994244152207395,8880.0,1.54220413649650192994244152207395
150,9001.14355206327829905349633555173247,8999.6,1.54355206327829905349633555173247
151,9121.54489103990908644268594941495792,9120.0,1.54489103990908644268594941495792
152,9242.74622118483416340699640308017090,9241.2,1.54622118483416340699640308017090
153,9364.74754261416869556569124870174020,9363.2,1.54754261416869556569124870174020
154,9487.54885544175856593818344780992479,9486.0,1.54885544175856593818344780992479
155,9611.15015977923925408881773134081397,9609.6,1.55015977923925408881773134081397
156,9735.55145573609282120380442714730016,9734.0,1.55145573609282120380442714730016
157,9860.75274341970307215861236695624955,9859.2,1.55274341970307215861236695624955
158,9986.75402293540896640598485224966903,9985.2,1.55402293540896640598485224966903
159,10113.5552943865563413698253544225431,10112.0,1.5552943865563413698253544225431
160,10241.1565578745480146952846551330794,10239.6,1.5565578745480146952846551330794
161,10369.5578134988923238643382394008493,10368.0,1.5578134988923238643382394008493
162,10498.7590613572501626515288932403438,10497.2,1.5590613572501626515288932403438
163,10628.7603015454805692871492156142224,10627.2,1.5603015454805692871492156142224
164,10759.5615341576849209788695510143158,10758.0,1.5615341576849209788695510143158
165,10891.1627592862497834068733121008380,10889.6,1.5627592862497834068733121008380
166,11023.5639770218884657233848804235950,11022.0,1.5639770218884657233848804235950
167,11156.7651874536813283046833696599716,11155.2,1.5651874536813283046833696599716
168,11290.7663906691148859607721282420945,11289.2,1.5663906691148859607721282420945
169,11425.5675867541197516815534050826072,11424.0,1.5675867541197516815534050826072
170,11561.1687757931074606799065968863278,11559.6,1.5687757931074606799065968863278
171,11697.5699578690062149439528919703708,11696.0,1.5699578690062149439528919703708
172,11834.7711330632955861835431651922129,11833.2,1.5711330632955861835431651922129
173,11972.7723014560402125922544519201800,11971.2,1.5723014560402125922544519201800
174,12111.5734631259225252879715301371153,12110.0,1.5734631259225252879715301371153
175,12251.1746181502745384371576998512712,12249.6,1.5746181502745384371576998512712
176,12391.5757666051087327899886265283777,12390.0,1.5757666051087327899886265283777
177,12532.7769085651480659083707890817745,12531.2,1.5769085651480659083707890817745
178,12674.7780441038551382634115803065077,12673.2,1.5780441038551382634115803065077
179,12817.5791732934605416701760098249992,12816.0,1.5791732934605416701760098249992
180,12961.1802962049904210297588121278280,12959.6,1.5802962049904210297588121278280
181,13105.5814129082932720516469667533612,13104.0,1.5814129082932720516469667533612
182,13250.7825234720660026769537266509741,13249.2,1.5825234720660026769537266509741
183,13396.7836279638792812778103767799342,13395.2,1.5836279638792812778103767799342
184,13543.5847264502021959013243550512172,13542.0,1.5847264502021959013243550512172
185,13691.1858189964262463939823379751710,13689.6,1.5858189964262463939823379751710
186,13839.5869056668886904037932045063591,13838.0,1.5869056668886904037932045063591
187,13988.7879865248952670903060203573066,13987.2,1.5879865248952670903060203573066
188,14138.7890616327423140094336202925354,14137.2,1.5890616327423140094336202925354
189,14289.5901310517383009358241219355892,14288.0,1.5901310517383009358241219355892
190,14441.1911948422247963065699311161515,14439.6,1.5911948422247963065699311161515
191,14593.5922530635968855426292204403846,14592.0,1.5922530635968855426292204403846
192,14746.7933057743230576651329757146194,14745.2,1.5933057743230576651329757146194
193,14900.7943530319645785465927435138237,14899.2,1.5943530319645785465927435138237
194,15055.5953948931943641751945447041837,15054.0,1.5953948931943641751945447041837
195,15211.1964314138153719032328277439969,15209.6,1.5964314138153719032328277439969
196,15367.5974626487785234116169932414779,15366.0,1.5974626487785234116169932414779
197,15524.7984886522001738071906371475159,15523.2,1.5984886522001738071906371475159
198,15682.7995094773791410577155493279870,15681.2,1.5995094773791410577155493279870
199,15841.6005251768133086427509143970418,15840.0,1.6005251768133086427509143970418
200,16001.2015358022158154065522136849660,15999.6,1.6015358022158154065522136849660
201,16161.6025414045308436369716359421319,16160.0,1.6025414045308436369716359421319
202,16322.8035420339490187957659869249711,16321.2,1.6035420339490187957659869249711
203,16484.8045377399224316060418877910807,16483.2,1.6045377399224316060418877910807
204,16647.6055285711792941645733154520284,16646.0,1.6055285711792941645733154520284
205,16811.2065145757382400990834515079612,16809.6,1.6065145757382400990834515079612
206,16975.6074958009222818459687920440055,16974.0,1.6074958009222818459687920440055
207,17140.8084722933724309779027828199155,17139.2,1.6084722933724309779027828199155
208,17306.8094440990609958637029583579413,17305.2,1.6094440990609958637029583579413
209,17473.6104112633045624665118254146592,17472.0,1.6104112633045624665118254146592
210,17641.2113738307766698414222266353884,17639.6,1.6113738307766698414222266353884
211,17809.6123318455201877594852941546712,17808.0,1.6123318455201877594852941546712
212,17978.8132853509594067557130160750552,17977.2,1.6132853509594067557130160750552
213,18148.8142343899118450521204672782304,18147.2,1.6142343899118450521204672782304
214,18319.6151790045997874073529839512495,18318.0,1.6151790045997874073529839512495
215,18491.2161192366615551778931148184175,18489.6,1.6161192366615551778931148184175
216,18663.6170551271625216270354471135223,18662.0,1.6170551271625216270354471135223
217,18836.8179867166058765255080103873151,18835.2,1.6179867166058765255080103873151
218,19010.8189140449431491043138636294276,19009.2,1.6189140449431491043138636294276
219,19185.6198371515844927242042941844849,19184.0,1.6198371515844927242042941844849
220,19361.2207560754087438649581981039195,19359.6,1.6207560754087438649581981039195
221,19537.6216708547732534354854733872025,19536.0,1.6216708547732534354854733872025
222,19714.8225815275235077047148093023693,19713.2,1.6225815275235077047148093023693
223,19892.8234881310025325207247688391217,19891.2,1.6234881310025325207247688391217
224,20071.6243907020600959882390961581286,20070.0,1.6243907020600959882390961581286
225,20251.2252892770617122762820797082038,20249.6,1.6252892770617122762820797082038
226,20431.6261838918974502137542897164938,20430.0,1.6261838918974502137542897164938
227,20612.8270745819905554404167002296411,20611.2,1.6270745819905554404167002296411
228,20794.8279613823058880531455153423622,20793.2,1.6279613823058880531455153423622
229,20977.6288443273581830345341548162897,20976.0,1.6288443273581830345341548162897
230,21161.2297234512201382904788056387555,21159.6,1.6297234512201382904788056387555
231,21345.6305987875303322321780616375257,21344.0,1.6305987875303322321780616375257
232,21530.8314703695009814636637554724445,21529.2,1.6314703695009814636637554724445
233,21716.8323382299255337188259137278664,21715.2,1.6323382299255337188259137278664
234,21903.6332024011861123590833919944966,21902.0,1.6332024011861123590833919944966
235,22091.2340629152608057747748024517009,22089.6,1.6340629152608057747748024517009
236,22279.6349198037308115682677021350146,22278.0,1.6349198037308115682677021350146
237,22468.8357730977874393257017293549383,22467.2,1.6357730977874393257017293549383
238,22658.8366228282389739031271612824461,22657.2,1.6366228282389739031271612824461
