Eigenstate,Energy,Kinetic Energy,Potential Energy
1,0.500000000015644903674165776031154240,0.0,0.500000000015644903674165776031154240
2,1.84623093775323636577249267592254505,1.2,0.64623093775323636577249267592254505
3,3.93633761000494971949644847344477919,3.2,0.73633761000494971949644847344477919
4,6.79966527843904984902642229446740823,6.0,0.79966527843904984902642229446740823
5,10.4480465763679849039485483867909678,9.6,0.8480465763679849039485483867909678
6,14.8870659985450158534981297613818886,14.0,0.8870659985450158534981297613818886
7,20.1197208264076545787171128710483360,19.2,0.9197208264076545787171128710483360
8,26.1477838463325042018104580549125304,25.2,0.9477838463325042018104580549125304
9,32.9723835573256482692140291540011760,32.0,0.9723835573256482692140291540011760
10,40.5942802135355371164037463932760770,39.6,0.9942802135355371164037463932760770
11,49.0140093851031280593885557237423823,48.0,1.0140093851031280593885557237423823
12,58.2319621673329920956694561283620463,57.2,1.0319621673329920956694561283620463
13,68.2484326902908921302842411700265811,67.2,1.0484326902908921302842411700265811
14,79.0636476516599366931015620884494944,78.0,1.0636476516599366931015620884494944
15,90.6777854325547601112652819241230575,89.6,1.0777854325547601112652819241230575
16,103.090988902391964681165049104309209,102.0,1.090988902391964681165049104309209
17,116.303374252351623221236743444628484,115.2,1.103374252351623221236743444628484
18,130.315037246383477426903995069322648,129.2,1.115037246383477426903995069322648
19,145.126057744310914792370841187095587,144.0,1.126057744310914792370841187095587
20,160.736503039464904607857935379838766,159.6,1.136503039464904607857935379838766
21,177.146430364765694846415012033288622,176.0,1.146430364765694846415012033288622
22,194.355888803881552102010309024608199,193.2,1.155888803881552102010309024608199
23,212.364920769165286111494925282923264,211.2,1.164920769165286111494925282923264
24,231.173563159054671821290144015967398,230.0,1.173563159054671821290144015967398
25,250.781848274868375714084284666376546,249.6,1.181848274868375714084284666376546
26,271.189804554613543513563786570503894,270.0,1.189804554613543513563786570503894
27,292.397457165948375987392953947418499,291.2,1.197457165948375987392953947418499
28,314.404828489541168761809398136961661,313.2,1.204828489541168761809398136961661
29,337.211938516272264241258899474266120,336.0,1.211938516272264241258899474266120
30,360.818805176075876158284609353675551,359.6,1.218805176075876158284609353675551
31,385.225444612072808779579327471778654,384.0,1.225444612072808779579327471778654
32,410.431871410567193209943907035884094,409.2,1.231871410567193209943907035884094
33,436.438098795170715432179686070937906,435.2,1.238098795170715432179686070937906
34,463.244138791567264455103177019465135,462.0,1.244138791567264455103177019465135
35,490.850002368091733876419977841553130,489.6,1.250002368091733876419977841553130
36,519.255699556263231288844079715445833,518.0,1.255699556263231288844079715445833
37,548.461239554608865409492309639057405,547.2,1.261239554608865409492309639057405
38,578.466630818483862069571695558072249,577.2,1.266630818483862069571695558072249
39,609.271881138095911551963653032924325,608.0,1.271881138095911551963653032924325
40,640.876997706545828980847612719054344,639.6,1.276997706545828980847612719054344
41,673.281987179379859193853722227382497,672.0,1.281987179379859193853722227382497
42,706.486855726893964925784177963646389,705.2,1.286855726893964925784177963646389
43,740.491609080223950788071735967707290,739.2,1.291609080223950788071735967707290
44,775.296252572087181512677244669638512,774.0,1.296252572087181512677244669638512
45,810.900791172904083360162072479917201,809.6,1.300791172904083360162072479917201
46,847.305229522914481309103786873656895,846.0,1.305229522914481309103786873656895
47,884.509571960810348031713731169596506,883.2,1.309571960810348031713731169596506
48,922.513822549328954296285264780590786,921.2,1.313822549328954296285264780590786
49,961.317985098185747893220266039019477,960.0,1.317985098185747893220266039019477
50,1000.92206318467216546774110846255610,999.6,1.32206318467216546774110846255610
51,1041.32606017219811467993363304828707,1040.0,1.32606017219811467993363304828707
52,1082.52997922702051889847635738519354,1081.2,1.32997922702051889847635738519354
53,1124.53382333336686651587282412570354,1123.2,1.33382333336686651587282412570354
54,1167.33759530713514584155433695267134,1166.0,1.33759530713514584155433695267134
55,1210.94129780832807103671401115452247,1209.6,1.34129780832807103671401115452247
56,1255.34493335235942998461257804741773,1254.0,1.34493335235942998461257804741773
57,1300.54850432035318602498138911537033,1299.2,1.34850432035318602498138911537033
58,1346.55201296854116829486052168299137,1345.2,1.35201296854116829486052168299137
59,1393.35546143685243147093771842341764,1392.0,1.35546143685243147093771842341764
60,1440.95885175677634120075412804883680,1439.6,1.35885175677634120075412804883680
61,1489.36218585857187728264043643342413,1488.0,1.36218585857187728264043643342413
62,1538.56546557788734564913537702251231,1537.2,1.36546557788734564913537702251231
63,1588.56869266184744831961968802773359,1587.2,1.36869266184744831961968802773359
64,1639.37186877465834800797791122849653,1638.0,1.37186877465834800797791122849653
65,1690.97499550277582923112878646747534,1689.6,1.37499550277582923112878646747534
66,1743.37807435967681042521202265541554,1742.0,1.37807435967681042521202265541554
67,1796.58110679027019928489429337841001,1795.2,1.38110679027019928489429337841001
68,1850.58409417497932738044957226261650,1849.2,1.38409417497932738044957226261650
69,1905.38703783352488743654277818244777,1904.0,1.38703783352488743654277818244777
70,1960.98993902843436838838237586057704,1959.6,1.38993902843436838838237586057704
71,2017.39279896830138462717681304854322,2016.0,1.39279896830138462717681304854322
72,2074.59561881081599760445045463796908,2073.2,1.39561881081599760445045463796908
73,2132.59839966558507495837143884899534,2131.2,1.39839966558507495837143884899534
74,2191.40114259675991347669153159737538,2190.0,1.40114259675991347669153159737538
75,2251.00384862548672110979527882588019,2249.6,1.40384862548672110979527882588019
76,2311.40651873219410369060078698158396,2310.0,1.40651873219410369060078698158396
77,2372.60915385873039961963655029085079,2371.2,1.40915385873039961963655029085079
78,2434.61175491036253997543872579906717,2433.2,1.41175491036253997543872579906717
79,2497.41432275764706469042116433302000,2496.0,1.41432275764706469042116433302000
80,2561.01685823818298730672621219581862,2559.6,1.41685823818298730672621219581862
81,2625.41936215825535148508776522418254,2624.0,1.41936215825535148508776522418254
82,2690.62183529437756098918466774527512,2689.2,1.42183529437756098918466774527512
83,2756.62427839473987613417294526531146,2755.2,1.42427839473987613417294526531146
84,2823.42669218057084539636930713055838,2822.0,1.42669218057084539636930713055838
85,2891.02907734741788160488471423273018,2889.6,1.42907734741788160488471423273018
86,2959.43143456635267627061756528272827,2958.0,1.43143456635267627061756528272827
87,3028.63376448510668813721618340968669,3027.2,1.43376448510668813721618340968669
88,3098.63606772914151866088465304014896,3097.2,1.43606772914151866088465304014896
89,3169.43834490265860362374458464912539,3168.0,1.43834490265860362374458464912539
90,3241.04059658955230686873611373171930,3239.6,1.44059658955230686873611373171930
91,3313.44282335431018069199078677563791,3312.0,1.44282335431018069199078677563791
92,3386.64502574286386913106986699794172,3385.2,1.44502574286386913106986699794172
93,3460.64720428339386813240598646994304,3459.2,1.44720428339386813240598646994304
94,3535.44935948709111365254797177513566,3534.0,1.44935948709111365254797177513566
95,3611.05149184887814759377966935627022,3609.6,1.45149184887814759377966935627022
96,3687.45360184809240965256719888057994,3686.0,1.45360184809240965256719888057994
97,3764.65568994913401881717942942701421,3763.2,1.45568994913401881717942942701421
98,3842.65775660208023537653182326855338,3841.2,1.45775660208023537653182326855338
99,3921.45980224326864083011461050615461,3920.0,1.45980224326864083011461050615461
100,4001.06182729585092674845025692010435,3999.6,1.46182729585092674845025692010435
101,4081.46383217031905432937065937956902,4080.0,1.46383217031905432937065937956902
102,4162.66581726500542082068346380684678,4161.2,1.46581726500542082068346380684678
103,4244.66778296655856106618401067220555,4243.2,1.46778296655856106618401067220555
104,4327.46972965039580516725899062223931,4326.0,1.46972965039580516725899062223931
105,4411.07165768113422017857102401819984,4409.6,1.47165768113422017857102401819984
106,4495.47356741300107299206964060069030,4494.0,1.47356741300107299206964060069030
107,4580.67545919022497348161874575306780,4579.2,1.47545919022497348161874575306780
108,4666.67733334740877774097626111015990,4665.2,1.47733334740877774097626111015990
109,4753.47919020988526265432746241236691,4752.0,1.47919020988526265432746241236691
110,4841.08103009405652061844850308703878,4839.6,1.48103009405652061844850308703878
111,4929.48285330771795737437805944707339,4928.0,1.48285330771795737437805944707339
112,5018.68466015036772647284158042489599,5017.2,1.48466015036772647284158042489599
113,5108.68645091350237836187855267950741,5107.2,1.48645091350237836187855267950741
114,5199.48822588089945332736682904568840,5198.0,1.48822588089945332736682904568840
115,5291.08998532888770706863552090670766,5289.6,1.48998532888770706863552090670766
116,5383.49172952660560935970972368884251,5382.0,1.49172952660560935970972368884251
117,5476.69345873624872453372358319680165,5475.2,1.49345873624872453372358319680165
118,5570.69517321330654149693263351849676,5569.2,1.49517321330654149693263351849676
119,5665.49687320678928726504005444464767,5664.0,1.49687320678928726504005444464767
120,5761.09855895944523217231649474090440,5759.6,1.49855895944523217231649474090440
121,5857.50023070796895663674890435349704,5856.0,1.50023070796895663674890435349704
122,5954.70188868320103045132100429929442,5953.2,1.50188868320103045132100429929442
123,6052.70353311031952337859605114050328,6051.2,1.50353311031952337859605114050328
124,6151.50516420902374814596387088922096,6150.0,1.50516420902374814596387088922096
125,6251.10678219371060737265104570090491,6249.6,1.50678219371060737265104570090491
126,6351.50838727364390076229556434595743,6350.0,1.50838727364390076229556434595743
127,6452.70997965311692831700085927439078,6451.2,1.50997965311692831700085927439078
128,6554.71155953160870274159425966296470,6553.2,1.51155953160870274159425966296470
129,6657.51312710393407213357678306423601,6656.0,1.51312710393407213357678306423601
130,6761.11468256038803567238392108682213,6759.6,1.51468256038803567238392108682213
131,6865.51622608688451961745900360325576,6864.0,1.51622608688451961745900360325576
132,6970.71775786508986594743990682180999,6969.2,1.51775786508986594743990682180999
133,7076.71927807255127419117596257966530,7075.2,1.51927807255127419117596257966530
134,7183.52078688282042572533300320124376,7182.0,1.52078688282042572533300320124376
135,7291.12228446557250170500202791262620,7289.6,1.52228446557250170500202791262620
136,7399.52377098672080210619663943753273,7398.0,1.52377098672080210619663943753273
137,7508.72524660852716005118072801551735,7507.2,1.52524660852716005118072801551735
138,7618.72671148970833197557736986051766,7617.2,1.52671148970833197557736986051766
139,7729.52816578553854209030423506034679,7728.0,1.52816578553854209030423506034679
140,7841.12960964794834414541254540486396,7839.6,1.52960964794834414541254540486396
141,7953.53104322561995894541668984843403,7952.0,1.53104322561995894541668984843403
142,8066.73246666407923799243446794903029,8065.2,1.53246666407923799243446794903029
143,8180.73388010578439498328871884334439,8179.2,1.53388010578439498328871884334439
144,8295.53528369021163970708400216325759,8294.0,1.53528369021163970708400216325759
145,8411.13667755393784470201303928587788,8409.6,1.53667755393784470201303928587788
146,8527.53806183072036716139656323893280,8526.0,1.53806183072036716139656323893280
147,8644.73943665157414037599429669201082,8643.2,1.53943665157414037599429669201082
148,8762.74080214484615004159144461048728,8761.2,1.54080214484615004159144461048728
149,8881.54215843628739723279073972466823,8880.0,1.54215843628739723279073972466823
150,9001.14350564912245168386297926405575,8999.6,1.54350564912245168386297926405575
151,9121.54484390411669129088511108149914,9120.0,1.54484390411669129088511108149914
152,9242.74617331964131813431037286826513,9241.2,1.54617331964131813431037286826513
153,9364.74749401173623997163824141712866,9363.2,1.54749401173623997163824141712866
154,9487.54880609417090109940004716510931,9486.0,1.54880609417090109940004716510931
155,9611.15010967850314082042619375141148,9609.6,1.55010967850314082042619375141148
156,9735.55140487413615738273099305029809,9734.0,1.55140487413615738273099305029809
157,9860.75269178837364843659100939881294,9859.2,1.55269178837364843659100939881294
158,9986.75397052647319982789033874702147,9985.2,1.55397052647319982789033874702147
159,10113.5552411916979864005382925624630,10112.0,1.5552411916979864005382925624630
160,10241.1565038853668511454691802725230,10239.6,1.5565038853668511454691802725230
161,10369.5577587069028211923151459499840,10368.0,1.5577587069028211923151459499840
162,10498.7590057538801201048234595637970,10497.2,1.5590057538801201048234595637970
163,10628.7602451220697313332875817036487,10627.2,1.5602451220697313332875817036487
164,10759.5614769054835674605569253676602,10758.0,1.5614769054835674605569253676602
165,10891.1627011964172938418129474184535,10889.6,1.5627011964172938418129474184535
166,11023.5639180854918571536703099788719,11022.0,1.5639180854918571536703099788719
167,11156.7651276616937660848924865227845,11155.2,1.5651276616937660848924865227845
168,11290.7663300124141668576052598072614,11289.2,1.5663300124141668576052598072614
169,11425.5675252234867586410687049431489,11424.0,1.5675252234867586410687049431489
170,11561.1687133792245886010932210461040,11559.6,1.5687133792245886010932210461040
171,11697.5698945624557667795303779507397,11696.0,1.5698945624557667795303779507397
172,11834.7710688545581386704663546857406,11833.2,1.5710688545581386704663546857406
173,11972.7722363354929508954186376010669,11971.2,1.5722363354929508954186376010669
174,12111.5733970838375458210198351212607,12110.0,1.5733970838375458210198351212607
175,12251.1745511768171191040914590615335,12249.6,1.5745511768171191040914590615335
176,12391.5756986903355698704303281065473,12390.0,1.5756986903355698704303281065473
177,12532.7768396990054767878148580918735,12531.2,1.5768396990054767878148580918735
178,12674.7779742761772291875972436114870,12673.2,1.5779742761772291875972436114870
179,12817.5791024939673396797970600177522,12816.0,1.5791024939673396797970600177522
180,12961.1802244232859692080649689477556,12959.6,1.5802244232859692080649689477556
181,13105.5813401338636871930723335217069,13104.0,1.5813401338636871930723335217069
182,13250.7824496942774944596818151791660,13249.2,1.5824496942774944596818151791660
183,13396.7835531719761319971424771869237,13395.2,1.5835531719761319971424771869237
184,13543.5846506333046997938149830039076,13542.0,1.5846506333046997938149830039076
185,13691.1857421435286075545196887519099,13689.6,1.5857421435286075545196887519099
186,13839.5868277668568782690963895810145,13838.0,1.5868277668568782690963895810145
187,13988.7879075664648284326423487481102,13987.2,1.5879075664648284326423487481102
188,14138.7889816045161403537122373131086,14137.2,1.5889816045161403537122373131086
189,14289.5900499421843502815366472724139,14288.0,1.5900499421843502815366472724139
190,14441.1911126396737680033028164757145,14439.6,1.5911126396737680033028164757145
191,14593.5921697562398471340148863356079,14592.0,1.5921697562398471340148863356079
192,14746.7932213502090224811015084146903,14745.2,1.5932213502090224811015084146903
193,14900.7942674789980327875829962016106,14899.2,1.5942674789980327875829962016106
194,15055.5953081991327421945442643143717,15054.0,1.5953081991327421945442643143717
195,15211.1963435662664783552352858414690,15209.6,1.5963435662664783552352858414690
196,15367.5973736351979008926615010044618,15366.0,1.5973736351979008926615010044618
197,15524.7983984598884145759471082297820,15523.2,1.5983984598884145759471082297820
198,15682.7994180934791413774121120495665,15681.2,1.5994180934791413774121120495665
199,15841.6004325883074642441782405639107,15840.0,1.6004325883074642441782405639107
200,16001.2014419959231565244645035445602,15999.6,1.6014419959231565244645035445602
201,16161.6024463671041080249507958685938,16160.0,1.6024463671041080249507958685938
202,16322.8034457518716610753205609752799,16321.2,1.6034457518716610753205609752799
203,16484.8044401995055672546642624440860,16483.2,1.6044401995055672546642624440860
204,16647.6054297585585763946047769406937,16646.0,1.6054297585585763946047769406937
205,16811.2064144768706678244564580724094,16809.6,1.6064144768706678244564580724094
206,16975.6073944015829368771144154708574,16974.0,1.6073944015829368771144154708574
207,17140.8083695791511425262991537992569,17139.2,1.6083695791511425262991537992569
208,17306.8093400553589303765608705495669,17305.2,1.6093400553589303765608705495669
209,17473.6103058753307367488706511918536,17472.0,1.6103058753307367488706511918536
210,17641.2112670835443853573972173483302,17639.6,1.6112670835443853573972173483302
211,17809.6122237238433839364253041725886,17808.0,1.6122237238433839364253041725886
212,17978.8131758394489310445373978046146,17977.2,1.6131758394489310445373978046146
213,18148.8141234729716374239463475916492,18147.2,1.6141234729716374239463475916492
214,18319.6150666664229768906620987883468,18318.0,1.6150666664229768906620987883468
215,18491.2160054612264659617167813875689,18489.6,1.6160054612264659617167813875689
216,18663.6169398982285861738982926105283,18662.0,1.6169398982285861738982926105283
217,18836.8178700177094530530274119554653,18835.2,1.6178700177094530530274119554653
218,19010.8187958593932407062209394824482,19009.2,1.6187958593932407062209394824482
219,19185.6197174624583653100693095065731,19184.0,1.6197174624583653100693095065731
220,19361.2206348655474400028488947829719,19359.6,1.6206348655474400028488947829719
221,19537.6215481067769990830510796695921,19536.0,1.6215481067769990830510796695921
222,19714.8224572237470087115858423951120,19713.2,1.6224572237470087115858423951120
223,19892.8233622535501576784830248404255,19891.2,1.6233622535501576784830248404255
224,20071.6242632327809432933815187892373,20070.0,1.6242632327809432933815187892373
225,20251.2251601975445549563406921465988,20249.6,1.6251601975445549563406921465988
226,20431.6260531834655589469067122268503,20430.0,1.6260531834655589469067122268503
227,20612.8269422256963930742719059945842,20611.2,1.6269422256963930742719059945842
228,20794.8278273589256729987180727275547,20793.2,1.6278273589256729987180727275547
229,20977.6287086173863173764786688761423,20976.0,1.6287086173863173764786688761423
230,21161.2295860348634965142477818475575,21159.6,1.6295860348634965142477818475575
231,21345.6304596447024063225898663128537,21344.0,1.6304596447024063225898663128537
232,21530.8313294798158779771543682428367,21529.2,1.6313294798158779771543682428367
233,21716.8321955726918182731829296993437,21715.2,1.6321955726918182731829296993437
234,21903.6330579554004968193581941868645,21902.0,1.6330579554004968193581941868645
235,22091.2339166596016732420771030590322,22089.6,1.6339166596016732420771030590322
236,22279.6347717165515740988997621752428,22278.0,1.6347717165515740988997621752428
237,22468.8356231571097231212832992674345,22467.2,1.6356231571097231212832992674345
238,22658.8364710117456265175939459717667,22657.2,1.6364710117456265175939459717667
