Eigenstate,Energy,Kinetic Energy,Potential Energy
1,0.500000000053103312878486829713246516,0.0,0.500000000053103312878486829713246516
2,1.84623093799774556802190920275303970,1.2,0.64623093799774556802190920275303970
3,3.93633761072317681126756658582131615,3.2,0.73633761072317681126756658582131615
4,6.79966527993503783794386169566621917,6.0,0.79966527993503783794386169566621917
5,10.4480465789593487836258288367219169,9.6,0.8480465789593487836258288367219169
6,14.8870660025549334057459224965907468,14.0,0.8870660025549334057459224965907468
7,20.1197208321619155134169004824739236,19.2,0.9197208321619155134169004824739236
8,26.1477838541582796696012961936765561,25.2,0.9477838541582796696012961936765561
9,32.9723835675509188154375433397957604,32.0,0.9723835675509188154375433397957604
10,40.5942802264888024638757934813792337,39.6,0.9942802264888024638757934813792337
11,49.0140094011132495636634547480114760,48.0,1.0140094011132495636634547480114760
12,58.2319621867291028085441807786141942,57.2,1.0319621867291028085441807786141942
13,68.2484327134023436698373605602039670,67.2,1.0484327134023436698373605602039670
14,79.0636476788162672963147840726975548,78.0,1.0636476788162672963147840726975548
15,90.6777854640856754660734346188898355,89.6,1.0777854640856754660734346188898355
16,103.090988938627326786309215493450149,102.0,1.090988938627326786309215493450149
17,116.303374293621444468517219967023228,115.2,1.103374293621444468517219967023228
18,130.315037293017918186140782244225394,129.2,1.115037293017918186140782244225394
19,145.126057796640283409678386377375398,144.0,1.126057796640283409678386377375398
20,160.736503097819659106822277799652491,159.6,1.136503097819659106822277799652491
21,177.146430429476445856829385953323652,176.0,1.146430429476445856829385953323652
22,194.355888875279066690727565661299941,193.2,1.155888875279066690727565661299941
23,212.364920847580492287953110581621345,211.2,1.164920847580492287953110581621345
24,231.173563244818663555784169071317978,230.0,1.173563244818663555784169071317978
25,250.781848368312418351554921932889129,249.6,1.181848368312418351554921932889129
26,271.189804656069079496737552583101344,270.0,1.189804656069079496737552583101344
27,292.397457275747030825058966458047869,291.2,1.197457275747030825058966458047869
28,314.404828608014757193774606643783673,313.2,1.204828608014757193774606643783673
29,337.211938643752796562991970359862166,336.0,1.211938643752796562991970359862166
30,360.818805312895564676717126841773497,359.6,1.218805312895564676717126841773497
31,385.225444758564074377846904701085168,384.0,1.225444758564074377846904701085168
32,410.431871567062672003616007939770352,409.2,1.231871567062672003616007939770352
33,436.438098962003265503162544728061810,435.2,1.238098962003265503162544728061810
34,463.244138969069972652200337878653925,462.0,1.244138969069972652200337878653925
35,490.850002556597922673711371961528468,489.6,1.250002556597922673711371961528468
36,519.255699756106465694750454362671672,518.0,1.255699756106465694750454362671672
37,548.461239766122959920739781958178008,547.2,1.261239766122959920739781958178008
38,578.466631042002887665344175523600062,577.2,1.266631042002887665344175523600062
39,609.271881373954202724391091264860715,608.0,1.271881373954202724391091264860715
40,640.876997955077990798672320791355930,639.6,1.276997955077990798672320791355930
41,673.281987440920774396680769569727189,672.0,1.281987440920774396680769569727189
42,706.486856001778801046782564389216609,705.2,1.286856001778801046782564389216609
43,740.491609368788167303371560078431031,739.2,1.291609368788167303371560078431031
44,775.296252874666537016020715154779670,774.0,1.296252874666537016020715154779670
45,810.900791489834642761625873316944335,809.6,1.300791489834642761625873316944335
46,847.305229854532623056927003823221444,846.0,1.305229854532623056927003823221444
47,884.509572307452771356447131244430723,883.2,1.309572307452771356447131244430723
48,922.513822911332686476630777699543102,921.2,1.313822911332686476630777699543102
49,961.317985475888151543058893529929332,960.0,1.317985475888151543058893529929332
50,1000.92206357841094584395738531008938,999.6,1.32206357841094584395738531008938
51,1041.32606058231132701073860886644431,1040.0,1.32606058231132701073860886644431
52,1082.52997965384657573201129544093796,1081.2,1.32997965384657573201129544093796
53,1124.53382377724454508894482977463000,1123.2,1.33382377724454508894482977463000
54,1167.33759576840359546841471909094683,1166.0,1.33759576840359546841471909094683
55,1210.94129828732682051784173026030718,1209.6,1.34129828732682051784173026030718
56,1255.34493384942839503550997493956826,1254.0,1.34493384942839503550997493956826
57,1300.54850483583267672502844135184947,1299.2,1.34850483583267672502844135184947
58,1346.55201350277189655630823892665646,1345.2,1.35201350277189655630823892665646
59,1393.35546199017551852815120483944285,1392.0,1.35546199017551852815120483944285
60,1440.95885232953332511984245766763149,1439.6,1.35885232953332511984245766763149
61,1489.36218645110472049163388940840205,1488.0,1.36218645110472049163388940840205
62,1538.56546619053844248889148919493364,1537.2,1.36546619053844248889148919493364
63,1588.56869329495963261565805333915573,1587.2,1.36869329495963261565805333915573
64,1639.37186942857490066346026286511734,1638.0,1.37186942857490066346026286511734
65,1690.97499617784048584121586450375214,1689.6,1.37499617784048584121586450375214
66,1743.37807505623376891304208023700849,1742.0,1.37807505623376891304208023700849
67,1796.58110750866412755944024768009740,1795.2,1.38110750866412755944024768009740
68,1850.58409491555537101652279476043009,1849.2,1.38409491555537101652279476043009
69,1905.38703859662867737722168528263368,1904.0,1.38703859662867737722168528263368
70,1960.98993981441202867015288458254085,1959.6,1.38993981441202867015288458254085
71,2017.39279977749954012808050183728957,2016.0,1.39279977749954012808050183728957
72,2074.59561964358178181554370960944268,2073.2,1.39561964358178181554370960944268
73,2132.59840052226613777880631533034876,2131.2,1.39840052226613777880631533034876
74,2191.40114347770442903273557826272775,2190.0,1.40114347770442903273557826272775
75,2251.00384953104339559811394238325053,2249.6,1.40384953104339559811394238325053
76,2311.40651966271218324613171494912448,2310.0,1.40651966271218324613171494912448
77,2372.60915481455967820839071981804901,2371.2,1.40915481455967820839071981804901
78,2434.61175589185336731256849443128989,2433.2,1.41175589185336731256849443128989
79,2497.41432376515035418390027047060086,2496.0,1.41432376515035418390027047060086
80,2561.01685927205022402699136511175658,2559.6,1.41685927205022402699136511175658
81,2625.41936321883860016099606452170057,2624.0,1.41936321883860016099606452170057
82,2690.62183638202947403064531329390828,2689.2,1.42183638202947403064531329390828
83,2756.62427950981370168181583913761131,2755.2,1.42427950981370168181583913761131
84,2823.42669332342043539861715295784536,2822.0,1.42669332342043539861715295784536
85,2891.02907851839769992279911649825440,2889.6,1.42907851839769992279911649825440
86,2959.43143576581780681089330328841011,2958.0,1.43143576581780681089330328841011
87,3028.63376571341284301370162531996220,3027.2,1.43376571341284301370162531996220
88,3098.63606898664504638500979572746239,3097.2,1.43606898664504638500979572746239
89,3169.43834618971649732424168568509231,3168.0,1.43834618971649732424168568509231
90,3241.04059790652221254104140161273327,3239.6,1.44059790652221254104140161273327
91,3313.44282470155040547771912172320337,3312.0,1.44282470155040547771912172320337
92,3386.64502712073338962795756969029866,3385.2,1.44502712073338962795756969029866
93,3460.64720569225233873512038494883531,3459.2,1.44720569225233873512038494883531
94,3535.44936092729887492476552450588377,3534.0,1.44936092729887492476552450588377
95,3611.05149332079623467193782472094066,3609.6,1.45149332079623467193782472094066
96,3687.45360335208256068169829902235769,3686.0,1.45360335208256068169829902235769
97,3764.65569148555868341923839571808181,3763.2,1.45569148555868341923839571808181
98,3842.65775817130258315163238487894062,3841.2,1.45775817130258315163238487894062
99,3921.45980384565256989109229595525536,3920.0,1.45980384565256989109229595525536
100,4001.06182893176107228917340176012070,3999.6,1.46182893176107228917340176012070
101,4081.46383384012079722722408348101664,4080.0,1.46383384012079722722408348101664
102,4162.66581896906489627365264417817216,4161.2,1.46581896906489627365264417817216
103,4244.66778470524266726497073647414147,4243.2,1.46778470524266726497073647414147
104,4327.46973142407221200286307403327230,4326.0,1.46973142407221200286307403327230
105,4411.07165949017137798577552650161893,4409.6,1.47165949017137798577552650161893
106,4495.47356925776822132927072180442238,4494.0,1.47356925776822132927072180442238
107,4580.67546107109214994744428436953403,4579.2,1.47546107109214994744428436953403
108,4666.67733526474682682814100698877885,4665.2,1.47733526474682682814100698877885
109,4753.47919216406584464117566195554110,4752.0,1.47919216406584464117566195554110
110,4841.08103208545212049863843221592966,4839.6,1.48103208545212049863843221592966
111,4929.48285533670189382516628917403894,4928.0,1.48285533670189382516628917403894
112,5018.68466221731416086242825172639414,5017.2,1.48466221731416086242825172639414
113,5108.68645301878632379627850107305997,5107.2,1.48645301878632379627850107305997
114,5199.48822802489678373727477651393579,5198.0,1.48822802489678373727477651393579
115,5291.08998751197516633675723707437338,5289.6,1.48998751197516633675723707437338
116,5383.49173174916082048903458182410183,5382.0,1.49173174916082048903458182410183
117,5476.69346099865019885721761670406384,5475.2,1.49346099865019885721761670406384
118,5570.69517551593368792913473845378803,5569.2,1.49517551593368792913473845378803
119,5665.49687555002242159604778025016393,5664.0,1.49687555002242159604778025016393
120,5761.09856134366558640465167476946703,5759.6,1.49856134366558640465167476946703
121,5857.50023313355868836559696413574470,5856.0,1.50023313355868836559696413574470
122,5954.70189115054323228864180986955124,5953.2,1.50189115054323228864180986955124
123,6052.70353561979823242160785329108880,6051.2,1.50353561979823242160785329108880
124,6151.50516676102395549050590383520362,6150.0,1.50516676102395549050590383520362
125,6251.10678478861826767193428401898022,6249.6,1.50678478861826767193428401898022
126,6351.50838991184594183155511497311296,6350.0,1.50838991184594183155511497311296
127,6452.70998233500126078456751117750735,6451.2,1.50998233500126078456751117750735
128,6554.71156225756422974690686082332650,6553.2,1.51156225756422974690686082332650
129,6657.51312987435069907266116892668698,6656.0,1.51312987435069907266116892668698
130,6761.11468537565667999132833925106810,6759.6,1.51468537565667999132833925106810
131,6865.51622894739712065442016512327208,6864.0,1.51622894739712065442016512327208
132,6970.71776077123939482371837280854480,6969.2,1.51776077123939482371837280854480
133,7076.71928102473174375190331945487283,7075.2,1.51928102473174375190331945487283
134,7183.52078988142690053031828862150639,7182.0,1.52078988142690053031828862150639
135,7291.12228751100110807028907795071130,7289.6,1.52228751100110807028907795071130
136,7399.52377407936873819688827842851575,7398.0,1.52377407936873819688827842851575
137,7508.72524974879270602609070760959349,7507.2,1.52524974879270602609070760959349
138,7618.72671467799086018427523308644690,7617.2,1.52671467799086018427523308644690
139,7729.52816902223852732312319251533843,7728.0,1.52816902223852732312319251533843
140,7841.12961293346737393699497674140035,7839.6,1.52961293346737393699497674140035
141,7953.53104656036074393237669481894002,7952.0,1.53104656036074393237669481894002
142,8066.73247004844562232572187380368093,8065.2,1.53247004844562232572187380368093
143,8180.73388354018136679584367206451647,8179.2,1.53388354018136679584367206451647
144,8295.53528717504534163737637079950701,8294.0,1.53528717504534163737637079950701
145,8411.13668108961558447406571800033600,8409.6,1.53668108961558447406571800033600
146,8527.53806541765062822189693502918211,8526.0,1.53806541765062822189693502918211
147,8644.73944029016659258910339008959408,8643.2,1.53944029016659258910339008959408
148,8762.74080583551166044206516830768209,8761.2,1.54080583551166044206516830768209
149,8881.54216217943804083803328456592819,8880.0,1.54216217943804083803328456592819
150,9001.14350944517152236553729594927726,8999.6,1.54350944517152236553729594927726
151,9121.54484775347871270671142015837280,9120.0,1.54484775347871270671142015837280
152,9242.74617722273205472068852651120621,9241.2,1.54617722273205472068852651120621
153,9364.74749796897270799773564159850679,9363.2,1.54749796897270799773564159850679
154,9487.54881010597137978335223771426549,9486.0,1.54881010597137978335223771426549
155,9611.15011374528718350830304151812004,9609.6,1.55011374528718350830304151812004
156,9735.55140899632460279092723893254668,9734.0,1.55140899632460279092723893254668
157,9860.75269596638863195830535943897292,9859.2,1.55269596638863195830535943897292
158,9986.75397476073816490436359797645236,9985.2,1.55397476073816490436359797645236
159,10113.5552454826376959577267327691347,10112.0,1.5552454826376959577267327691347
160,10241.1565082334073990968354222600897,10239.6,1.5565082334073990968354222600897
161,10369.5577631124716440084251586046334,10368.0,1.5577631124716440084251586046334
162,10498.7590102174060084504440871084694,10497.2,1.5590102174060084504440871084694
163,10628.7602496439828417726854796978536,10627.2,1.5602496439828417726854796978536
164,10759.5614814862154342317061354159327,10758.0,1.5614814862154342317061354159327
165,10891.1627058364008407002248816732494,10889.6,1.5627058364008407002248816732494
166,11023.5639227851614092865659934968034,11022.0,1.5639227851614092865659934968034
167,11156.7651324214850620964438197260571,11155.2,1.5651324214850620964438197260571
168,11290.7663348327643708259788590943653,11289.2,1.5663348327643708259788590943653
169,11425.5675301048344722480120449292955,11424.0,1.5675301048344722480120449292955
170,11561.1687183220098633348103715515572,11559.6,1.5687183220098633348103715515572
171,11697.5698995671201162116008864467914,11696.0,1.5698995671201162116008864467914
172,11834.7710739215445508075682409750460,11833.2,1.5710739215445508075682409750460
173,11972.7722414652459006066233402723739,11971.2,1.5722414652459006066233402723739
174,12111.5734022768030073414341761693024,12110.0,1.5734022768030073414341761693024
175,12251.1745564334425786156290149212769,12249.6,1.5745564334425786156290149212769
176,12391.5757040110700381605019147517551,12390.0,1.5757040110700381605019147517551
177,12532.7768450842995019867352131362498,12531.2,1.5768450842995019867352131362498
178,12674.7779797264829095855125846923401,12673.2,1.5779797264829095855125846923401
179,12817.5791080097383366239458078796228,12816.0,1.5791080097383366239458078796228
180,12961.1802300049775200811917197965898,12959.6,1.5802300049775200811917197965898
181,13105.5813457819326184738229034932340,13104.0,1.5813457819326184738229034932340
182,13250.7824554091822348658150941942970,13249.2,1.5824554091822348658150941942970
183,13396.7835589541767257124029180088585,13395.2,1.5835589541767257124029180088585
184,13543.5846564832628197793175924765601,13542.0,1.5846564832628197793175924765601
185,13691.1857480617075689455078184862738,13689.6,1.5857480617075689455078184862738
186,13839.5868337537216518579404877153668,13838.0,1.5868337537216518579404877153668
187,13988.7879136224820542389568316607345,13987.2,1.5879136224820542389568316607345
188,14138.7889877301541412824757452458929,14137.2,1.5889877301541412824757452458929
189,14289.5900561379131458701097871222291,14288.0,1.5900561379131458701097871222291
190,14441.1911189059650882582462474200647,14439.6,1.5911189059650882582462474200647
191,14593.5921760935671464586193291444663,14592.0,1.5921760935671464586193291444663
192,14746.7932277590474936945503793752154,14745.2,1.5932277590474936945503793752154
193,14900.7942739598246212366773990317519,14899.2,1.5942739598246212366773990317519
194,15055.5953147524261599589292408061194,15054.0,1.5953147524261599589292408061194
195,15211.1963501925072185470755966509165,15209.6,1.5963501925072185470755966509165
196,15367.5973803348682520517245196225713,15366.0,1.5973803348682520517245196225713
197,15524.7984052334724751610601985181477,15523.2,1.5984052334724751610601985181477
198,15682.7994249414628343552711742739759,15681.2,1.5994249414628343552711742739759
199,15841.6004395111785517764943666012468,15840.0,1.6004395111785517764943666012468
200,16001.2014489941712547544451878906600,15999.6,1.6014489941712547544451878906600
201,16161.6024534412207019641222136528794,16160.0,1.6024534412207019641222136528794
202,16322.8034529023501195917081489185128,16321.2,1.6034529023501195917081489185128
203,16484.8044474268411581633582650185106,16483.2,1.6044474268411581633582650185106
204,16647.6054370632484816517486727009548,16646.0,1.6054370632484816517486727009548
205,16811.2064218594139988257059677018319,16809.6,1.6064218594139988257059677018319
206,16975.6074018624807498616263093242544,16974.0,1.6074018624807498616263093242544
207,17140.8083771189064540873192199268692,17139.2,1.6083771189064540873192199268692
208,17306.8093476744767330796917297890640,17305.2,1.6093476744767330796917297890640
209,17473.6103135743180148591111691995190,17472.0,1.6103135743180148591111691995190
210,17641.2112748629101306760564877245615,17639.6,1.6112748629101306760564877245615
211,17809.6122315840986117490254495510657,17808.0,1.6122315840986117490254495510657
212,17978.8131837811066961808310771987458,17977.2,1.6131837811066961808310771987458
213,18148.8141314965470504311867657670568,18147.2,1.6141314965470504311867657670568
214,18319.6150747724332203212747147347486,18318.0,1.6150747724332203212747147347486
215,18491.2160136501908107765342354609137,18489.6,1.6160136501908107765342354609137
216,18663.6169481706684082621321483214541,18662.0,1.6169481706684082621321483214541
217,18836.8178783741482498701623356408267,18835.2,1.6178783741482498701623356408267
218,19010.8188043003566480310298362249530,19009.2,1.6188043003566480310298362249530
219,19185.6197259884741741219603981083221,19184.0,1.6197259884741741219603981083221
220,19361.2206434771456134807681294431725,19359.6,1.6206434771456134807681294431725
221,19537.6215568044896897271769045905593,19536.0,1.6215568044896897271769045905593
222,19714.8224660081085755890658069833280,19713.2,1.6224660081085755890658069833280
223,19892.8233711250971837944753012157026,19891.2,1.6233711250971837944753012157026
224,20071.6242721920522530886778471514999,20070.0,1.6242721920522530886778471514999
225,20251.2251692450812319328608464361593,20249.6,1.6251692450812319328608464361593
226,20431.6260623198109634223685907080174,20430.0,1.6260623198109634223685907080174
227,20612.8269514513961800673547102088515,20611.2,1.6269514513961800673547102088515
228,20794.8278366745278102460509786157860,20793.2,1.6278366745278102460509786157860
229,20977.6287180234411034828012666412657,20976.0,1.6287180234411034828012666412657
230,21161.2295955319235792371032733838973,21159.6,1.6295955319235792371032733838973
231,21345.6304692333228009929265595311829,21344.0,1.6304692333228009929265595311829
232,21530.8313391605539860572260852235870,21529.2,1.6313391605539860572260852235870
233,21716.8322053461074460531540160198356,21715.2,1.6322053461074460531540160198356
234,21903.6330678220558742540341175705568,21902.0,1.6330678220558742540341175705568
235,22091.2339266200614729291970399677138,22089.6,1.6339266200614729291970399677138
236,22279.6347817713829304004435817173138,22278.0,1.6347817713829304004435817173138
237,22468.8356333068822514292607296780304,22467.2,1.6356333068822514292607296780304
238,22658.8364812570314426658004361204279,22657.2,1.6364812570314426658004361204279
