Eigenstate,Energy,Kinetic Energy,Potential Energy
1,0.500000000303105477418779235531775405,0.0,0.500000000303105477418779235531775405
2,1.84623093962965012356294789991021477,1.2,0.64623093962965012356294789991021477
3,3.93633761551685922640377031656160849,3.2,0.73633761551685922640377031656160849
4,6.79966528992000051186039060330236406,6.0,0.79966528992000051186039060330236406
5,10.4480465962559424465466232184284146,9.6,0.8480465962559424465466232184284146
6,14.8870660293209947553353124710077824,14.0,0.8870660293209947553353124710077824
7,20.1197208705731649594690907906419822,19.2,0.9197208705731649594690907906419822
8,26.1477839064002011983057965234815902,25.2,0.9477839064002011983057965234815902
9,32.9723836358150345139777368857344612,32.0,0.9723836358150345139777368857344612
10,40.5942803129708281528483171845885717,39.6,0.9942803129708281528483171845885717
11,49.0140095080121360580122298366651530,48.0,1.0140095080121360580122298366651530
12,58.2319623162465285711651776840599857,57.2,1.0319623162465285711651776840599857
13,68.2484328677424532962665670416322521,67.2,1.0484328677424532962665670416322521
14,79.0636478601855515683315361360859725,78.0,1.0636478601855515683315361360859725
15,90.6777856746929369053905541091413422,89.6,1.0777856746929369053905541091413422
16,103.090989180683699010870108267274767,102.0,1.090989180683699010870108267274767
17,116.303374569340446643678484426417615,115.2,1.103374569340446643678484426417615
18,130.315037604615533109515561161235736,129.2,1.115037604615533109515561161235736
19,145.126058146335051975366387964996238,144.0,1.126058146335051975366387964996238
20,160.736503487832786424332123777323360,159.6,1.136503487832786424332123777323360
21,177.146430862031915869050770309641158,176.0,1.146430862031915869050770309641158
22,194.355889352603763135936147637733335,193.2,1.155889352603763135936147637733335
23,212.364921371904324505026819284592046,211.2,1.164921371904324505026819284592046
24,231.173563818374696069211932426838089,230.0,1.173563818374696069211932426838089
25,250.781848993337003471271886533281249,249.6,1.181848993337003471271886533281249
26,271.189805334801992375263084560231610,270.0,1.189805334801992375263084560231610
27,292.397458010431606561054961357369252,291.2,1.197458010431606561054961357369252
28,314.404829400898029676422344783645160,313.2,1.204829400898029676422344783645160
29,337.211939497085638828259781864502402,336.0,1.211939497085638828259781864502402
30,360.818806228932830603174805214630454,359.6,1.218806228932830603174805214630454
31,385.225445739564741591957122537275981,384.0,1.225445739564741591957122537275981
32,410.431872615289985896380776592671545,409.2,1.231872615289985896380776592671545
33,436.438100079724884284408424775931757,435.2,1.238100079724884284408424775931757
34,463.244140158558113387619756787326358,462.0,1.244140158558113387619756787326358
35,490.850003820129508264452620667027310,489.6,1.250003820129508264452620667027310
36,519.255701095963272770888219933091644,518.0,1.255701095963272770888219933091644
37,548.461241184591767629113298260779333,547.2,1.261241184591767629113298260779333
38,578.466632541375627339574698834247580,577.2,1.266632541375627339574698834247580
39,609.271882956528108430800321184164846,608.0,1.271882956528108430800321184164846
40,640.876999623155750756630614355851895,639.6,1.276999623155750756630614355851895
41,673.281989196810683275855829006499749,672.0,1.281989196810683275855829006499749
42,706.486857847794913147018209759124628,705.2,1.286857847794913147018209759124628
43,740.491611307250450625642346384615317,739.2,1.291611307250450625642346384615317
44,775.296254907901028235190271218857448,774.0,1.296254907901028235190271218857448
45,810.900793620173603113670962187430461,809.6,1.300793620173603113670962187430461
46,847.305232084314695154942594082395629,846.0,1.305232084314695154942594082395629
47,884.509574639023136951172732802800429,883.2,1.309574639023136951172732802800429
48,922.513825347043225178478634314731242,921.2,1.313825347043225178478634314731242
49,961.317988018097600523713383793632878,960.0,1.317988018097600523713383793632878
50,1000.92206622948506053657987310144999,999.6,1.32206622948506053657987310144999
51,1041.32606334462304282867585819838533,1040.0,1.32606334462304282867585819838533
52,1082.52998252977617082668540850729614,1081.2,1.32998252977617082668540850729614
53,1124.53382676917980416831397873806830,1123.2,1.33382676917980416831397873806830
54,1167.33759887873997469804915767550230,1166.0,1.33759887873997469804915767550230
55,1210.94130151846761352726789233606365,1209.6,1.34130151846761352726789233606365
56,1255.34493720378490005304588968967539,1254.0,1.34493720378490005304588968967539
57,1300.54850831582436486487265999688720,1299.2,1.34850831582436486487265999688720
58,1346.55201711082658128215911071605559,1345.2,1.35201711082658128215911071605559
59,1393.35546572872952631812588250443113,1392.0,1.35546572872952631812588250443113
60,1440.95885620103166735794245817749935,1439.6,1.35885620103166735794245817749935
61,1489.36219045800126661146823381346246,1488.0,1.36219045800126661146823381346246
62,1538.56547033529609439582331641140325,1537.2,1.36547033529609439582331641140325
63,1588.56869758005050041398669679690516,1587.2,1.36869758005050041398669679690516
64,1639.37187385648047971569310431432827,1638.0,1.37187385648047971569310431432827
65,1690.97500075105183518692366298767577,1689.6,1.37500075105183518692366298767577
66,1743.37807977725169107522744642931955,1742.0,1.37807977725169107522744642931955
67,1796.58111237999934976678674853173100,1795.2,1.38111237999934976678674853173100
68,1850.58409993972872787032937037618886,1849.2,1.38409993972872787032937037618886
69,1905.38704377617129499226897100750951,1904.0,1.38704377617129499226897100750951
70,1960.98994515186551031918893021654876,1959.6,1.38994515186551031918893021654876
71,2017.39280527541615342006379277933835,2016.0,1.39280527541615342006379277933835
72,2074.59562530452464743823123997055683,2073.2,1.39562530452464743823123997055683
73,2132.59840634880941983673452484860424,2131.2,1.39840634880941983673452484860424
74,2191.40114947243352701210473264807266,2190.0,1.40114947243352701210473264807266
75,2251.00385569655513799055897948770386,2249.6,1.40385569655513799055897948770386
76,2311.40652600161502286383944080362818,2310.0,1.40652600161502286383944080362818
77,2372.60916132947388922351100606202722,2371.2,1.40916132947388922351100606202722
78,2434.61176258541124405436127638845510,2433.2,1.41176258541124405436127638845510
79,2497.41433063999641172756436814192286,2496.0,1.41433063999641172756436814192286
80,2561.01686633084140060863263111951186,2559.6,1.41686633084140060863263111951186
81,2625.41937046424446145371680576346501,2624.0,1.41937046424446145371680576346501
82,2690.62184381673241931726827522321474,2689.2,1.42184381673241931726827522321474
83,2756.62428713650917196029954982166161,2755.2,1.42428713650917196029954982166161
84,2823.42670114481712345677369621177532,2822.0,1.42670114481712345677369621177532
85,2891.02908653721776241949020595832368,2889.6,1.42908653721776241949020595832368
86,2959.43144398479707840145727939877200,2958.0,1.43144398479707840145727939877200
87,3028.63377413530105255795318135884162,3027.2,1.43377413530105255795318135884162
88,3098.63607761420603527675467205733335,3097.2,1.43607761420603527675467205733335
89,3169.43835502572843998186241782117848,3168.0,1.43835502572843998186241782117848
90,3241.04060695377783909933653879907684,3239.6,1.44060695377783909933653879907684
91,3313.44283396285722672181883395387818,3312.0,1.44283396285722672181883395387818
92,3386.64503659891392421079142285724339,3385.2,1.44503659891392421079142285724339
93,3460.64721539014434272058133339721895,3459.2,1.44721539014434272058133339721895
94,3535.44937084775557369939582263974656,3534.0,1.44937084775557369939582263974656
95,3611.05150346668655726865979419046651,3609.6,1.45150346668655726865979419046651
96,3687.45361372629137655982410165926236,3686.0,1.45361372629137655982410165926236
97,3764.65570209098704174572195556946518,3763.2,1.45570209098704174572195556946518
98,3842.65776901086795462926783049823935,3841.2,1.45776901086795462926783049823935
99,3921.45981492228909118012545799958157,3920.0,1.45981492228909118012545799958157
100,4001.06184024841979306956699921251598,3999.6,1.46184024841979306956699921251598
101,4081.46384539976992994961252244129403,4080.0,1.46384539976992994961252244129403
102,4162.66583077469006864783220401518355,4161.2,1.46583077469006864783220401518355
103,4244.66779675984717753559982676419874,4243.2,1.46779675984717753559982676419874
104,4327.46974373067728706289568070263808,4326.0,1.46974373067728706289568070263808
105,4411.07167205181643437901570796789458,4409.6,1.47167205181643437901570796789458
106,4495.47358207751112919432167298324392,4494.0,1.47358207751112919432167298324392
107,4580.67547415200949995623108590018977,4579.2,1.47547415200949995623108590018977
108,4666.67734860993420017311067185341021,4665.2,1.47734860993420017311067185341021
109,4753.47920577663808612622451186302009,4752.0,1.47920577663808612622451186302009
110,4841.08104596854361478978329378550178,4839.6,1.48104596854361478978329378550178
111,4929.48286949346684491796539981618168,4928.0,1.48286949346684491796539981618168
112,5018.68467665092687482416840143046955,5017.2,1.48467665092687482416840143046955
113,5108.68646773244149484197832328193022,5107.2,1.48646773244149484197832328193022
114,5199.48824302180978369961170605879307,5198.0,1.48824302180978369961170605879307
115,5291.09000279538233759110580788856719,5289.6,1.49000279538233759110580788856719
116,5383.49174732231977239590958343965358,5382.0,1.49174732231977239590958343965358
117,5476.69347686484010778554538149794301,5475.2,1.49347686484010778554538149794301
118,5570.69519167845560092493243384258092,5569.2,1.49519167845560092493243384258092
119,5665.49689201219956376227238520934792,5664.0,1.49689201219956376227238520934792
120,5761.09857810884367205918878003303146,5759.6,1.49857810884367205918878003303146
121,5857.50025020510623604559791671209347,5856.0,1.50025020510623604559791671209347
122,5954.70190853185188367068156522532950,5953.2,1.50190853185188367068156522532950
123,6052.70355331428307522843040404778184,6051.2,1.50355331428307522843040404778184
124,6151.50518477212385045644659098158243,6150.0,1.50518477212385045644659098158243
125,6251.10680311979617964046454845373754,6249.6,1.50680311979617964046454845373754
126,6351.50840856658927505977865044301716,6350.0,1.50840856658927505977865044301716
127,6452.71000131682219853091513126548309,6451.2,1.51000131682219853091513126548309
128,6554.71158157000007821972702211974816,6553.2,1.51158157000007821972702211974816
129,6657.51314952096423581888733291655091,6656.0,1.51314952096423581888733291655091
130,6761.11470536003650680592104068657742,6759.6,1.51470536003650680592104068657742
131,6865.51624927315802109283694890868733,6864.0,1.51624927315802109283694890868733
132,6970.71778144202269640125441931808636,6969.2,1.51778144202269640125441931808636
133,7076.71930204420568491537009956200303,7075.2,1.51930204420568491537009956200303
134,7183.52081125328700248919605220914164,7182.0,1.52081125328700248919605220914164
135,7291.12230923897055157619087321797550,7289.6,1.52230923897055157619087321797550
136,7399.52379616719874536191743777484330,7398.0,1.52379616719874536191743777484330
137,7508.72527220026292727246130850102772,7507.2,1.52527220026292727246130850102772
138,7618.72673749690976641938993818755397,7617.2,1.52673749690976641938993818755397
139,7729.52819221244380743617561017840785,7728.0,1.52819221244380743617561017840785
140,7841.12963649882633771507995674450896,7839.6,1.52963649882633771507995674450896
141,7953.53107050477073049604983284945066,7952.0,1.53107050477073049604983284945066
142,8066.73249437583441418596142404207774,8065.2,1.53249437583441418596142404207774
143,8180.73390825450760963642141825575665,8179.2,1.53390825450760963642141825575665
144,8295.53531228029896992875118455366050,8294.0,1.53531228029896992875118455366050
145,8411.13670658981825302706699807549597,8409.6,1.53670658981825302706699807549597
146,8527.53809131685614979167731265188512,8526.0,1.53809131685614979167731265188512
147,8644.73946659246138164209786704031661,8643.2,1.53946659246138164209786704031661
148,8762.74083254501518320101192981697787,8761.2,1.54083254501518320101192981697787
149,8881.54218930030327172248437713025809,8880.0,1.54218930030327172248437713025809
150,9001.14353698158540694771654958633550,8999.6,1.54353698158540694771654958633550
151,9121.54487570966263730506947000932180,9120.0,1.54487570966263730506947000932180
152,9242.74620560294232275605259969084262,9241.2,1.54620560294232275605259969084262
153,9364.74752677750102323956883878746318,9363.2,1.54752677750102323956883878746318
154,9487.54883934714533661631280269782226,9486.0,1.54883934714533661631280269782226
155,9611.15014342347076435203920586917869,9609.6,1.55014342347076435203920586917869
156,9735.55143911591868280885698858790983,9734.0,1.55143911591868280885698858790983
157,9860.75272653183149119401084635292554,9859.2,1.55272653183149119401084635292554
158,9986.75400577650600798718546757656951,9985.2,1.55400577650600798718546757656951
159,10113.5552769532451795221707500162688,10112.0,1.5552769532451795221707500162688
160,10241.1565401634081670635096193838400,10239.6,1.5565401634081670635096193838400
161,10369.5577955064588708774054813206344,10368.0,1.5577955064588708774054813206344
162,10498.7590430800129507612309320802837,10497.2,1.5590430800129507612309320802837
163,10628.7602829798833978882564563786817,10627.2,1.5602829798833978882564563786817
164,10759.5615153001247126076018937669798,10758.0,1.5615153001247126076018937669798
165,10891.1627401330757368031213247011944,10889.6,1.5627401330757368031213247011944
166,11023.5639575694011913303924633379233,11022.0,1.5639575694011913303924633379233
167,11156.7651676981319657678058090186530,11155.2,1.5651676981319657678058090186530
168,11290.7663706067042031744400751674060,11289.2,1.5663706067042031744400751674060
169,11425.5675663809972249206787459523785,11424.0,1.5675663809972249206787459523785
170,11561.1687551053703353386578478161790,11559.6,1.5687551053703353386578478161790
171,11697.5699368626985463910740290569532,11696.0,1.5699368626985463910740290569532
172,11834.7711117344072602291930067016692,11833.2,1.5711117344072602291930067016692
173,11972.7722798005059450466760091193660,11971.2,1.5722798005059450466760091193660
174,12111.5734411396208400771420179755139,12110.0,1.5734411396208400771420179755139
175,12251.1745958290267237249156797846924,12249.6,1.5745958290267237249156797846924
176,12391.5757439446777745399522581099842,12390.0,1.5757439446777745399522581099842
177,12532.7768855612375583022370792431202,12531.2,1.5768855612375583022370792431202
178,12674.7780207521081703749441916745982,12673.2,1.5780207521081703749441916745982
179,12817.5791495894585597763173550333271,12816.0,1.5791495894585597763173550333271
180,12961.1802721442520659218273943990724,12959.6,1.5802721442520659218273943990724
181,13105.5813884862731906904809682900747,13104.0,1.5813884862731906904809682900747
182,13250.7824986841536335161016323299882,13249.2,1.5824986841536335161016323299882
183,13396.7836028053976125584386082001277,13395.2,1.5836028053976125584386082001277
184,13543.5847009164064962013706848639105,13542.0,1.5847009164064962013706848639105
185,13691.1857930825027666922207572233247,13689.6,1.5857930825027666922207572233247
186,13839.5868793679533368968443588845085,13838.0,1.5868793679533368968443588845085
187,13988.7879598359922439772109603899595,13987.2,1.5879598359922439772109603899595
188,14138.7890345488427354341752315847191,14137.2,1.5890345488427354341752315847191
189,14289.5901035677387712530894008160764,14288.0,1.5901035677387712530894008160764
190,14441.1911669529459578100762789002433,14439.6,1.5911669529459578100762789002433
191,14593.5922247637819327684411065972823,14592.0,1.5922247637819327684411065972823
192,14746.7932770586362173545482800805457,14745.2,1.5932770586362173545482800805457
193,14900.7943238949895543243279823240376,14899.2,1.5943238949895543243279823240376
194,15055.5953653294327449687208366161008,15054.0,1.5953653294327449687208366161008
195,15211.1964014176850030981554430584550,15209.6,1.5964014176850030981554430584550
196,15367.5974322146118397059119835196916,15366.0,1.5974322146118397059119835196916
197,15524.7984577742424926938718471939737,15523.2,1.5984577742424926938718471939737
198,15682.7994781497869158310454053525174,15681.2,1.5994781497869158310454053525174
199,15841.6004933936523397873840718643833,15840.0,1.6004933936523397873840718643833
200,16001.2015035574594191919742784748629,15999.6,1.6015035574594191919742784748629
201,16161.6025086920579767011867643406409,16160.0,1.6025086920579767011867643406409
202,16322.8035088475423574623557588258440,16321.2,1.6035088475423574623557588258440
203,16484.8045040732664046373955238822229,16483.2,1.6045040732664046373955238822229
204,16647.6054944178580676112355211050134,16646.0,1.6054944178580676112355211050134
205,16811.2064799292336528606878806724370,16809.6,1.6064799292336528606878806724370
206,16975.6074606546117305130512746809314,16974.0,1.6074606546117305130512746809314
207,17140.8084366405267024759941273840454,17139.2,1.6084366405267024759941273840454
208,17306.8094079328420463713583010612067,17305.2,1.6094079328420463713583010612067
209,17473.6103745767632410272805559590685,17472.0,1.6103745767632410272805559590685
210,17641.2113366168503850361426469194547,17639.6,1.6113366168503850361426469194547
211,17809.6122940970305157495734476257022,17808.0,1.6122940970305157495734476257022
212,17978.8132470606096389502550952318009,17977.2,1.6132470606096389502550952318009
213,18148.8141955502844735914376656066275,18147.2,1.6141955502844735914376656066275
214,18319.6151396081539265932411797709422,18318.0,1.6151396081539265932411797709422
215,18491.2160792757302969157813056564613,18489.6,1.6160792757302969157813056564613
216,18663.6170145939502228777941127104659,18662.0,1.6170145939502228777941127104659
217,18836.8179456031853766944519033346574,18835.2,1.6179456031853766944519033346574
218,19010.8188723432529152219188652026530,19009.2,1.6188723432529152219188652026530
219,19185.6197948534256901971503382824863,19184.0,1.6197948534256901971503382824863
220,19361.2207131724422304970978429847457,19359.6,1.6207131724422304970978429847457
221,19537.6216273385164943361499957068755,19536.0,1.6216273385164943361499957068755
222,19714.8225373893474086162255611101783,19713.2,1.6225373893474086162255611101783
223,19892.8234433621281890079359286796451,19891.2,1.6234433621281890079359286796451
224,20071.6243452935554558402386313829741,20070.0,1.6243452935554558402386313829741
225,20251.2252432198381483738383445453526,20249.6,1.6252432198381483738383445453526
226,20431.6261371767062410155573664992283,20430.0,1.6261371767062410155573664992283
227,20612.8270271994192701364303157826523,20611.2,1.6270271994192701364303157826523
228,20794.8279133227746733242577837841865,20793.2,1.6279133227746733242577837841865
229,20977.6287955811159482439542923922134,20976.0,1.6287955811159482439542923922134
230,21161.2296740083406358137954706915896,21159.6,1.6296740083406358137954706915896
231,21345.6305486379081295094066798599135,21344.0,1.6305486379081295094066798599135
232,21530.8314195028473212277065786830390,21529.2,1.6314195028473212277065786830390
233,21716.8322866357640787203641887572607,21715.2,1.6322866357640787203641887572607
234,21903.6331500688485707676791994492184,21902.0,1.6331500688485707676791994492184
235,22091.2340098338824332896304711655454,22089.6,1.6340098338824332896304711655454
236,22279.6348659622457861193517973381203,22278.0,1.6348659622457861193517973381203
237,22468.8357184849241040865459989730011,22467.2,1.6357184849241040865459989730011
238,22658.8365674325149441701115397050162,22657.2,1.6365674325149441701115397050162
