Eigenstate,Energy,Kinetic Energy,Potential Energy
1,0.500000000012904998601345286835274997,0.0,0.500000000012904998601345286835274997
2,1.84623093773535172334463916897019926,1.2,0.64623093773535172334463916897019926
3,3.93633760995241516238942637179214302,3.2,0.73633760995241516238942637179214302
4,6.79966527832962675584570397282965165,6.0,0.79966527832962675584570397282965165
5,10.4480465761784425768168665039905535,9.6,0.8480465761784425768168665039905535
6,14.8870659982517175766804036378332495,14.0,0.8870659982517175766804036378332495
7,20.1197208259867736840197750567133180,19.2,0.9197208259867736840197750567133180
8,26.1477838457601142970639567901549845,25.2,0.9477838457601142970639567901549845
9,32.9723835565777653050885597477972703,32.0,0.9723835565777653050885597477972703
10,40.5942802125881408389632999015588283,39.6,0.9942802125881408389632999015588283
11,49.0140093839321737584588777735845820,48.0,1.0140093839321737584588777735845820
12,58.2319621659144174081638133200451881,57.2,1.0319621659144174081638133200451881
13,68.2484326886006211514919681252218167,67.2,1.0484326886006211514919681252218167
14,79.0636476496738825387664391688673649,78.0,1.0636476496738825387664391688673649
15,90.6777854302488265451155424468901954,89.6,1.0777854302488265451155424468901954
16,103.090988899742047155466093576012677,102.0,1.090988899742047155466093576012677
17,116.303374249333609535581644605265397,115.2,1.103374249333609535581644605265397
18,130.315037242973248131042918741933069,129.2,1.115037242973248131042918741933069
19,145.126057740484343412777603985505799,144.0,1.126057740484343412777603985505799
20,160.736503035197857750011584400330447,159.6,1.136503035197857750011584400330447
21,177.146430360034032207580484798666965,176.0,1.146430360034032207580484798666965
22,194.355888798661126418337804599534957,193.2,1.155888798661126418337804599534957
23,212.364920763431943056089701285892094,211.2,1.164920763431943056089701285892094
24,231.173563152784249865112370952633337,230.0,1.173563152784249865112370952633337
25,250.781848268036705958269236850455293,249.6,1.181848268036705958269236850455293
26,271.189804547196449499480690975398884,270.0,1.189804547196449499480690975398884
27,292.397457157921673489155184637407097,291.2,1.197457157921673489155184637407097
28,314.404828480880665564796359097728774,313.2,1.204828480880665564796359097728774
29,337.211938506953759909371117942093136,336.0,1.211938506953759909371117942093136
30,360.818805166075161792034941209664856,359.6,1.218805166075161792034941209664856
31,385.225444601365666766661406049248582,384.0,1.225444601365666766661406049248582
32,410.431871399129396969570405586400842,409.2,1.231871399129396969570405586400842
33,436.438098782978029154217098893580609,435.2,1.238098782978029154217098893580609
34,463.244138778595442834825065851167512,462.0,1.244138778595442834825065851167512
35,490.850002354316521845541498598444673,489.6,1.250002354316521845541498598444673
36,519.255699541660363743375883222382475,518.0,1.255699541660363743375883222382475
37,548.461239539154066934853373269215239,547.2,1.261239539154066934853373269215239
38,578.466630802152846663322218340571135,577.2,1.266630802152846663322218340571135
39,609.271881120864382344456286197958320,608.0,1.271881120864382344456286197958320
40,640.876997688389477954044574498505290,639.6,1.276997688389477954044574498505290
41,673.281987160274366898516170873505994,672.0,1.281987160274366898516170873505994
42,706.486855706815000197206577840736479,705.2,1.286855706815000197206577840736479
43,740.491609059147170460506334845109698,739.2,1.291609059147170460506334845109698
44,775.296252549988230132570971012437464,774.0,1.296252549988230132570971012437464
45,810.900791149758592898309236505506804,809.6,1.300791149758592898309236505506804
46,847.305229498698070871802186143463662,846.0,1.305229498698070871802186143463662
47,884.509571935498623570998546604882155,883.2,1.309571935498623570998546604882155
48,922.513822522897508319304007733284632,921.2,1.313822522897508319304007733284632
49,961.317985070610159170802646187515334,960.0,1.317985070610159170802646187515334
50,1000.92206315592799874220972184242008,999.6,1.32206315592799874220972184242008
51,1041.32606014226092037219458426451834,1040.0,1.32606014226092037219458426451834
52,1082.52997919586583281442313547757553,1081.2,1.32997919586583281442313547757553
53,1124.53382330097020955213177819521242,1123.2,1.33382330097020955213177819521242
54,1167.33759527347202369059582287630808,1166.0,1.33759527347202369059582287630808
55,1210.94129777337397389134958297502956,1209.6,1.34129777337397389134958297502956
56,1255.34493331608983224189540889550633,1254.0,1.34493331608983224189540889550633
57,1300.54850428274354598952432388100789,1299.2,1.34850428274354598952432388100789
58,1346.55201292956692788158374299603420,1345.2,1.35201292956692788158374299603420
59,1393.35546139648901590725590190512787,1392.0,1.35546139648901590725590190512787
60,1440.95885171499915872821110681752239,1439.6,1.35885171499915872821110681752239
61,1489.36218581535631885799777276382345,1488.0,1.36218581535631885799777276382345
62,1538.56546553320878464491980137219120,1537.2,1.36546553320878464491980137219120
63,1588.56869261568124022413310960320096,1587.2,1.36869261568124022413310960320096
64,1639.37186872697983012477258474121175,1638.0,1.37186872697983012477258474121175
65,1690.97499545356032037794922096934784,1689.6,1.37499545356032037794922096934784
66,1743.37807430889961063240434470363196,1742.0,1.37807430889961063240434470363196
67,1796.58110673790658949328298645111503,1795.2,1.38110673790658949328298645111503
68,1850.58409412100456913868081408938792,1849.2,1.38409412100456913868081408938792
69,1905.38703777791422259789296255493243,1904.0,1.38703777791422259789296255493243
70,1960.98993897116301880702985092070761,1959.6,1.38993897116301880702985092070761
71,2017.39279890934455185393434998182404,2016.0,1.39279890934455185393434998182404
72,2074.59561875014886258195551348908129,2073.2,1.39561875014886258195551348908129
73,2132.59839960318279771573087499501357,2131.2,1.39839960318279771573087499501357
74,2191.40114253259763282357701898922005,2190.0,1.40114253259763282357701898922005
75,2251.00384855953955432998538025485225,2249.6,1.40384855953955432998538025485225
76,2311.40651866443714623496530061743856,2310.0,1.40651866443714623496530061743856
77,2372.60915378913872479855847284622475,2371.2,1.40915378913872479855847284622475
78,2434.61175483891119865066891926125531,2433.2,1.41175483891119865066891926125531
79,2497.41432268431108496636057295176535,2496.0,1.41432268431108496636057295176535
80,2561.01685816293737422113027002802653,2559.6,1.41685816293737422113027002802653
81,2625.41936208107508669918742918872775,2624.0,1.41936208107508669918742918872775
82,2690.62183521523760247721831782546678,2689.2,1.42183521523760247721831782546678
83,2756.62427831361515787232324438817594,2755.2,1.42427831361515787232324438817594
84,2823.42669209743627705109894334448304,2822.0,1.42669209743627705109894334448304
85,2891.02907726224834822066480586332617,2889.6,1.42907726224834822066480586332617
86,2959.43143447912303795704237404331353,2958.0,1.43143447912303795704237404331353
87,3028.63376439579177975549765074332145,3027.2,1.43376439579177975549765074332145
88,3098.63606763771614950972015911871463,3097.2,1.43606763771614950972015911871463
89,3169.43834480909755712455122001949134,3168.0,1.43834480909755712455122001949134
90,3241.04059649383034025024464749850228,3239.6,1.44059649383034025024464749850228
91,3313.44282325640202467419241444272177,3312.0,1.44282325640202467419241444272177
92,3386.64502564274422760850873701470825,3385.2,1.44502564274422760850873701470825
93,3460.64720418103741785681040373939232,3459.2,1.44720418103741785681040373939232
94,3535.44935938247250391479310318347046,3534.0,1.44935938247250391479310318347046
95,3611.05149174197199990517448973044314,3609.6,1.45149174197199990517448973044314
96,3687.45360173887331742545835104881406,3686.0,1.45360173887331742545835104881406
97,3764.65568983757654704486458196824819,3763.2,1.45568983757654704486458196824819
98,3842.65775648815892031247505955077778,3841.2,1.45775648815892031247505955077778
99,3921.45980212695798966645629686637884,3920.0,1.45980212695798966645629686637884
100,4001.06182717712541729380379205181307,3999.6,1.46182717712541729380379205181307
101,4081.46383204915313468589842538931319,4080.0,1.46383204915313468589842538931319
102,4162.66581714137350906044425475601339,4161.2,1.46581714137350906044425475601339
103,4244.66778284043504490674415701824107,4243.2,1.46778284043504490674415701824107
104,4327.46972952175504164655931724739076,4326.0,1.46972952175504164655931724739076
105,4411.07165754995053532904175465083410,4409.6,1.47165754995053532904175465083410
106,4495.47356727924876151398529617731434,4494.0,1.47356727924876151398529617731434
107,4580.67545905387829841568501550830124,4579.2,1.47545905387829841568501550830124
108,4666.67733320844197014014080392808006,4665.2,1.47733320844197014014080392808006
109,4753.47919006827252125480651618027036,4752.0,1.47919006827252125480651618027036
110,4841.08102994977201150996114833703171,4839.6,1.48102994977201150996114833703171
111,4929.48285316073581366957992831561690,4928.0,1.48285316073581366957992831561690
112,5018.68466000066204797594975121917203,5017.2,1.48466000066204797594975121917203
113,5108.68645076104723123647932657157570,5107.2,1.48645076104723123647932657157570
114,5199.48822572566886976339803626545114,5198.0,1.48822572566886976339803626545114
115,5291.08998517085568494853495388384215,5289.6,1.48998517085568494853495388384215
116,5383.49172936574611192372125637592215,5382.0,1.49172936574611192372125637592215
117,5476.69345857253568004435248084360694,5475.2,1.49345857253568004435248084360694
118,5570.69517304671384290254151328490286,5569.2,1.49517304671384290254151328490286
119,5665.49687303729079186257691594573312,5664.0,1.49687303729079186257691594573312
120,5761.09855878701476126916619052611421,5759.6,1.49855878701476126916619052611421
121,5857.50023053258029521169937454932148,5856.0,1.50023053258029521169937454932148
122,5954.70188850482792681463555630796001,5953.2,1.50188850482792681463555630796001
123,6052.70353292893568883118291763014336,6051.2,1.50353292893568883118291763014336
124,6151.50516402460285663763423659022130,6150.0,1.50516402460285663763423659022130
125,6251.10678200622629515945668935501543,6249.6,1.50678200622629515945668935501543
126,6351.50838708306976606293721014968179,6350.0,1.50838708306976606293721014968179
127,6452.70997945942653096829829859566828,6451.2,1.50997945942653096829829859566828
128,6554.71155933477556385300924444029073,6553.2,1.51155933477556385300924444029073
129,6657.51312690393167374077965998652302,6656.0,1.51312690393167374077965998652302
130,6761.11468235718982038985492178022285,6759.6,1.51468235718982038985492178022285
131,6865.51622588046389029011506762400764,6864.0,1.51622588046389029011506762400764
132,6970.71775765542018530127784528074060,6969.2,1.51775765542018530127784528074060
133,7076.71927785960586448292277576259274,7075.2,1.51927785960586448292277576259274
134,7183.52078666657256839109405638801448,7182.0,1.52078666657256839109405638801448
135,7291.12228424599543700789777828659438,7289.6,1.52228424599543700789777828659438
136,7399.52377076378772878297857177002381,7398.0,1.52377076378772878297857177002381
137,7508.72524638221123495781707453810181,7507.2,1.52524638221123495781707453810181
138,7618.72671125998266973179916752863717,7617.2,1.52671125998266973179916752863717
139,7729.52816555237621472310222177488383,7728.0,1.52816555237621472310222177488383
140,7841.12960941132238073147533592784220,7839.6,1.52960941132238073147533592784220
141,7953.53104298550334525250065144781585,7952.0,1.53104298550334525250065144781585
142,8066.73246642044491611965563540298208,8065.2,1.53246642044491611965563540298208
143,8180.73387985860526300032706006003056,8179.2,1.53387985860526300032706006003056
144,8295.53528343946055129229029540418792,8294.0,1.53528343946055129229029540418792
145,8411.13667729958760877940856329321182,8409.6,1.53667729958760877940856329321182
146,8527.53806157274374753655575919882591,8526.0,1.53806157274374753655575919882591
147,8644.73943638994385537080050818150900,8643.2,1.53943638994385537080050818150900
148,8762.74080187953487212785580041133601,8761.2,1.54080187953487212785580041133601
149,8881.54215816726775266472416891093270,8880.0,1.54215816726775266472416891093270
150,9001.14350537636702012939133624592761,8999.6,1.54350537636702012939133624592761
151,9121.54484362759800546179729087967509,9120.0,1.54484362759800546179729087967509
152,9242.74617303933186341522927826084973,9241.2,1.54617303933186341522927826084973
153,9364.74749372760845404780440039824065,9363.2,1.54749372760845404780440039824065
154,9487.54880580619717358325762573232482,9486.0,1.54880580619717358325762573232482
155,9611.15010938665581287700109485202230,9609.6,1.55010938665581287700109485202230
156,9735.55140457838752135379066915366866,9734.0,1.55140457838752135379066915366866
157,9860.75269148869594746357559367901389,9859.2,1.55269148869594746357559367901389
158,9986.75397022283862747360460932430204,9985.2,1.55397022283862747360460932430204
159,10113.5552408840786862695939377343615,10112.0,1.5552408840786862695939377343615
160,10241.1565035737349165034667960498089,10239.6,1.5565035737349165034667960498089
161,10369.5577583912302945837553370489065,10368.0,1.5577583912302945837553370489065
162,10498.7590054341389929697363099279685,10497.2,1.5590054341389929697363099279685
163,10628.7602447982319436225697769981341,10627.2,1.5602447982319436225697769981341
164,10759.5614765775210072500057179469093,10758.0,1.5614765775210072500057179469093
165,10891.1627008643017969448460669130358,10889.6,1.5627008643017969448460669130358
166,11023.5639177491952067327209203586574,11022.0,1.5639177491952067327209203586574
167,11156.7651273211876922614682105491009,11155.2,1.5651273211876922614682105491009
168,11290.7663296676703463210001868696272,11289.2,1.5663296676703463210001868696272
169,11425.5675248744768142557173191703819,11424.0,1.5675248744768142557173191703819
170,11561.1687130259200890125550567411530,11559.6,1.5687130259200890125550567411530
171,11697.5698942048282260190941881657817,11696.0,1.5698942048282260190941881657817
172,11834.7710684925790157583624981445494,11833.2,1.5710684925790157583624981445494
173,11972.7722359691336494426283384533117,11971.2,1.5722359691336494426283384533117
174,12111.5733967130694136296698954296251,12110.0,1.5733967130694136296698954296251
175,12251.1745508016114477664229564919254,12249.6,1.5745508016114477664229564919254
176,12391.5756983106635943663297352359581,12390.0,1.5756983106635943663297352359581
177,12532.7768393148383750808960080940738,12531.2,1.5768393148383750808960080940738
178,12674.7779738874861218198224445514164,12673.2,1.5779738874861218198224445514164
179,12817.5791021007232893646256472398677,12816.0,1.5791021007232893646256472398677
180,12961.1802240254599804221174600659225,12959.6,1.5802240254599804221174600659225
181,13105.5813397314267057662983502397383,13104.0,1.5813397314267057662983502397383
182,13250.7824492872004071640198112753854,13249.2,1.5824492872004071640198112753854
183,13396.7835527602297661336592768642807,13395.2,1.5835527602297661336592768642807
184,13543.5846502168598227783130575217867,13542.0,1.5846502168598227783130575217867
185,13691.1857417223559265016000160435893,13689.6,1.5857417223559265016000160435893
186,13839.5868273409270395746647096488119,13838.0,1.5868273409270395746647096488119
187,13988.7879071357484173548464985353318,13987.2,1.5879071357484173548464985353318
188,14138.7889811689836805922982426172440,14137.2,1.5889811689836805922982426172440
189,14289.5900495018063035556111192589180,14288.0,1.5900495018063035556111192589180
190,14441.1911121944205336274891801760033,14439.6,1.5911121944205336274891801760033
191,14593.5921693060817615929908419675396,14592.0,1.5921693060817615929908419675396
192,14746.7932208951163590025051039541793,14745.2,1.5932208951163590025051039541793
193,14900.7942670189410009132745837710884,14899.2,1.5942670189410009132745837710884
194,15055.5953077340814873502115324895999,15054.0,1.5953077340814873502115324895999
195,15211.1963430961910814183285168829621,15209.6,1.5963430961910814183285168829621
196,15367.5973731600683777586461130574726,15366.0,1.5973731600683777586461130574726
197,15524.7983979796747157228604305744407,15523.2,1.5983979796747157228604305744407
198,15682.7994176081511514287113155756501,15681.2,1.5994176081511514287113155756501
199,15841.6004320978350015298662485506190,15840.0,1.6004320978350015298662485506190
200,16001.2014415002759726404805884929364,15999.6,1.6014415002759726404805884929364
201,16161.6024458662518873908125795300665,16160.0,1.6024458662518873908125795300665
202,16322.8034452457840204900039570999119,16321.2,1.6034452457840204900039570999119
203,16484.8044396881520554507078720767358,16483.2,1.6044396881520554507078720767358
204,16647.6054292419086735904251688745529,16646.0,1.6054292419086735904251688745529
205,16811.2064139548937852748606628404024,16809.6,1.6064139548937852748606628404024
206,16975.6073938742484164219958673760770,16974.0,1.6073938742484164219958673760770
207,17140.8083690464282561375032892151445,17139.2,1.6083690464282561375032892151445
208,17306.8093395172168797029064343395929,17305.2,1.6093395172168797029064343395929
209,17473.6103053317386526593127159205047,17472.0,1.6103053317386526593127159205047
210,17641.2112665344713274823178314856942,17639.6,1.6112665344713274823178314856942
211,17809.6122231692583402070375996635457,17808.0,1.6122231692583402070375996635457
212,17978.8131752793208172303888927167428,17977.2,1.6131752793208172303888927167428
213,18148.8141229072692966685070834971787,18147.2,1.6141229072692966685070834971787
214,18319.6150660951151792449831761090982,18318.0,1.6150660951151792449831761090982
215,18491.2160048842819079161447694294133,18489.6,1.6160048842819079161447694294133
216,18663.6169393156158901878308859462921,18662.0,1.6169393156158901878308859462921
217,18836.8178694293971670826956140367912,18835.2,1.6178694293971670826956140367912
218,19010.8187952653498377304829857912288,19009.2,1.6187952653498377304829857912288
219,19185.6197168626522428542014080154091,19184.0,1.6197168626522428542014080154091
220,19361.2206342599469196603178052890088,19359.6,1.6206342599469196603178052890088
221,19537.6215474953503260352534466016404,19536.0,1.6215474953503260352534466016404
222,19714.8224566064623512455390803731079,19713.2,1.6224566064623512455390803731079
223,19892.8233616303756067024524887203465,19891.2,1.6233616303756067024524887203465
224,20071.6242626036845118504285698589318,20070.0,1.6242626036845118504285698589318
225,20251.2251595624941777357761898308859,20249.6,1.6251595624941777357761898308859
226,20431.6260525424290917936343613841373,20430.0,1.6260525424290917936343613841373
227,20612.8269415786416124960057623079234,20611.2,1.6269415786416124960057623079234
228,20794.8278267058202756710584430650423,20793.2,1.6278267058202756710584430650423
229,20977.6287079581979196458305325333524,20976.0,1.6287079581979196458305325333524
230,21161.2295853695596338985657333396342,21159.6,1.6295853695596338985657333396342
231,21345.6304589732505330099335031981120,21344.0,1.6304589732505330099335031981120
232,21530.8313288021833663220379285237587,21529.2,1.6313288021833663220379285237587
233,21716.8321948888459582907028984975470,21715.2,1.6321948888459582907028984975470
234,21903.6330572653084956770824321974518,21902.0,1.6330572653084956770824321974518
235,22091.2339159632306547496790444295594,22089.6,1.6339159632306547496790444295594
236,22279.6347710138685781955210276824468,22278.0,1.6347710138685781955210276824468
237,22468.8356224480817053606079918985528,22467.2,1.6356224480817053606079918985528
238,22658.8364702963394575506178134024028,22657.2,1.6364702963394575506178134024028
