Eigenstate,Energy,Kinetic Energy,Potential Energy
1,0.500000000479134386178833415279071667,0.0,0.500000000479134386178833415279071667
2,1.84623094077870436718849820588900165,1.2,0.64623094077870436718849820588900165
3,3.93633761889224681931136534799101499,3.2,0.73633761889224681931136534799101499
4,6.79966529695092834801125025653437687,6.0,0.79966529695092834801125025653437687
5,10.4480466084357890470020695322576340,9.6,0.8480466084357890470020695322576340
6,14.8870660481698077983602218733822450,14.0,0.8870660481698077983602218733822450
7,20.1197208976239297611262783090440143,19.2,0.9197208976239297611262783090440143
8,26.1477839431931940182786553896286832,25.2,0.9477839431931940182786553896286832
9,32.9723836838952703543773589977452900,32.0,0.9723836838952703543773589977452900
10,40.5942803738868332492698291501519009,39.6,0.9942803738868332492698291501519009
11,49.0140095833153441538243649171631386,48.0,1.0140095833153441538243649171631386
12,58.2319624074909952446788968263748030,57.2,1.0319624074909952446788968263748030
13,68.2484329764847436234992772071608610,67.2,1.0484329764847436234992772071608610
14,79.0636479879847277309394095840406601,78.0,1.0636479879847277309394095840406601
15,90.6777858231106062874358080559053195,89.6,1.0777858231106062874358080559053195
16,103.090989351284100488719844683050382,102.0,1.090989351284100488719844683050382
17,116.303374763690561919963265619230967,115.2,1.103374763690561919963265619230967
18,130.315037824285215044750720338604606,129.2,1.115037824285215044750720338604606
19,145.126058392897164833295712141414567,144.0,1.126058392897164833295712141414567
20,160.736503762863354728429731568577878,159.6,1.136503762863354728429731568577878
21,177.146431167110279672660552437429861,176.0,1.146431167110279672660552437429861
22,194.355889689312738213329141488887409,193.2,1.155889689312738213329141488887409
23,212.364921741830366431530911259290144,211.2,1.164921741830366431530911259290144
24,231.173564223108067466797147901023473,230.0,1.173564223108067466797147901023473
25,250.781849434471943906371957013342316,249.6,1.181849434471943906371957013342316
26,271.189805813936890541935709538291145,270.0,1.189805813936890541935709538291145
27,292.397458529169174486101886238218313,291.2,1.197458529169174486101886238218313
28,314.404829960845478757495539616066676,313.2,1.204829960845478757495539616066676
29,337.211940099854857570252275367172017,336.0,1.211940099854857570252275367172017
30,360.818806876140563958331605043192244,359.6,1.218806876140563958331605043192244
31,385.225446432832771839214222498125496,384.0,1.225446432832771839214222498125496
32,410.431873356245315018253115417034422,409.2,1.231873356245315018253115417034422
33,436.438100869999917817261864279643923,435.2,1.238100869999917817261864279643923
34,463.244140999790845734765697555442884,462.0,1.244140999790845734765697555442884
35,490.850004713963709472191719351222735,489.6,1.250004713963709472191719351222735
36,519.255702044048676776122788949939823,518.0,1.255702044048676776122788949939823
37,548.461242188584261993975699047967292,547.2,1.261242188584261993975699047967292
38,578.466633602937444494071647688500167,577.2,1.266633602937444494071647688500167
39,609.271884077328018449043384693641021,608.0,1.271884077328018449043384693641021
40,640.877000804869255696031736024207950,639.6,1.277000804869255696031736024207950
41,673.281990441120213111880272629281122,672.0,1.281990441120213111880272629281122
42,706.486859156390023338835439906275032,705.2,1.286859156390023338835439906275032
43,740.491612681828021350396275285316792,739.2,1.291612681828021350396275285316792
44,775.296256350165465330701502452304324,774.0,1.296256350165465330701502452304324
45,810.900795131837040771245772442179903,809.6,1.300795131837040771245772442179903
46,847.305233667097200405644075230510714,846.0,1.305233667097200405644075230510714
47,884.509576294652915990446279113414430,883.2,1.309576294652915990446279113414430
48,922.513827077256831575447857818844620,921.2,1.313827077256831575447857818844620
49,961.317989824640145362796796487386487,960.0,1.317989824640145362796796487386487
50,1000.92206811411042454034410596038681,999.6,1.32206811411042454034410596038681
51,1041.32606530909409051205349920671757,1040.0,1.32606530909409051205349920671757
52,1082.52998457586496673385739747465219,1081.2,1.32998457586496673385739747465219
53,1124.53382889866783124469914782531111,1123.2,1.33382889866783124469914782531111
54,1167.33760109341835485096649859169110,1166.0,1.33760109341835485096649859169110
55,1210.94130382013733042994690638238605,1209.6,1.34130382013733042994690638238605
56,1255.34493959425702424776395086379425,1254.0,1.34493959425702424776395086379425
57,1300.54851079692028122210073196522784,1299.2,1.34851079692028122210073196522784
58,1346.55201968437821887370451843008749,1345.2,1.35201968437821887370451843008749
59,1393.35546839657959076337357202026108,1392.0,1.35546839657959076337357202026108
60,1440.95885896503387570342188954836015,1439.6,1.35885896503387570342188954836015
61,1489.36219332002058480511203942091798,1488.0,1.36219332002058480511203942091798
62,1538.56547329720897741843969352580060,1537.2,1.36547329720897741843969352580060
63,1588.56870064374513513164261302946021,1587.2,1.36870064374513513164261302946021
64,1639.37187702385703051790121634905368,1638.0,1.37187702385703051790121634905368
65,1690.97500402402269247674621818119219,1689.6,1.37500402402269247674621818119219
66,1743.37808315774172267865452660749860,1742.0,1.37808315774172267865452660749860
67,1796.58111586994615533001758220822482,1795.2,1.38111586994615533001758220822482
68,1850.58410354108289631488553891300014,1849.2,1.38410354108289631488553891300014
69,1905.38704749089666509919803015982978,1904.0,1.38704749089666509919803015982978
70,1960.98994898193943451497720177162580,1959.6,1.38994898193943451497720177162580
71,2017.39280922282976483827179397144455,2016.0,1.39280922282976483827179397144455
72,2074.59562937128313033229156074881891,2073.2,1.39562937128313033229156074881891
73,2132.59841053693228342081622043169099,2131.2,1.39841053693228342081622043169099
74,2191.40115378395488280844719518181532,2190.0,1.40115378395488280844719518181532
75,2251.00386013352398076321623995618635,2249.6,1.40386013352398076321623995618635
76,2311.40653056609551522035255126317543,2310.0,1.40653056609551522035255126317543
77,2372.60916602354564996764386036308088,2371.2,1.40916602354564996764386036308088
78,2434.61176741116964037469443419318978,2433.2,1.41176741116964037469443419318978
79,2497.41433559955285530844414310008794,2496.0,1.41433559955285530844414310008794
80,2561.01687142632364775171949141405395,2559.6,1.41687142632364775171949141405395
81,2625.41937569779691730017025685803807,2624.0,1.41937569779691730017025685803807
82,2690.62184919051644626244551555931688,2689.2,1.42184919051644626244551555931688
83,2756.62429265270340235473398672040356,2755.2,1.42429265270340235473398672040356
84,2823.42670680561777668913836096938114,2822.0,1.42670680561777668913836096938114
85,2891.02909234483896647924191911680602,2889.6,1.42909234483896647924191911680602
86,2959.43144994147119602089979926728897,2958.0,1.43144994147119602089979926728897
87,3028.63378024327901203555762681372038,3027.2,1.43378024327901203555762681372038
88,3098.63608387575766608572829554499986,3097.2,1.43608387575766608572829554499986
89,3169.43836144314281327016982861287290,3168.0,1.43836144314281327016982861287290
90,3241.04061352936361318964856324842214,3239.6,1.44061352936361318964856324842214
91,3313.44284069894299772219820338692728,3312.0,1.44284069894299772219820338692728
92,3386.64504349784858184931917186981576,3385.2,1.44504349784858184931917186981576
93,3460.64722245429743151958957747363603,3459.2,1.44722245429743151958957747363603
94,3535.44937807951765960749951840611905,3534.0,1.44937807951765960749951840611905
95,3611.05151086846959987137694640189529,3609.6,1.45151086846959987137694640189529
96,3687.45362130052910699223945095351640,3686.0,1.45362130052910699223945095351640
97,3764.65570984013534643339064903915555,3763.2,1.45570984013534643339064903915555
98,3842.65777693740526498636800584091969,3841.2,1.45777693740526498636800584091969
99,3921.45982302871677939676173418164406,3920.0,1.45982302871677939676173418164406
100,4001.06184853726257412309719969320197,3999.6,1.46184853726257412309719969320197
101,4081.46385387357626997792187502079216,4080.0,1.46385387357626997792187502079216
102,4162.66583943603259982561725045005503,4161.2,1.46583943603259982561725045005503
103,4244.66780561132311959794572575490456,4243.2,1.46780561132311959794572575490456
104,4327.46975277490887562374546247470996,4326.0,1.46975277490887562374546247470996
105,4411.07168129145135619553155970804953,4409.6,1.47168129145135619553155970804953
106,4495.47359151522296453163960590507867,4494.0,1.47359151522296453163960590507867
107,4580.67548379049817221070562737965638,4579.2,1.47548379049817221070562737965638
108,4666.67735845192643291584191668110939,4665.2,1.47735845192643291584191668110939
109,4753.47921582488786773246326982666673,4752.0,1.47921582488786773246326982666673
110,4841.08105622583267082371433624481441,4839.6,1.48105622583267082371433624481441
111,4929.48287996260511844638608924526951,4928.0,1.48287996260511844638608924526951
112,5018.68468733475301483671138936602174,5017.2,1.48468733475301483671138936602174
113,5108.68647863382335295977109164455069,5107.2,1.48647863382335295977109164455069
114,5199.48825414364491935863620474729914,5198.0,1.48825414364491935863620474729914
115,5291.09001414059853189101022009444549,5289.6,1.49001414059853189101022009444549
116,5383.49175889387555080964420418645303,5382.0,1.49175889387555080964420418645303
117,5476.69348866572527192994609909861252,5475.2,1.49348866572527192994609909861252
118,5570.69520371169176959726135492450399,5569.2,1.49520371169176959726135492450399
119,5665.49690428084072345275374816806517,5664.0,1.49690428084072345275374816806517
120,5761.09859061597673715475032257404702,5759.6,1.49859061597673715475032257404702
121,5857.50026295385161894534902891923040,5856.0,1.50026295385161894534902891923040
122,5954.70192152536407503913620523946594,5953.2,1.50192152536407503913620523946594
123,6052.70356655575123461811648676453340,6051.2,1.50356655575123461811648676453340
124,6151.50519826477240753734397742583347,6150.0,1.50519826477240753734397742583347
125,6251.10681686688544627968007617573148,6249.6,1.50681686688544627968007617573148
126,6351.50842257141606850101266000513631,6350.0,1.50842257141606850101266000513631
127,6452.71001558272047592959502173610886,6451.2,1.51001558272047592959502173610886
128,6554.71159610034158279619561904059971,6553.2,1.51159610034158279619561904059971
129,6657.51316431915915489873538682939878,6656.0,1.51316431915915489873538682939878
130,6761.11472042953414202345542151563224,6759.6,1.51472042953414202345542151563224
131,6865.51626461744747104078175176957212,6864.0,1.51626461744747104078175176957212
132,6970.71779706463355201710427264691862,6969.2,1.51779706463355201710427264691862
133,7076.71931794870873790234841630230042,7075.2,1.51931794870873790234841630230042
134,7183.52082744329496707753939183700072,7182.0,1.52082744329496707753939183700072
135,7291.12232571813879993847817305454817,7289.6,1.52232571813879993847817305454817
136,7399.52381293922605700440151549283105,7398.0,1.52381293922605700440151549283105
137,7508.72528926889225273285220364117047,7507.2,1.52528926889225273285220364117047
138,7618.72675486592900561028787552755059,7617.2,1.52675486592900561028787552755059
139,7729.52820988568660298236670726705829,7728.0,1.52820988568660298236670726705829
140,7841.12965448017288364219990188498612,7839.6,1.52965448017288364219990188498612
141,7953.53108879814859663769843973547504,7952.0,1.53108879814859663769843973547504
142,8066.73251298521938668622397537690647,8065.2,1.53251298521938668622397537690647
143,8180.73392718392454793493105894932168,8179.2,1.53392718392454793493105894932168
144,8295.53533153382268062592115306828643,8294.0,1.53533153382268062592115306828643
145,8411.13672617157438103794393001753363,8409.6,1.53672617157438103794393001753363
146,8527.53811123102208720802516677797585,8526.0,1.53811123102208720802516677797585
147,8644.73948684326719473383547677367421,8643.2,1.53948684326719473383547677367421
148,8762.74085313674455799999580692121261,8761.2,1.54085313674455799999580692121261
149,8881.54221023729447864388069749956649,8880.0,1.54221023729447864388069749956649
150,9001.14355826823228491683866566172838,8999.6,1.54355826823228491683866566172838
151,9121.54489735041559787059991456127247,9120.0,1.54489735041559787059991456127247
152,9242.74622760230937468402213712027743,9241.2,1.54622760230937468402213712027743
153,9364.74754914004881809635064168161449,9363.2,1.54754914004881809635064168161449
154,9487.54886207750023586322670451102011,9486.0,1.54886207750023586322670451102011
155,9611.15016652631992848895331927107995,9609.6,1.55016652631992848895331927107995
156,9735.55146259601118311945690636339171,9734.0,1.55146259601118311945690636339171
157,9860.75275039397944466117324394900467,9859.2,1.55275039397944466117324394900467
158,9986.75403002558573596318657427781408,9985.2,1.55403002558573596318657427781408
159,10113.5553015941983907552809374337799,10112.0,1.5553015941983907552809374337799
160,10241.1565652012431656999030370865896,10239.6,1.5565652012431656999030370865896
161,10369.5578209462517900752631593047089,10368.0,1.5578209462517900752631593047089
162,10498.7590689269090125724643550793191,10497.2,1.5590689269090125724643550793191
163,10628.7603092390982000824383976985787,10627.2,1.5603092390982000824383976985787
164,10759.5615419769455431324979120323820,10758.0,1.5615419769455431324979120323820
165,10891.1627672328629165966859137124679,10889.6,1.5627672328629165966859137124679
166,11023.5639850975894462202448855989835,11022.0,1.5639850975894462202448855989835
167,11156.7651956602318282160818039763637,11155.2,1.5651956602318282160818039763637
168,11290.7663990083034446485269956847184,11289.2,1.5663990083034446485269956847184
169,11425.5675952277623196937314343842897,11424.0,1.5675952277623196937314343842897
170,11561.1687844030479565479773459121999,11559.6,1.5687844030479565479773459121999
171,11697.5699666171170952074518535141291,11696.0,1.5699666171170952074518535141291
172,11834.7711419514784290162051162134828,11833.2,1.5711419514784290162051162134828
173,11972.7723104862263154156871381254382,11971.2,1.5723104862263154156871381254382
174,12111.5734723000735167714934055413438,12110.0,1.5734723000735167714934055413438
175,12251.1746274703830052954437522108908,12249.6,1.5746274703830052954437522108908
176,12391.5757760731988618036712213308002,12390.0,1.5757760731988618036712213308002
177,12532.7769181832763016067442333412402,12531.2,1.5769181832763016067442333412402
178,12674.7780538741108567229248251504255,12673.2,1.5780538741108567229248251504255
179,12817.5791832179667408974670042861281,12816.0,1.5791832179667408974670042861281
180,12961.1803062859044284136337407005801,12959.6,1.5803062859044284136337407005801
181,13105.5814231478074693846422298433870,13104.0,1.5814231478074693846422298433870
182,13250.7825338724085692639759086107853,13249.2,1.5825338724085692639759086107853
183,13396.7836385273149556668517876591873,13395.2,1.5836385273149556668517876591873
184,13543.5847371790330567894202491896895,13542.0,1.5847371790330567894202491896895
185,13691.1858298929925132804570706172905,13689.6,1.5858298929925132804570706172905
186,13839.5869167335695445824404529626902,13838.0,1.5869167335695445824404529626902
187,13988.7879977641096935925217000939508,13987.2,1.5879977641096935925217000939508
188,14138.7890730469499651314838090183389,14137.2,1.5890730469499651314838090183389
189,14289.5901426434403820054327126403861,14288.0,1.5901426434403820054327126403861
190,14441.1912066139649743668590237337654,14439.6,1.5912066139649743668590237337654
191,14593.5922650179622216552364415579468,14592.0,1.5922650179622216552364415579468
192,14746.7933179139449635590295107778525,14745.2,1.5933179139449635590295107778525
193,14900.7943653595197983648412062324464,14899.2,1.5943653595197983648412062324464
194,15055.5954074114059820986253576743403,15054.0,1.5954074114059820986253576743403
195,15211.1964441254538464578229211691494,15209.6,1.5964441254538464578229211691494
196,15367.5974755566627492953177582607923,15366.0,1.5974755566627492953177582607923
197,15524.7985017591985721020647956161581,15523.2,1.5985017591985721020647956161581
198,15682.7995227864107787246088487603647,15681.2,1.5995227864107787246088487603647
199,15841.6005386908490482283684204788120,15840.0,1.6005386908490482283684204788120
200,16001.2015495242794959268054767984124,15999.6,1.6015495242794959268054767984124
201,16161.6025553377004936358828366349638,16160.0,1.6025553377004936358828366349638
202,16322.8035561813581026160897276151055,16321.2,1.6035561813581026160897276151055
203,16484.8045521047611299462086783534097,16483.2,1.6045521047611299462086783534097
204,16647.6055431566958200366009716565010,16646.0,1.6055431566958200366009716565010
205,16811.2065293852401913438692657823711,16809.6,1.6065293852401913438692657823711
206,16975.6075108377780314058753728233165,16974.0,1.6075108377780314058753728233165
207,17140.8084875610125561719604071799351,17139.2,1.6084875610125561719604071799351
208,17306.8094596009797479580731187786642,17305.2,1.6094596009797479580731187786642
209,17473.6104270030613778822338719323278,17472.0,1.6104270030613778822338719323278
210,17641.2113898119977243929978698700572,17639.6,1.6113898119977243929978698700572
211,17809.6123480718999953716196470090559,17808.0,1.6123480718999953716196470090559
212,17978.8133018262624641616558012780672,17977.2,1.6133018262624641616558012780672
213,18148.8142511179743240356451723730387,18147.2,1.6142511179743240356451723730387
214,18319.6151959893312762116256476997998,18318.0,1.6151959893312762116256476997998
215,18491.2161364820468507683796036420390,18489.6,1.6161364820468507683796036420390
216,18663.6170726372634745623754018884066,18662.0,1.6170726372634745623754018884066
217,18836.8180044955632902600834728372516,18835.2,1.6180044955632902600834728372516
218,19010.8189320969787356191491493013403,19009.2,1.6189320969787356191491493013403
219,19185.6198554810028864591087870018746,19184.0,1.6198554810028864591087870018746
220,19361.2207746865995760045367202639298,19359.6,1.6207746865995760045367202639298
221,19537.6216897522132886850560590196256,19536.0,1.6216897522132886850560590196256
222,19714.8226007157788457794035157523180,19713.2,1.6226007157788457794035157523180
223,19892.8235076147308766623099626362783,19891.2,1.6235076147308766623099626362783
224,20071.6244104860130909198852038034352,20070.0,1.6244104860130909198852038034352
225,20251.2253093660873541053316170874028,20249.6,1.6253093660873541053316170874028
226,20431.6262042909425708975100714489291,20430.0,1.6262042909425708975100714489291
227,20612.8270952961033845395940132857444,20611.2,1.6270952961033845395940132857444
228,20794.8279824166386946126274712211667,20793.2,1.6279824166386946126274712211667
229,20977.6288656871700005515481413694832,20976.0,1.6288656871700005515481413694832
230,21161.2297451418795758566079842260392,21159.6,1.6297451418795758566079842260392
231,21345.6306208145184750680495747635803,21344.0,1.6306208145184750680495747635803
232,21530.8314927384143842040308502525766,21529.2,1.6314927384143842040308502525766
233,21716.8323609464793099514495125059265,21715.2,1.6323609464793099514495125059265
234,21903.6332254712171240737226564536887,21902.0,1.6332254712171240737226564536887
235,22091.2340863447309565390447883608008,22089.6,1.6340863447309565390447883608008
236,22279.6349435987304474156237620584819,22278.0,1.6349435987304474156237620584819
237,22468.8357972645388615177327797634119,22467.2,1.6357972645388615177327797634119
238,22658.8366473731000679142346842735772,22657.2,1.6366473731000679142346842735772
