Eigenstate,Energy,Kinetic Energy,Potential Energy
1,0.500000000454849743871392146195296406,0.0,0.500000000454849743871392146195296406
2,1.84623094062018222403891575401300609,1.2,0.64623094062018222403891575401300609
3,3.93633761842657958823396286046426153,3.2,0.73633761842657958823396286046426153
4,6.79966529598093609981459389567603596,6.0,0.79966529598093609981459389567603596
5,10.4480466067554302539430921447626134,9.6,0.8480466067554302539430921447626134
6,14.8870660455693501460306227037478399,14.0,0.8870660455693501460306227037478399
7,20.1197208938918415542160868352995695,19.2,0.9197208938918415542160868352995695
8,26.1477839381169202096510545026993593,25.2,0.9477839381169202096510545026993593
9,32.9723836772615816540265008774529436,32.0,0.9723836772615816540265008774529436
10,40.5942803654819924707958394096348279,39.6,0.9942803654819924707958394096348279
11,49.0140095729251864935342147105542743,48.0,1.0140095729251864935342147105542743
12,58.2319623949009646701829125869442526,57.2,1.0319623949009646701829125869442526
13,68.2484329614799053355302473164667625,67.2,1.0484329614799053355302473164667625
14,79.0636479703497668219482762303661591,78.0,1.0636479703497668219482762303661591
15,90.6777858026298180389960667060073188,89.6,1.0777858026298180389960667060073188
16,103.090989327741375382295938337039173,102.0,1.090989327741375382295938337039173
17,116.303374736869367173723028577699774,115.2,1.103374736869367173723028577699774
18,130.315037793968573785126559117780405,129.2,1.115037793968573785126559117780405
19,145.126058358867633601286228855198875,144.0,1.126058358867633601286228855198875
20,160.736503724902999774861073181546029,159.6,1.136503724902999774861073181546029
21,177.146431125000652344160341410944310,176.0,1.146431125000652344160341410944310
22,194.355889642834849633516186546882229,193.2,1.155889642834849633516186546882229
23,212.364921690764661618325683840325625,211.2,1.164921690764661618325683840325625
24,231.173564167234398984218020333182169,230.0,1.173564167234398984218020333182169
25,250.781849373569545120138414800254380,249.6,1.181849373569545120138414800254380
26,271.189805747784348527994949805756921,270.0,1.189805747784348527994949805756921
27,292.397458457544402626894861893302493,291.2,1.197458457544402626894861893302493
28,314.404829883525689050493748414851242,313.2,1.204829883525689050493748414851242
29,337.211940016616532665788594347468468,336.0,1.211940016616532665788594347468468
30,360.818806786759428938189664957088630,359.6,1.218806786759428938189664957088630
31,385.225446337083765743269576739834880,384.0,1.225446337083765743269576739834880
32,410.431873253902562123288855343658521,409.2,1.231873253902562123288855343658521
33,436.438100760836698669640765165416599,435.2,1.238100760836698669640765165416599
34,463.244140883579567936738934500875550,462.0,1.244140883579567936738934500875550
35,490.850004590475878220123384444673072,489.6,1.250004590475878220123384444673072
36,519.255701913054865147710421435526988,518.0,1.255701913054865147710421435526988
37,548.461242049854080980576626364548646,547.2,1.261242049854080980576626364548646
38,578.466633456239512773449499265832142,577.2,1.266633456239512773449499265832142
39,609.271883922429931893187942176114044,608.0,1.271883922429931893187942176114044
40,640.877000641537556608148126018170148,639.6,1.277000641537556608148126018170148
41,673.281990269120359186167331759452001,672.0,1.281990269120359186167331759452001
42,706.486858975486356336259762094938054,705.2,1.286858975486356336259762094938054
43,740.491612491783735483304719546564175,739.2,1.291612491783735483304719546564175
44,775.296256150742575348789811273935632,774.0,1.296256150742575348789811273935632
45,810.900794922796349741106261082958754,809.6,1.300794922796349741106261082958754
46,847.305233448198267175844223333268499,846.0,1.305233448198267175844223333268499
47,884.509576065654022333837621032689429,883.2,1.309576065654022333837621032689429
48,922.513826837914949000166060678109651,921.2,1.313826837914949000166060678109651
49,961.317989574710901583186566383602329,960.0,1.317989574710901583186566383602329
50,1000.92206785334806959882308560974985,999.6,1.32206785334806959882308560974985
51,1041.32606503725146254271587163592982,1040.0,1.32606503725146254271587163592982
52,1082.52998429269345735840822123655381,1081.2,1.32998429269345735840822123655381
53,1124.53382860391735059110365130862027,1123.2,1.33382860391735059110365130862027
54,1167.33760078683729618499249807718983,1166.0,1.33760078683729618499249807718983
55,1210.94130350147253438957279951091380,1209.6,1.34130350147253438957279951091380
56,1255.34493926325374267021787280177804,1254.0,1.34493926325374267021787280177804
57,1300.54851045332214055308841379154928,1299.2,1.34851045332214055308841379154928
58,1346.55201932792718314817275827695230,1345.2,1.35201932792718314817275827695230
59,1393.35546802701592414694264507682093,1392.0,1.35546802701592414694264507682093
60,1440.95885858209610458340341616430727,1439.6,1.35885858209610458340341616430727
61,1489.36219292344545941980792256688007,1488.0,1.36219292344545941980792256688007
62,1538.56547288673143301319258259828316,1537.2,1.36547288673143301319258259828316
63,1588.56870021909825262987844790710708,1587.2,1.36870021909825262987844790710708
64,1639.37187658477199669516966207732156,1638.0,1.37187658477199669516966207732156
65,1690.97500357022875962552402298376461,1689.6,1.37500357022875962552402298376461
66,1743.37808268896616775143120177375052,1742.0,1.37808268896616775143120177375052
67,1796.58111538591423854793039278422940,1795.2,1.38111538591423854793039278422940
68,1850.58410304151781922891241944046038,1849.2,1.38410304151781922891241944046038
69,1905.38704697551952809065204664705829,1904.0,1.38704697551952809065204664705829
70,1960.98994845046919372177447394506668,1959.6,1.38994845046919372177447394506668
71,2017.39280867498318849316530202692930,2016.0,1.39280867498318849316530202692930
72,2074.59562880677475449897739019198589,2073.2,1.39562880677475449897739019198589
73,2132.59840995547436711352433806698921,2131.2,1.39840995547436711352433806698921
74,2191.40115318525736248032687256176031,2190.0,1.40115318525736248032687256176031
75,2251.00385951729442414851622642886365,2249.6,1.40385951729442414851622642886365
76,2311.40652993203907451507709075674085,2310.0,1.40652993203907451507709075674085
77,2372.60916537136501433303835890455042,2371.2,1.40916537136501433303835890455042
78,2434.61176674056498774757835278486856,2433.2,1.41176674056498774757835278486856
79,2497.41433491022180350206229225503090,2496.0,1.41433491022180350206229225503090
80,2561.01687071796120483042806172729518,2559.6,1.41687071796120483042806172729518
81,2625.41937497009543121090849123911769,2624.0,1.41937497009543121090849123911769
82,2690.62184844316555370556830655046620,2689.2,1.42184844316555370556830655046620
83,2756.62429188538997687639488108025675,2755.2,1.42429188538997687639488108025675
84,2823.42670601802587597701538520104539,2822.0,1.42670601802587597701538520104539
85,2891.02909153664977884299060750646079,2889.6,1.42909153664977884299060750646079
86,2959.43144911236298603829891242549907,2958.0,1.43144911236298603829891242549907
87,3028.63377939292706534488065456606765,3027.2,1.43377939292706534488065456606765
88,3098.63608300383423330443121355813128,3097.2,1.43608300383423330443121355813128
89,3169.43836054931705301952862194086650,3168.0,1.43836054931705301952862194086650
90,3241.04061261330153420451162370040272,3239.6,1.44061261330153420451162370040272
91,3313.44283976030740002453555771831784,3312.0,1.44283976030740002453555771831784
92,3386.64504253629899696375469516994894,3385.2,1.44504253629899696375469516994894
93,3460.64722146949006170859133141953846,3459.2,1.44722146949006170859133141953846
94,3535.44937707110531610337901975987166,3534.0,1.44937707110531610337901975987166
95,3611.05150983610164008170685284451794,3609.6,1.45150983610164008170685284451794
96,3687.45362024385137065474475908481659,3686.0,1.45362024385137065474475908481659
97,3764.65570875879009069579520868519514,3763.2,1.45570875879009069579520868519514
98,3842.65777583103109838609138111057873,3841.2,1.45777583103109838609138111057873
99,3921.45982189694859471475480304711078,3920.0,1.45982189694859471475480304711078
100,4001.06184737973148008548237178659537,3999.6,1.46184737973148008548237178659537
101,4081.46385268990952177846325059911109,4080.0,1.46385268990952177846325059911109
102,4162.66583822585352844138545732946272,4161.2,1.46583822585352844138545732946272
103,4244.66780437425105986986354432368453,4243.2,1.46780437425105986986354432368453
104,4327.46975151055909307300132316371699,4326.0,1.46975151055909307300132316371699
105,4411.07167999943497254612833827742044,4409.6,1.47167999943497254612833827742044
106,4495.47359019514688190860525252788046,4494.0,1.47359019514688190860525252788046
107,4580.67548244196499598273052155408106,4579.2,1.47548244196499598273052155408106
108,4666.67735707453439315032148043291604,4665.2,1.47735707453439315032148043291604
109,4753.47921441823073923011646902267290,4752.0,1.47921441823073923011646902267290
110,4841.08105478949969169911611438016002,4839.6,1.48105478949969169911611438016002
111,4929.48287849618090721989477113885927,4928.0,1.48287849618090721989477113885927
112,5018.68468583781748600238782917539947,5017.2,1.48468583781748600238782917539947
113,5108.68647710595163099297882100298536,5107.2,1.48647710595163099297882100298536
114,5199.48825258440725112607295446530108,5198.0,1.48825258440725112607295446530108
115,5291.09001254956019742495696217622641,5289.6,1.49001254956019742495696217622641
116,5383.49175727059677240722363636928161,5382.0,1.49175727059677240722363636928161
117,5476.69348700976112153715737621417953,5475.2,1.49348700976112153715737621417953
118,5570.69520202259207443650270015510521,5569.2,1.49520202259207443650270015510521
119,5665.49690255814996985145659055617564,5664.0,1.49690255814996985145659055617564
120,5761.09858885923397253162625117937909,5759.6,1.49858885923397253162625117937909
121,5857.50026116259035190959693649561932,5856.0,1.50026116259035190959693649561932
122,5954.70191969911217355676413120479500,5953.2,1.50191969911217355676413120479500
123,6052.70356469403082219830549268374562,6051.2,1.50356469403082219830549268374562
124,6151.50519636709975739051444974577522,6150.0,1.50519636709975739051444974577522
125,6251.10681493277087339761620579083219,6249.6,1.50681493277087339761620579083219
126,6351.50842060036381960805354176488142,6350.0,1.50842060036381960805354176488142
127,6452.71001357422861725251310123479360,6451.2,1.51001357422861725251310123479360
128,6554.71159405390188559895083446522832,6553.2,1.51159405390188559895083446522832
129,6657.51316223425697872681657898860818,6656.0,1.51316223425697872681657898860818
130,6761.11471830564831560099594709936706,6759.6,1.51471830564831560099594709936706
131,6865.51626245405017076206648015679309,6864.0,1.51626245405017076206648015679309
132,6970.71779486119017797245822567485385,6969.2,1.51779486119017797245822567485385
133,7076.71931570467778737672938980539191,7075.2,1.51931570467778737672938980539191
134,7183.52082515812790545842482923365751,7182.0,1.52082515812790545842482923365751
135,7291.12232339127992896785535979901214,7289.6,1.52232339127992896785535979901214
136,7399.52381057011238030782956907789356,7398.0,1.52381057011238030782956907789356
137,7508.72528685695333855666455494080422,7507.2,1.52528685695333855666455494080422
138,7618.72675241058684669604008982146636,7617.2,1.52675241058684669604008982146636
139,7729.52820738635547350561201918255453,7728.0,1.52820738635547350561201918255453
140,7841.12965193625919314058023739871374,7839.6,1.52965193625919314058023739871374
141,7953.53108620905074085117922351369505,7952.0,1.53108620905074085117922351369505
142,8066.73251035032759523006850624148184,8065.2,1.53251035032759523006850624148184
143,8180.73392450262072872370608985562848,8179.2,1.53392450262072872370608985562848
144,8295.53532880548026096444152082707938,8294.0,1.53532880548026096444152082707938
145,8411.13672339555814529260347840893107,8409.6,1.53672339555814529260347840893107
146,8527.53810840668801096941893142875993,8526.0,1.53810840668801096941893142875993
147,8644.73948396996227537894532265930520,8643.2,1.53948396996227537894532265930520
148,8762.74085021380664155949900277073871,8761.2,1.54085021380664155949900277073871
149,8881.54220726405208287732910169406933,8880.0,1.54220726405208287732910169406933
150,9001.14355524400441849555087637970082,8999.6,1.54355524400441849555087637970082
151,9121.54489427451157556510751017852739,9120.0,1.54489427451157556510751017852739
152,9242.74622447402862844980315152223951,9241.2,1.54622447402862844980315152223951
153,9364.74754595868070394837210821656545,9363.2,1.54754595868070394837210821656545
154,9487.54885884232383642649344880404443,9486.0,1.54885884232383642649344880404443
155,9611.15016323660385110882481401373451,9609.6,1.55016323660385110882481401373451
156,9735.55145925101335341193174932475946,9734.0,1.55145925101335341193174932475946
157,9860.75274699294689537966360502302278,9859.2,1.55274699294689537966360502302278
158,9986.75402656775439105449345241426220,9985.2,1.55402656775439105449345241426220
159,10113.5552980787928444735366374730679,10112.0,1.5552980787928444735366374730679
160,10241.1565616274764566431638451002475,10239.6,1.5565616274764566431638451002475
161,10369.5578173133251700052104861985210,10368.0,1.5578173133251700052104861985210
162,10498.7590652340117098732886541026719,10497.2,1.5590652340117098732886541026719
163,10628.7603054854071777104542077572683,10627.2,1.5603054854071777104542077572683
164,10759.5615381616252509033371992437257,10758.0,1.5615381616252509033371992437257
165,10891.1627633550650376520490219231939,10889.6,1.5627633550650376520490219231939
166,11023.5639811564526375111558123352516,11022.0,1.5639811564526375111558123352516
167,11156.7651916548814548343620741580025,11155.2,1.5651916548814548343620741580025
168,11290.7663949378513078327932780312259,11289.2,1.5663949378513078327932780312259
169,11425.5675910913063783306084055378392,11424.0,1.5675910913063783306084055378392
170,11561.1687801996720419834003412324000,11559.6,1.5687801996720419834003412324000
171,11697.5699623458906191768993298527431,11696.0,1.5699623458906191768993298527431
172,11834.7711376114560844964481927502184,11833.2,1.5711376114560844964481927502184
173,11972.7723060764477701941516985004481,11971.2,1.5723060764477701941516985004481
174,12111.5734678195630995226019502686215,12110.0,1.5734678195630995226019502686215
175,12251.1746229181493839463197246212304,12249.6,1.5746229181493839463197246212304
176,12391.5757714482347139643441600718425,12390.0,1.5757714482347139643441600718425
177,12532.7769134845579768324720466898665,12531.2,1.5769134845579768324720466898665
178,12674.7780491005980303684439125394610,12673.2,1.5780491005980303684439125394610
179,12817.5791783686020593148808130048210,12816.0,1.5791783686020593148808130048210
180,12961.1803013596131452372295104475031,12959.6,1.5803013596131452372295104475031
181,13105.5814181434970726371968910371598,13104.0,1.5814181434970726371968910371598
182,13250.7825287889683990100290666993511,13249.2,1.5825287889683990100290666993511
183,13396.7836333636158119289992478452724,13395.2,1.5836333636158119289992478452724
184,13543.5847319339267974338851613244572,13542.0,1.5847319339267974338851613244572
185,13691.1858245653116415680179316710367,13689.6,1.5858245653116415680179316710367
186,13839.5869113221267860702135040733891,13838.0,1.5869113221267860702135040733891
187,13988.7879922676975620611007848219468,13987.2,1.5879922676975620611007848219468
188,14138.7890674643403172005014627966159,14137.2,1.5890674643403172005014627966159
189,14289.5901369733839600887138949137485,14288.0,1.5901369733839600887138949137485
190,14441.1912008551909376059864519157356,14439.6,1.5912008551909376059864519157356
191,14593.5922591691776644574621370439383,14592.0,1.5922591691776644574621370439383
192,14746.7933119738344213520946098864712,14745.2,1.5933119738344213520946098864712
193,14900.7943593267447401673351996420055,14899.2,1.5943593267447401673351996420055
194,15055.5954012846042894900074772674703,15054.0,1.5954012846042894900074772674703
195,15211.1964379032392785171611977584832,15209.6,1.5964379032392785171611977584832
196,15367.5974692376243930620602698851875,15366.0,1.5974692376243930620602698851875
197,15524.7984953419002780958049534841820,15523.2,1.5984953419002780958049534841820
198,15682.7995162693905810437676339440098,15681.2,1.5995162693905810437676339440098
199,15841.6005320726185687299454030011034,15840.0,1.6005320726185687299454030011034
200,16001.2015428033233319708608398782828,15999.6,1.6015428033233319708608398782828
201,16161.6025485124755888591161566186901,16160.0,1.6025485124755888591161566186901
202,16322.8035492502931001787891183180396,16321.2,1.6035492502931001787891183180396
203,16484.8045450662557076758747451197147,16483.2,1.6045450662557076758747451197147
204,16647.6055360091200068697067965442831,16646.0,1.6055360091200068697067965442831
205,16811.2065221269336644444108102237699,16809.6,1.6065221269336644444108102237699
206,16975.6075034670493933155875091095366,16974.0,1.6075034670493933155875091095366
207,17140.8084800761385913222528248985689,17139.2,1.6084800761385913222528248985689
208,17306.8094520002046578478491561784704,17305.2,1.6094520002046578478491561784704
209,17473.6104192845959941987075079571195,17472.0,1.6104192845959941987075079571195
210,17641.2113819740186993244035799296703,17639.6,1.6113819740186993244035799296703
211,17809.6123401125489683312092469258807,17808.0,1.6123401125489683312092469258807
212,17978.8132937436452041115999293963920,17977.2,1.6132937436452041115999293963920
213,18148.8142429101598465672668296419705,18147.2,1.6142429101598465672668296419705
214,18319.6151876543509345047648506249367,18318.0,1.6151876543509345047648506249367
215,18491.2161280178933995175462486453803,18489.6,1.6161280178933995175462486453803
216,18663.6170640418901059205940627636189,18662.0,1.6170640418901059205940627636189
217,18836.8179957668826408128980119263806,18835.2,1.6179957668826408128980119263806
218,19010.8189232328618633610664387503091,19009.2,1.6189232328618633610664387503091
219,19185.6198464792782167026940982866773,19184.0,1.6198464792782167026940982866773
220,19361.2207655450518151083614054530863,19359.6,1.6207655450518151083614054530863
221,19537.6216804685823044406346344576320,19536.0,1.6216804685823044406346344576320
222,19714.8225912877585132490134549832320,19713.2,1.6225912877585132490134549832320
223,19892.8234980399678882090744945701687,19891.2,1.6234980399678882090744945701687
224,20071.6244007621057291185880396038019,20070.0,1.6244007621057291185880396038019
225,20251.2252994905842261669851635060558,20249.6,1.6252994905842261669851635060558
226,20431.6261942613413031825998835295716,20430.0,1.6261942613413031825998835295716
227,20612.8270851098492756739932117386477,20611.2,1.6270851098492756739932117386477
228,20794.8279720711233256563268899946750,20793.2,1.6279720711233256563268899946750
229,20977.6288551797298006033325070870466,20976.0,1.6288551797298006033325070870466
230,21161.2297344697943414075386482516458,21159.6,1.6297344697943414075386482516458
231,21345.6306099750098413428600662908127,21344.0,1.6306099750098413428600662908127
232,21530.8314817286442466521038884419894,21529.2,1.6314817286442466521038884419894
233,21716.8323497635481939677765877660502,21715.2,1.6323497635481939677765877660502
234,21903.6332141121625009448510990194414,21902.0,1.6332141121625009448510990194414
235,22091.2340748065255035193369315130300,22089.6,1.6340748065255035193369315130300
236,22279.6349318782802497448853824477795,22278.0,1.6349318782802497448853824477795
237,22468.8357853586815540922014877903298,22467.2,1.6357853586815540922014877903298
238,22658.8366352786029142187305180971539,22657.2,1.6366352786029142187305180971539
