Eigenstate,Energy,Kinetic Energy,Potential Energy
1,0.500000000468520046852202616079511713,0.0,0.500000000468520046852202616079511713
2,1.84623094070941743426510984400886112,1.2,0.64623094070941743426510984400886112
3,3.93633761868871266080246952620553164,3.2,0.73633761868871266080246952620553164
4,6.79966529652696315629487499881944870,6.0,0.79966529652696315629487499881944870
5,10.4480466077013354602741501408256202,9.6,0.8480466077013354602741501408256202
6,14.8870660470331948490568618697691390,14.0,0.8870660470331948490568618697691390
7,20.1197208959926994601693314910666674,19.2,0.9197208959926994601693314910666674
8,26.1477839409744404297830728078543645,25.2,0.9477839409744404297830728078543645
9,32.9723836809957920715997898428003058,32.0,0.9723836809957920715997898428003058
10,40.5942803702132059882540832836873179,39.6,0.9942803702132059882540832836873179
11,49.0140095787739557282278107114970221,48.0,1.0140095787739557282278107114970221
12,58.2319624019880613564113754332461017,57.2,1.0319624019880613564113754332461017
13,68.2484329699263131948761754091651818,67.2,1.0484329699263131948761754091651818
14,79.0636479802766822031028375248819169,78.0,1.0636479802766822031028375248819169
15,90.6777858141586552635954209499109216,89.6,1.0777858141586552635954209499109216
16,103.090989340993775065986256609733183,102.0,1.090989340993775065986256609733183
17,116.303374751967206502005270038641382,115.2,1.103374751967206502005270038641382
18,130.315037811033978119812960087696768,129.2,1.115037811033978119812960087696768
19,145.126058378022989023472290319455866,144.0,1.126058378022989023472290319455866
20,160.736503746270966308666221531315751,159.6,1.136503746270966308666221531315751
21,177.146431148704177691316116871279149,176.0,1.146431148704177691316116871279149
22,194.355889668997183303623787445938065,193.2,1.155889668997183303623787445938065
23,212.364921719509369375404672094638738,211.2,1.164921719509369375404672094638738
24,231.173564198685377554113810223887080,230.0,1.173564198685377554113810223887080
25,250.781849407851037119704706348999897,249.6,1.181849407851037119704706348999897
26,271.189805785020957588340126654314661,270.0,1.189805785020957588340126654314661
27,292.397458497861108691030446362074847,291.2,1.197458497861108691030446362074847
28,314.404829927047863831511659343677172,313.2,1.204829927047863831511659343677172
29,337.211940063469955255919376410594607,336.0,1.211940063469955255919376410594607
30,360.818806837070301562222078206015345,359.6,1.218806837070301562222078206015345
31,385.225446390978729652158986476138303,384.0,1.225446390978729652158986476138303
32,410.431873311508713625565622432879735,409.2,1.231873311508713625565622432879735
33,436.438100822281605299602564476519957,435.2,1.238100822281605299602564476519957
34,463.244140948991284759480527715953687,462.0,1.244140948991284759480527715953687
35,490.850004659982964274300956299152152,489.6,1.250004659982964274300956299152152
36,519.255701986786400027611361558776278,518.0,1.255701986786400027611361558776278
37,548.461242127939681559610610720390136,547.2,1.261242127939681559610610720390136
38,578.466633538809350071623165104513785,577.2,1.266633538809350071623165104513785
39,609.271884009614748091496243646061497,608.0,1.271884009614748091496243646061497
40,640.877000733468682213127674632017603,639.6,1.277000733468682213127674632017603
41,673.281990365929730348123594045370158,672.0,1.281990365929730348123594045370158
42,706.486859077306532324911070236054677,705.2,1.286859077306532324911070236054677
43,740.491612598747916324789263213519490,739.2,1.291612598747916324789263213519490
44,775.296256262984619628163067756360625,774.0,1.296256262984619628163067756360625
45,810.900795040450792574620577998962321,809.6,1.300795040450792574620577998962321
46,847.305233571400338357453006310376664,846.0,1.305233571400338357453006310376664
47,884.509576194539664660506921655796050,883.2,1.309576194539664660506921655796050
48,922.513826972620836780708655032273329,921.2,1.313826972620836780708655032273329
49,961.317989715374459335459604061217342,960.0,1.317989715374459335459604061217342
50,1000.92206800010749094025188181928590,999.6,1.32206800010749094025188181928590
51,1041.32606519024572927922446262427663,1040.0,1.32606519024572927922446262427663
52,1082.52998445206235877695308859690682,1081.2,1.32998445206235877695308859690682
53,1124.53382876980150296112129804552155,1123.2,1.33382876980150296112129804552155
54,1167.33760095937816247418510795859830,1166.0,1.33760095937816247418510795859830
55,1210.94130368081244419956967798686248,1209.6,1.34130368081244419956967798686248
56,1255.34493944953591239776424853367791,1254.0,1.34493944953591239776424853367791
57,1300.54851064669069378252779928747135,1299.2,1.34851064669069378252779928747135
58,1346.55201952852717128110488245255667,1345.2,1.35201952852717128110488245255667
59,1393.35546823499334727505649499890532,1392.0,1.35546823499334727505649499890532
60,1440.95885879759793261060422585017734,1439.6,1.35885879759793261060422585017734
61,1489.36219314661965343987804973917603,1488.0,1.36219314661965343987804973917603
62,1538.56547311772696694935044188187148,1537.2,1.36547311772696694935044188187148
63,1588.56870045806513514272540803695236,1587.2,1.36870045806513514272540803695236
64,1639.37187683186129336564408277555302,1638.0,1.37187683186129336564408277555302
65,1690.97500382559261541961372204178855,1689.6,1.37500382559261541961372204178855
66,1743.37808295275782977353036984373345,1742.0,1.37808295275782977353036984373345
67,1796.58111565828807908986566085010113,1795.2,1.38111565828807908986566085010113
68,1850.58410332262935912180439257976364,1849.2,1.38410332262935912180439257976364
69,1905.38704726552546036692415745714505,1904.0,1.38704726552546036692415745714505
70,1960.98994874952740759476989979726578,1959.6,1.38994874952740759476989979726578
71,2017.39280898325279366198606058525565,2016.0,1.39280898325279366198606058525565
72,2074.59562912441610578631640162641511,2073.2,1.39562912441610578631640162641511
73,2132.59841028264908944442278672629564,2131.2,1.39841028264908944442278672629564
74,2191.40115352212837620995471625811825,2190.0,1.40115352212837620995471625811825
75,2251.00385986402597074724356057114836,2249.6,1.40385986402597074724356057114836
76,2311.40653028879674261927891065835928,2310.0,1.40653028879674261927891065835928
77,2372.60916573831576617025474152110409,2371.2,1.40916573831576617025474152110409
78,2434.61176711787718594483608974125418,2433.2,1.41176711787718594483608974125418
79,2497.41433529806523828635398649574949,2496.0,1.41433529806523828635398649574949
80,2561.01687111650712163053891624631630,2559.6,1.41687111650712163053891624631630
81,2625.41937537951655866998110309098635,2624.0,1.41937537951655866998110309098635
82,2690.62184886363613211400178427401014,2689.2,1.42184886363613211400178427401014
83,2756.62429231708578703488552808477856,2755.2,1.42429231708578703488552808477856
84,2823.42670646112426849976363112214770,2822.0,1.42670646112426849976363112214770
85,2891.02909199132970391132239288873787,2889.6,1.42909199132970391132239288873787
86,2959.43144957880502361517895454507241,2958.0,1.43144957880502361517895454507241
87,3028.63377987131345586103152544313130,3027.2,1.43377987131345586103152544313130
88,3098.63608349434890882701461040091171,3097.2,1.43608349434890882701461040091171
89,3169.43836105214566891459476603359985,3168.0,1.43836105214566891459476603359985
90,3241.04061312863150130467981361082115,3239.6,1.44061312863150130467981361082115
91,3313.44284028832791731363208025404525,3312.0,1.44284028832791731363208025404525
92,3386.64504307720108479040660529384904,3385.2,1.44504307720108479040660529384904
93,3460.64722202346659554105306177448769,3459.2,1.44722202346659554105306177448769
94,3535.44937763835106083815629917666568,3534.0,1.44937763835106083815629917666568
95,3611.05151041681328491883768720915048,3609.6,1.45151041681328491883768720915048
96,3687.45362083822756455290084616066259,3686.0,1.45362083822756455290084616066259
97,3764.65570936703147842068003021124288,3763.2,1.45570936703147842068003021124288
98,3842.65777645334035716593232330169898,3841.2,1.45777645334035716593232330169898
99,3921.45982253353047151701769458875245,3920.0,1.45982253353047151701769458875245
100,4001.06184803079282952927746303992078,3999.6,1.46184803079282952927746303992078
101,4081.46385335565934469746101805497511,4080.0,1.46385335565934469746101805497511
102,4162.66583890650301111242151324078780,4161.2,1.46583890650301111242151324078780
103,4244.66780507001361392278367940779874,4243.2,1.46780507001361392278367940779874
104,4327.46975222165039609767726167966010,4326.0,1.46975222165039609767726167966010
105,4411.07168072607300941296967628034446,4409.6,1.47168072607300941296967628034446
106,4495.47359093755198681929634048648342,4494.0,1.47359093755198681929634048648342
107,4580.67548320035989526833731719932467,4579.2,1.47548320035989526833731719932467
108,4666.67735784914424883434247434988200,4665.2,1.47735784914424883434247434988200
109,4753.47921520928319337449244783174206,4752.0,1.47921520928319337449244783174206
110,4841.08105559722491155166794532108813,4839.6,1.48105559722491155166794532108813
111,4929.48287932081163118212556067442215,4928.0,1.48287932081163118212556067442215
112,5018.68468667958907043706837501913140,5017.2,1.48468667958907043706837501913140
113,5108.68647796510209789143053425241485,5107.2,1.48647796510209789143053425241485
114,5199.48825346117733665557334950061195,5198.0,1.48825346117733665557334950061195
115,5291.09001344419340137721989592689715,5289.6,1.49001344419340137721989592689715
116,5383.49175818333940856944657008500637,5382.0,1.49175818333940856944657008500637
117,5476.69348794086236900768841940462330,5475.2,1.49348794086236900768841940462330
118,5570.69520297230402990775449878963318,5569.2,1.49520297230402990775449878963318
119,5665.49690352672770088328618099646002,5664.0,1.49690352672770088328618099646002
120,5761.09858984693557183901291564721161,5759.6,1.49858984693557183901291564721161
121,5857.50026216967699268907659548686267,5856.0,1.50026216967699268907659548686267
122,5954.70192072584816587673027871303147,5953.2,1.50192072584816587673027871303147
123,6052.70356574068367047895404562827692,6051.2,1.50356574068367047895404562827692
124,6151.50519743394021899989892597222485,6150.0,1.50519743394021899989892597222485
125,6251.10681602007301839099175716210697,6249.6,1.50681602007301839099175716210697
126,6351.50842170840509163841867420707098,6350.0,1.50842170840509163841867420707098
127,6452.71001470328989568101609355240634,6451.2,1.51001470328989568101609355240634
128,6554.71159520426754883460439056436143,6553.2,1.51159520426754883460439056436143
129,6657.51316340621496882576943075215626,6656.0,1.51316340621496882576943075215626
130,6761.11471949949020415643862571555552,6759.6,1.51471949949020415643862571555552
131,6865.51626367007122611670147992369752,6864.0,1.51626367007122611670147992369752
132,6970.71779609968943378635019453122414,6969.2,1.51779609968943378635019453122414
133,7076.71931696595811258425718766089858,7075.2,1.51931696595811258425718766089858
134,7183.52082644249607564899765504688532,7182.0,1.52082644249607564899765504688532
135,7291.12232469904669922602546729668167,7289.6,1.52232469904669922602546729668167
136,7399.52381190159255954943064865105613,7398.0,1.52381190159255954943064865105613
137,7508.72528821246586539863973972098826,7507.2,1.52528821246586539863973972098826
138,7618.72675379045486689868863406491069,7617.2,1.52675379045486689868863406491069
139,7729.52820879090641902708117059408978,7728.0,1.52820879090641902708117059408978
140,7841.12965336582486284456749734179687,7839.6,1.52965336582486284456749734179687
141,7953.53108766396738290998107187631523,7952.0,1.53108766396738290998107187631523
142,8066.73251183093599126632371899524597,8065.2,1.53251183093599126632371899524597
143,8180.73392600926627973543119710803570,8179.2,1.53392600926627973543119710803570
144,8295.53533033851307507925027437104532,8294.0,1.53533033851307507925027437104532
145,8411.13672495533312739833560803231768,8409.6,1.53672495533312739833560803231768
146,8527.53810999356495426978177933637293,8526.0,1.53810999356495426978177933637293
147,8644.73948558430595492420009886876612,8643.2,1.53948558430595492420009886876612
148,8762.74085185598690980369375831036130,8761.2,1.54085185598690980369375831036130
149,8881.54220893444396731510276979456066,8880.0,1.54220893444396731510276979456066
150,9001.14355694298822143310925747494292,8999.6,1.54355694298822143310925747494292
151,9121.54489600247297608159561598719332,9120.0,1.54489600247297608159561598719332
152,9242.74622623135878660698183584111912,9241.2,1.54622623135878660698183584111912
153,9364.74754774577636730824776343538031,9363.2,1.54754774577636730824776343538031
154,9487.54886065958744893834542052419923,9486.0,1.54886065958744893834542052419923
155,9611.15016508444366442894029873613062,9609.6,1.55016508444366442894029873613062
156,9735.55146112984354072127839156974009,9734.0,1.55146112984354072127839156974009
157,9860.75274890318766776672625037147498,9859.2,1.55274890318766776672625037147498
158,9986.75402850983211653255724499780126,9985.2,1.55402850983211653255724499780126
159,10113.5553000531401697038363864090980,10112.0,1.5553000531401697038363864090980
160,10241.1565636345324314375251338446576,10239.6,1.5565636345324314375251338446576
161,10369.5578193535353746840898397275731,10368.0,1.5578193535353746840898397275731
162,10498.7590673078283855574936360807037,10497.2,1.5590673078283855574936360807037
163,10628.7603075932893596272648430691006,10627.2,1.5603075932893596272648430691006
164,10759.5615403040389047902927629132203,10758.0,1.5615403040389047902927629132203
165,10891.1627655324831993442919869836322,10889.6,1.5627655324831993442919869836322
166,11023.5639833693555558009415808515622,11022.0,1.5639833693555558009415808515622
167,11156.7651939037567376941670724598860,11155.2,1.5651939037567376941670724598860
168,11290.7663972231940720963766111653317,11289.2,1.5663972231940720963766111653317
169,11425.5675934136194029294035975483477,11424.0,1.5675934136194029294035975483477
170,11561.1687825594659248387600035003924,11559.6,1.5687825594659248387600035003924
171,11697.5699647436839378519634445884331,11696.0,1.5699647436839378519634445884331
172,11834.7711400477755607147810087086303,11833.2,1.5711400477755607147810087086303
173,11972.7723085518284383357898695510946,11971.2,1.5723085518284383357898695510946
174,12111.5734703345484792117824929015690,12110.0,1.5734703345484792117824929015690
175,12251.1746254732916568489206869396638,12249.6,1.5746254732916568489206869396638
176,12391.5757740440949049169686469476164,12390.0,1.5757740440949049169686469476164
177,12532.7769161217061394291626338718887,12531.2,1.5769161217061394291626338718887
178,12674.7780517796134371352102750609713,12673.2,1.5780517796134371352102750609713
179,12817.5791810900733966065870759060206,12816.0,1.5791810900733966065870759060206
180,12961.1803041241387129959145287017206,12959.6,1.5803041241387129959145287017206
181,13105.5814209516849891556020279981745,13104.0,1.5814209516849891556020279981745
182,13250.7825316414368108489848867507467,13249.2,1.5825316414368108489848867507467
183,13396.7836362609931091423963043503905,13395.2,1.5836362609931091423963043503905
184,13543.5847348768518342602129497292952,13542.0,1.5847348768518342602129497292952
185,13691.1858275544339627529284586252870,13689.6,1.5858275544339627529284586252870
186,13839.5869143581068589902514403497514,13838.0,1.5869143581068589902514403497514
187,13988.7879953512070148246408631263916,13987.2,1.5879953512070148246408631263916
188,14138.7890705960621829080825340826533,14137.2,1.5890705960621829080825340826533
189,14289.5901401540129274413324014106765,14288.0,1.5901401540129274413324014106765
190,14441.1912040854336080565491531038814,14439.6,1.5912040854336080565491531038814
191,14593.5922624497528161075034764617705,14592.0,1.5922624497528161075034764617705
192,14746.7933153054732798030387426911048,14745.2,1.5933153054732798030387426911048
193,14900.7943627101912565430431754733148,14899.2,1.5943627101912565430431754733148
194,15055.5954047206154258551392577936302,15054.0,1.5954047206154258551392577936302
195,15211.1964413925853009239375288207234,15209.6,1.5964413925853009239375288207234
196,15367.5974727810891724664520999048697,15366.0,1.5974727810891724664520999048697
197,15524.7984989402815993929367597048389,15523.2,1.5984989402815993929367597048389
198,15682.7995199235004604814248264659565,15681.2,1.5995199235004604814248264659565
199,15841.6005357832835799686020148738528,15840.0,1.6005357832835799686020148738528
200,16001.2015465713849410685278360181395,15999.6,1.6015465713849410685278360181395
201,16161.6025523387904984696279586086398,16160.0,1.6025523387904984696279586086398
202,16322.8035531357336032628902738255905,16321.2,1.6035531357336032628902738255905
203,16484.8045490117100510356672188157208,16483.2,1.6045490117100510356672188157208
204,16647.6055400154927648287049561008373,16646.0,1.6055400154927648287049561008373
205,16811.2065261951461230076061601623212,16809.6,1.6065261951461230076061601623212
206,16975.6075075980399451566480379261388,16974.0,1.6075075980399451566480379261388
207,17140.8084842708631419582023218757154,17139.2,1.6084842708631419582023218757154
208,17306.8094562596370433754036294186547,17305.2,1.6094562596370433754036294186547
209,17473.6104236097284109808625658510055,17472.0,1.6104236097284109808625658510055
210,17641.2113863658621460309150785940205,17639.6,1.6113863658621460309150785940205
211,17809.6123445721337007523308789472406,17808.0,1.6123445721337007523308789472406
212,17978.8132982720212031808347872450682,17977.2,1.6132982720212031808347872450682
213,18148.8142475083973000460414717270361,18147.2,1.6142475083973000460414717270361
214,18319.6151923235407327998261549463529,18318.0,1.6151923235407327998261549463529
215,18491.2161327591476461205911807116394,18489.6,1.6161327591476461205911807116394
216,18663.6170688563426429791883277224906,18662.0,1.6170688563426429791883277224906
217,18836.8180006556895903621882204861763,18835.2,1.6180006556895903621882204861763
218,19010.8189281972021847671407969433289,19009.2,1.6189281972021847671407969433289
219,19185.6198515203542808908039522244765,19184.0,1.6198515203542808908039522244765
220,19361.2207706640899961726038023616002,19359.6,1.6207706640899961726038023616002
221,19537.6216856668335892561330065109961,19536.0,1.6216856668335892561330065109961
222,19714.8225965664991297332542810341073,19713.2,1.6225965664991297332542810341073
223,19892.8235034004999529058506056557471,19891.2,1.6235034004999529058506056557471
224,20071.6244062057579148060562617103200,20070.0,1.6244062057579148060562617103200
225,20251.2253050187124502207409987606082,20249.6,1.6253050187124502207409987606082
226,20431.6261998753294374554525721768577,20430.0,1.6261998753294374554525721768577
227,20612.8270908111098786864002331581343,20611.2,1.6270908111098786864002331581343
228,20794.8279778610983979252437299110260,20793.2,1.6279778610983979252437299110260
229,20977.6288610598915639726937623219479,20976.0,1.6288610598915639726937623219479
230,21161.2297404416460432807735560445622,21159.6,1.6297404416460432807735560445622
231,21345.6306160400865847568139084764777,21344.0,1.6306160400865847568139084764777
232,21530.8314878885138471726827997572051,21529.2,1.6314878885138471726827997572051
233,21716.8323560198120644305532704553753,21715.2,1.6323560198120644305532704553753
234,21903.6332204664565651089504797211503,21902.0,1.6332204664565651089504797211503
235,22091.2340812605211397502773057427320,22089.6,1.6340812605211397502773057427320
236,22279.6349384336852658917328300625142,22278.0,1.6349384336852658917328300625142
237,22468.8357920172411947766805932967385,22467.2,1.6357920172411947766805932967385
238,22658.8366420421009018087935476824445,22657.2,1.6366420421009018087935476824445
