Eigenstate,Energy,Kinetic Energy,Potential Energy
1,0.500000000187452870943863719157858132,0.0,0.500000000187452870943863719157858132
2,1.84623093887471711300530132161720344,1.2,0.64623093887471711300530132161720344
3,3.93633761329924482762949939168974858,3.2,0.73633761329924482762949939168974858
4,6.79966528530079286528998121530383277,6.0,0.79966528530079286528998121530383277
5,10.4480465882541541367995625258807354,9.6,0.8480465882541541367995625258807354
6,14.8870660169382318586527249087441657,14.0,0.8870660169382318586527249087441657
7,20.1197208528026784213585814349421693,19.2,0.9197208528026784213585814349421693
8,26.1477838822306264788274413594517567,25.2,0.9477838822306264788274413594517567
9,32.9723836042320982025051327269674020,32.0,0.9723836042320982025051327269674020
10,40.5942802729581843354877347248303932,39.6,0.9942802729581843354877347248303932
11,49.0140094585517929500079210694737219,48.0,1.0140094585517929500079210694737219
12,58.2319622563190662913738296644192477,57.2,1.0319622563190662913738296644192477
13,68.2484327963271278742947255945895435,67.2,1.0484327963271278742947255945895435
14,79.0636477762603334129486581352209419,78.0,1.0636477762603334129486581352209419
15,90.6777855772345096681267721201499246,89.6,1.0777855772345096681267721201499246
16,103.090989068667433504252365627265967,102.0,1.090989068667433504252365627265967
17,116.303374441740358464327748497702547,115.2,1.103374441740358464327748497702547
18,130.315037460404229263984687089802162,129.2,1.115037460404229263984687089802162
19,145.126057984483669860380353708082189,144.0,1.126057984483669860380353708082189
20,160.736503307310927342844795417193595,159.6,1.136503307310927342844795417193595
21,177.146430661807574537636047846979490,176.0,1.146430661807574537636047846979490
22,194.355889131643254176095889363453552,193.2,1.155889131643254176095889363453552
23,212.364921129172206608324857055629139,211.2,1.164921129172206608324857055629139
24,231.173563552833694323761370429270711,230.0,1.173563552833694323761370429270711
25,250.781848703947930198999894605683560,249.6,1.181848703947930198999894605683560
26,271.189805020523666733376415828939722,270.0,1.189805020523666733376415828939722
27,292.397457670220773093254891949364209,291.2,1.197457670220773093254891949364209
28,314.404829033709275950676077736084781,313.2,1.204829033709275950676077736084781
29,337.211939101871312262426402149802734,336.0,1.211939101871312262426402149802734
30,360.818805804642954553567716965446857,359.6,1.218805804642954553567716965446857
31,385.225445285146930760327157591307137,384.0,1.225445285146930760327157591307137
32,410.431872129689361095982218594495703,409.2,1.231872129689361095982218594495703
33,436.438099561883986594475820737352750,435.2,1.238099561883986594475820737352750
34,463.244139607416817716825381083752314,462.0,1.244139607416817716825381083752314
35,490.850003234624936337078377551647793,489.6,1.250003234624936337078377551647793
36,519.255700475029705544059071531512191,518.0,1.255700475029705544059071531512191
37,548.461240527160557145153745538953084,547.2,1.261240527160557145153745538953084
38,578.466631846375108014109449774827711,577.2,1.266631846375108014109449774827711
39,609.271882222883507774432718820497550,608.0,1.271882222883507774432718820497550
40,640.876998849789099525753110600005276,639.6,1.276998849789099525753110600005276
41,673.281988382640725046266156815698396,672.0,1.281988382640725046266156815698396
42,706.486856991737013302448318723418403,705.2,1.286856991737013302448318723418403
43,740.491610408216504751989816956065412,739.2,1.291610408216504751989816956065412
44,775.296253964799369910123453001192347,774.0,1.296253964799369910123453001192347
45,810.900792631908911080319827449567119,809.6,1.300792631908911080319827449567119
46,847.305231049787899867555762031375375,846.0,1.305231049787899867555762031375375
47,884.509573557131326479893356694590387,883.2,1.309573557131326479893356694590387
48,922.513824216679550459747551357918339,921.2,1.313824216679550459747551357918339
49,961.317986838151179942231448153793014,960.0,1.317986838151179942231448153793014
50,1000.92206499884088382424030467810295,999.6,1.32206499884088382424030467810295
51,1041.32606206216187426540089143468707,1040.0,1.32606206216187426540089143468707
52,1082.52998119437445172766162923892284,1081.2,1.32998119437445172766162923892284
53,1124.53382537970955464171034844782102,1123.2,1.33382537970955464171034844782102
54,1167.33759743406869465691505768912762,1166.0,1.33759743406869465691505768912762
55,1210.94130001745818293894112006949911,1209.6,1.34130001745818293894112006949911
56,1255.34493564529547840904850372786060,1254.0,1.34493564529547840904850372786060
57,1300.54850669870828985393246220863363,1299.2,1.34850669870828985393246220863363
58,1346.55201543393226664866355981763887,1345.2,1.35201543393226664866355981763887
59,1393.35546399090035888799153704741094,1392.0,1.35546399090035888799153704741094
60,1440.95885440110590321356429971344060,1439.6,1.35885440110590321356429971344060
61,1489.36218859481192639709763305974383,1488.0,1.36218859481192639709763305974383
62,1538.56546840767085773440949509442805,1537.2,1.36546840767085773440949509442805
63,1588.56869558681159941620444352759759,1587.2,1.36869558681159941620444352759759
64,1639.37187179644459156156579141155830,1638.0,1.37187179644459156156579141155830
65,1690.97499862302997376013577642364826,1689.6,1.37499862302997376013577642364826
66,1743.37807758004909762990484423757253,1742.0,1.37807758004909762990484423757253
67,1796.58111011241538260620261092074479,1795.2,1.38111011241538260620261092074479
68,1850.58409760055675101667165575113081,1849.2,1.38409760055675101667165575113081
69,1905.38704136419856582627671082296969,1904.0,1.38704136419856582627671082296969
70,1960.98994266587306616813477397847177,1959.6,1.38994266587306616813477397847177
71,2017.39280271417869707222175192079618,2016.0,1.39280271417869707222175192079618
72,2074.59562266681043156162756111676506,2073.2,1.39562266681043156162756111676506
73,2132.59840363338013027963068828847899,2131.2,1.39840363338013027963068828847899
74,2191.40114667804416496230765677651031,2190.0,1.40114667804416496230765677651031
75,2251.00385282195390097029184025896941,2249.6,1.40385282195390097029184025896941
76,2311.40652304554318453653919936149652,2310.0,1.40652304554318453653919936149652
77,2372.60915829066567798854292647289715,2371.2,1.40915829066567798854292647289715
78,2434.61175946259372040525794309332446,2433.2,1.41175946259372040525794309332446
79,2497.41432743188934434900580448136460,2496.0,1.41432743188934434900580448136460
80,2561.01686303615714118698587562820635,2559.6,1.41686303615714118698587562820635
81,2625.41936708168781817554492871098270,2624.0,1.41936708168781817554492871098270
82,2690.62184034500052902980346571114348,2689.2,1.42184034500052902980346571114348
83,2756.62428357429137096744975598144397,2755.2,1.42428357429137096744975598144397
84,2823.42669749079481692379764615348095,2822.0,1.42669749079481692379764615348095
85,2891.02908279006429235903230297130058,2889.6,1.42908279006429235903230297130058
86,2959.43144014317759021317992388253853,2958.0,1.43144014317759021317992388253853
87,3028.63377019787236009354053706428882,3027.2,1.43377019787236009354053706428882
88,3098.63607357961648440158787928413457,3097.2,1.43607357961648440158787928413457
89,3169.43835089261777060418167432143844,3168.0,1.43835089261777060418167432143844
90,3241.04060272077704563721015659644023,3239.6,1.44060272077704563721015659644023
91,3313.44282962858841697773243734921876,3312.0,1.44282962858841697773243734921876
92,3386.64503216199017662315286400377595,3385.2,1.44503216199017662315286400377595
93,3460.64721084916956196090674104121216,3459.2,1.44721084916956196090674104121216
94,3535.44936620132434458340079265065697,3534.0,1.44936620132434458340079265065697
95,3611.05149871338399694892515072673134,3609.6,1.45149871338399694892515072673134
96,3687.45360886469298496713971816841662,3686.0,1.45360886469298496713971816841662
97,3764.65569711965855024563145354562875,3763.2,1.45569711965855024563145354562875
98,3842.65776392836517285974528736524495,3841.2,1.45776392836517285974528736524495
99,3921.45980972715775203570757222765769,3920.0,1.45980972715775203570757222765769
100,4001.06183493919539579664501644035841,3999.6,1.46183493919539579664501644035841
101,4081.46383997497758131695262823705501,4080.0,1.46383997497758131695262823705501
102,4162.66582523284432215574428391035074,4161.2,1.46582523284432215574428391035074
103,4244.66779109945187062651075602338188,4243.2,1.46779109945187062651075602338188
104,4327.46973795022537629540305041320760,4326.0,1.46973795022537629540305041320760
105,4411.07166614978982852680312830403145,4409.6,1.47166614978982852680312830403145
106,4495.47357605238052023060599044770751,4494.0,1.47357605238052023060599044770751
107,4580.67546800223419188368336384885176,4579.2,1.47546800223419188368336384885176
108,4666.67734233396193565844847127578294,4665.2,1.47734233396193565844847127578294
109,4753.47919937290487089791150804539540,4752.0,1.47919937290487089791150804539540
110,4841.08103943547353975649233495938195,4839.6,1.48103943547353975649233495938195
111,4929.48286282947190596466298105689771,4928.0,1.48286282947190596466298105689771
112,5018.68466985440679024186294767899357,5017.2,1.48466985440679024186294767899357
113,5108.68646080178352034633842022964294,5107.2,1.48646080178352034633842022964294
114,5199.48823595538852499280578507759087,5198.0,1.48823595538852499280578507759087
115,5291.08999559155956042033976276284428,5289.6,1.48999559155956042033976276284428
116,5383.49173997944421006124287510868050,5382.0,1.49173997944421006124287510868050
117,5476.69346938124726604864964689902914,5475.2,1.49346938124726604864964689902914
118,5570.69518405246756026951825087547904,5569.2,1.49518405246756026951825087547904
119,5665.49688424212477895594908574232058,5664.0,1.49688424212477895594908574232058
120,5761.09857019297676896554019010224448,5759.6,1.49857019297676896554019010224448
121,5857.50024214172780563424877303157402,5856.0,1.50024214172780563424877303157402
122,5954.70190031922827317209978987998205,5953.2,1.50190031922827317209978987998205
123,6052.70354495066617637915549130884094,6051.2,1.50354495066617637915549130884094
124,6151.50517625575088477935491724671096,6150.0,1.50517625575088477935491724671096
125,6251.10679444888948070357527183941789,6249.6,1.50679444888948070357527183941789
126,6351.50839973935606765597302624504838,6350.0,1.50839973935606765597302624504838
127,6452.70999233145437471978149600148729,6451.2,1.50999233145437471978149600148729
128,6554.71157242467397017155749067286193,6553.2,1.51157242467397017155749067286193
129,6657.51314021384038539963508917633320,6656.0,1.51314021384038539963508917633320
130,6761.11469588925943184068395226867464,6759.6,1.51469588925943184068395226867464
131,6865.51623963685597824415613484172351,6864.0,1.51623963685597824415613484172351
132,6970.71777163830744059721062592261799,6969.2,1.51777163830744059721062592261799
133,7076.71929207117222526112420463811698,7075.2,1.51929207117222526112420463811698
134,7183.52080110901335459424760403165901,7182.0,1.52080110901335459424760403165901
135,7291.12229892151748622822650638177772,7289.6,1.52229892151748622822650638177772
136,7399.52378567460953347668190499059351,7398.0,1.52378567460953347668190499059351
137,7508.72526153056308104761068350820705,7507.2,1.52526153056308104761068350820705
138,7618.72672664810677661877728958790921,7617.2,1.52672664810677661877728958790921
139,7729.52818118252687672947238329459497,7728.0,1.52818118252687672947238329459497
140,7841.12962528576610999605145234722506,7839.6,1.52962528576610999605145234722506
141,7953.53105910651901610117991186931891,7952.0,1.53105910651901610117991186931891
142,8066.73248279032391093345559330847194,8065.2,1.53248279032391093345559330847194
143,8180.73389647965161960391386849595130,8179.2,1.53389647965161960391386849595130
144,8295.53530031399111188629123509535956,8294.0,1.53530031399111188629123509535956
145,8411.13669442993217044017011243420207,8409.6,1.53669442993217044017011243420207
146,8527.53807896124521430738776345370276,8526.0,1.53807896124521430738776345370276
147,8644.73945403895839196912833071238066,8643.2,1.53945403895839196912833071238066
148,8762.74081979143205929309476299489640,8761.2,1.54081979143205929309476299489640
149,8881.54217634443074417209003499171448,8880.0,1.54217634443074417209003499171448
150,9001.14352382119270149526667365234652,8999.6,1.54352382119270149526667365234652
151,9121.54486234249715436668945072725159,9120.0,1.54486234249715436668945072725159
152,9242.74619202672931187077828048120801,9241.2,1.54619202672931187077828048120801
153,9364.74751298994325233473106386070063,9363.2,1.54751298994325233473106386070063
154,9487.54882534592275598758170722021008,9486.0,1.54882534592275598758170722021008
155,9611.15012920624016525230837142185599,9609.6,1.55012920624016525230837142185599
156,9735.55142468031335053778660068890028,9734.0,1.55142468031335053778660068890028
157,9860.75271187546085257762816517678028,9859.2,1.55271187546085257762816517678028
158,9986.75399089695527313445719108259124,9985.2,1.55399089695527313445719108259124
159,10113.5552618480749777429127980664032,10112.0,1.5552618480749777429127980664032
160,10241.1565248301541768293853580297637,10239.6,1.5565248301541768293853580297637
161,10369.5577799426314437050811133476643,10368.0,1.5577799426314437050811133476643
162,10498.7590272830967288940033113752577,10497.2,1.5590272830967288940033113752577
163,10628.7602669473369256496435513152683,10627.2,1.5602669473369256496435513152683
164,10759.5614990293800412974867666012675,10758.0,1.5614990293800412974867666012675
165,10891.1627236215380230040640057936200,10889.6,1.5627236215380230040640057936200
166,11023.5639408144482884886696803524464,11022.0,1.5639408144482884886696803524464
167,11156.7651506971140089106036266666667,11155.2,1.5651506971140089106036266666667
168,11290.7663533569431866214027848863714,11289.2,1.5663533569431866214027848863714
169,11425.5675488797865728447156000568249,11424.0,1.5675488797865728447156000568249
170,11561.1687373499744650275118266165129,11559.6,1.5687373499744650275118266165129
171,11697.5699188503524240576752382742157,11696.0,1.5699188503524240576752382742157
172,11834.7710934623159492152382727168077,11833.2,1.5710934623159492152382727168077
173,11972.7722612658441462602024065653541,11971.2,1.5722612658441462602024065653541
174,12111.5734223395324245010862501302326,12110.0,1.5734223395324245010862501302326
175,12251.1745767606242568297737680293768,12249.6,1.5745767606242568297737680293768
176,12391.5757246050420324296703865289927,12390.0,1.5757246050420324296703865289927
177,12532.7768659474170354183726463572766,12531.2,1.5768659474170354183726463572766
178,12674.7780008611185785799307953848514,12673.2,1.5780008611185785799307953848514
179,12817.5791294182823186323480934242982,12816.0,1.5791294182823186323480934242982
180,12961.1802516898377839774297065250038,12959.6,1.5802516898377839774297065250038
181,13105.5813677455351375822948001048244,13104.0,1.5813677455351375822948001048244
182,13250.7824776539712026886824724649157,13249.2,1.5824776539712026886824724649157
183,13396.7835814826147744000871824771494,13395.2,1.5835814826147744000871824771494
184,13543.5846792978312413890362307901452,13542.0,1.5846792978312413890362307901452
185,13691.1857711649065395334291754104018,13689.6,1.5857711649065395334291754104018
186,13839.5868571480704584513674804483291,13838.0,1.5868571480704584513674804483291
187,13988.7879373105193247358059218766277,13987.2,1.5879373105193247358059218766277
188,14138.7890117144380773261851880193047,14137.2,1.5890117144380773261851880193047
189,14289.5900804210217587490023139929532,14288.0,1.5900804210217587490023139929532
190,14441.1911434904964378792781579587027,14439.6,1.5911434904964378792781579587027
191,14593.5922009821395834463783301521650,14592.0,1.5922009821395834463783301521650
192,14746.7932529542999046673108589376945,14745.2,1.5932529542999046673108589376945
193,14900.7942994644166773122912615740799,14899.2,1.5942994644166773122912615740799
194,15055.5953405690385685443201775975955,15054.0,1.5953405690385685443201775975955
195,15211.1963763238419784661167906427252,15209.6,1.5963763238419784661167906427252
196,15367.5974067836489120673122884676975,15366.0,1.5974067836489120673122884676975
197,15524.7984320024443959482536676644513,15523.2,1.5984320024443959482536676644513
198,15682.7994520333934539834458554792718,15681.2,1.5994520333934539834458554792718
199,15841.6004669288576547595634560645687,15840.0,1.6004669288576547595634560645687
200,16001.2014767404112447293276287534295,15999.6,1.6014767404112447293276287534295
201,16161.6024815188568780587894537352267,16160.0,1.6024815188568780587894537352267
202,16322.8034813142409565453228747622229,16321.2,1.6034813142409565453228747622229
203,16484.8044761758685902622184096214847,16483.2,1.6044761758685902622184096214847
204,16647.6054661523181905459856648390201,16646.0,1.6054661523181905459856648390201
205,16811.2064512914557052929419259692279,16809.6,1.6064512914557052929419259692279
206,16975.6074316404485095850850823085665,16974.0,1.6074316404485095850850823085665
207,17140.8084072457789575172002909197766,17139.2,1.6084072457789575172002909197766
208,17306.8093781532576094479636260004002,17305.2,1.6093781532576094479636260004002
209,17473.6103444080361404192570579831842,17472.0,1.6103444080361404192570579831842
210,17641.2113060546199412407124672937069,17639.6,1.6113060546199412407124672937069
211,17809.6122631368804195998916359536437,17808.0,1.6122631368804195998916359536437
212,17978.8132156980670114267088320726879,17977.2,1.6132156980670114267088320726879
213,18148.8141637808189068915024789930442,18147.2,1.6141637808189068915024789930442
214,18319.6151074271765060139899031378497,18318.0,1.6151074271765060139899031378497
215,18491.2160466785926030909202624043192,18489.6,1.6160466785926030909202624043192
216,18663.6169815759433138985001688727141,18662.0,1.6169815759433138985001688727141
217,18836.8179121595387496302887558750111,18835.2,1.6179121595387496302887558750111
218,19010.8188384691334465447066960865276,19009.2,1.6188384691334465447066960865276
219,19185.6197605439365545968291500181793,19184.0,1.6197605439365545968291500181793
220,19361.2206784226217975643621480676022,19359.6,1.6206784226217975643621480676022
221,19537.6215921433372025719085403590023,19536.0,1.6215921433372025719085403590023
222,19714.8225017437146162127460860445723,19713.2,1.6225017437146162127460860445723
223,19892.8234072608790008308508302195447,19891.2,1.6234072608790008308508302195447
224,20071.6243087314575260244086905736455,20070.0,1.6243087314575260244086905736455
225,20251.2252061915884579293526928530477,20249.6,1.6252061915884579293526928530477
226,20431.6260996769298498229033202268692,20430.0,1.6260996769298498229033202268692
227,20612.8269892226680426920479271194451,20611.2,1.6269892226680426920479271194451
228,20794.8278748635259775792973448380255,20793.2,1.6278748635259775792973448380255
229,20977.6287566337713268600512330918564,20976.0,1.6287566337713268600512330918564
230,21161.2296345672244491400499200044633,21159.6,1.6296345672244491400499200044633
231,21345.6305086972661695644738587807604,21344.0,1.6305086972661695644738587807604
232,21530.8313790568453959499523964845904,21529.2,1.6313790568453959499523964845904
233,21716.8322456784865657273875820527443,21715.2,1.6322456784865657273875820527443
234,21903.6331085942969398441197859796865,21902.0,1.6331085942969398441197859796865
235,22091.2339678359737367990512325563920,22089.6,1.6339678359737367990512325563920
236,22279.6348234348111165120786432784212,22278.0,1.6348234348111165120786432784212
237,22468.8356754217070176506066016231522,22467.2,1.6356754217070176506066016231522
238,22658.8365238271698501468613394685077,22657.2,1.6365238271698501468613394685077
