Eigenstate,Energy,Kinetic Energy,Potential Energy
1,0.500000000019618651408245850686293597,0.0,0.500000000019618651408245850686293597
2,1.84623093777917488974803199020973866,1.2,0.64623093777917488974803199020973866
3,3.93633761008114190221607682466456165,3.2,0.73633761008114190221607682466456165
4,6.79966527859774907057328854494676664,6.0,0.79966527859774907057328854494676664
5,10.4480465766428835592779462267508763,9.6,0.8480465766428835592779462267508763
6,14.8870659989703954411840023988624793,14.0,0.8870659989703954411840023988624793
7,20.1197208270180723994867722636868887,19.2,0.9197208270180723994867722636868887
8,26.1477838471626625613221166602409911,25.2,0.9477838471626625613221166602409911
9,32.9723835584103335308605658124188465,32.0,0.9723835584103335308605658124188465
10,40.5942802149095886514998410854307827,39.6,0.9942802149095886514998410854307827
11,49.0140093868014212716039670036831596,48.0,1.0140093868014212716039670036831596
12,58.2319621693904286174113354170121187,57.2,1.0319621693904286174113354170121187
13,68.2484326927423939234437865450226017,67.2,1.0484326927423939234437865450226017
14,79.0636476545404423966978271482910603,78.0,1.0636476545404423966978271482910603
15,90.6777854358992227445297732307664661,89.6,1.0777854358992227445297732307664661
16,103.090988906235350197978967596086174,102.0,1.090988906235350197978967596086174
17,116.303374256728909618295172178917326,115.2,1.103374256728909618295172178917326
18,130.315037251329654223157421130555590,129.2,1.115037251329654223157421130555590
19,145.126057749860982764158640535742854,144.0,1.126057749860982764158640535742854
20,160.736503045653875704351991705323129,159.6,1.136503045653875704351991705323129
21,177.146430371628592234928321576840791,176.0,1.146430371628592234928321576840791
22,194.355888811453410308627441646850575,193.2,1.155888811453410308627441646850575
23,212.364920777481151232877050295911434,211.2,1.164920777481151232877050295911434
24,231.173563168149601790457439090269728,230.0,1.173563168149601790457439090269728
25,250.781848284777440607720187785109009,249.6,1.181848284777440607720187785109009
26,271.189804565371825891680651466335932,270.0,1.189804565371825891680651466335932
27,292.397457177590971258527376124308482,291.2,1.197457177590971258527376124308482
28,314.404828502103185568586770041316939,313.2,1.204828502103185568586770041316939
29,337.211938529788824862383328878966479,336.0,1.211938529788824862383328878966479
30,360.818805190582116923907550573955255,359.6,1.218805190582116923907550573955255
31,385.225444627603880497670001377201541,384.0,1.225444627603880497670001377201541
32,410.431871427158261601790126803302215,409.2,1.231871427158261601790126803302215
33,436.438098812856961575533305023854449,435.2,1.238098812856961575533305023854449
34,463.244138810383885233781351449862232,462.0,1.244138810383885233781351449862232
35,490.850002388073942435404241149584714,489.6,1.250002388073942435404241149584714
36,519.255699577446257494100120234245382,518.0,1.255699577446257494100120234245382
37,548.461239577027956311876262823800288,547.2,1.261239577027956311876262823800288
38,578.466630842174282372302512868763104,577.2,1.266630842174282372302512868763104
39,609.271881163092944081232286352842013,608.0,1.271881163092944081232286352842013
40,640.876997732884775159207328198714972,639.6,1.276997732884775159207328198714972
41,673.281987207096039516095586881379455,672.0,1.281987207096039516095586881379455
42,706.486855756022719437050547417844204,705.2,1.286855756022719437050547417844204
43,740.491609110800639564000651694460411,739.2,1.291609110800639564000651694460411
44,775.296252604147185141403726587970935,774.0,1.296252604147185141403726587970935
45,810.900791206482803426029754696469464,809.6,1.300791206482803426029754696469464
46,847.305229558047340877963242970014782,846.0,1.305229558047340877963242970014782
47,884.509571997532792137703013425697817,883.2,1.309571997532792137703013425697817
48,922.513822587676450430004326059822941,921.2,1.313822587676450430004326059822941
49,961.317985138193786491224563522225104,960.0,1.317985138193786491224563522225104
50,1000.92206322637626040329125421152624,999.6,1.32206322637626040329125421152624
51,1041.32606021563380375494781626222522,1040.0,1.32606021563380375494781626222522
52,1082.52997927222336433664067109577497,1081.2,1.32997927222336433664067109577497
53,1124.53382338037245545687185353024746,1123.2,1.33382338037245545687185353024746
54,1167.33759535597909083639058494465204,1166.0,1.33759535597909083639058494465204
55,1210.94129785904601054409009773330870,1209.6,1.34129785904601054409009773330870
56,1255.34493340498702886835480294190340,1254.0,1.34493340498702886835480294190340
57,1300.54850437492613605248727710271092,1299.2,1.34850437492613605248727710271092
58,1346.55201302509518863655650739572294,1345.2,1.35201302509518863655650739572294
59,1393.35546149542326920073618617719741,1392.0,1.35546149542326920073618617719741
60,1440.95885181739977179750172523688303,1439.6,1.35885181739977179750172523688303
61,1489.36218592128370513255195212462773,1488.0,1.36218592128370513255195212462773
62,1538.56546564272340454920956587338342,1537.2,1.36546564272340454920956587338342
63,1588.56869272884360198203526120162175,1587.2,1.36869272884360198203526120162175
64,1639.37186884385049056546954899749878,1638.0,1.37186884385049056546954899749878
65,1690.97499557419988574334449298942907,1689.6,1.37499557419988574334449298942907
66,1743.37807443336873738605442089986470,1742.0,1.37807443336873738605442089986470
67,1796.58110686626598513084961979180104,1795.2,1.38110686626598513084961979180104
68,1850.58409425331499299990916247425831,1849.2,1.38409425331499299990916247425831
69,1905.38703791423648668012277006387943,1904.0,1.38703791423648668012277006387943
70,1960.98993911155798858024816854539547,1959.6,1.38993911155798858024816854539547
71,2017.39279905387314707737960026152952,2016.0,1.39279905387314707737960026152952
72,2074.59561889887205812228380233527141,2073.2,1.39561889887205812228380233527141
73,2132.59839975616162436675651565867043,2131.2,1.39839975616162436675651565867043
74,2191.40114268989317812760014053711127,2190.0,1.40114268989317812760014053711127
75,2251.00384872121296340072036016053682,2249.6,1.40384872121296340072036016053682
76,2311.40651883054962258208452536207854,2310.0,1.40651883054962258208452536207854
77,2372.60915395975153115386663353741923,2371.2,1.40915395975153115386663353741923
78,2434.61175501408565779592370231589104,2433.2,1.41175501408565779592370231589104
79,2497.41432286410858056275621035627137,2496.0,1.41432286410858056275621035627137
80,2561.01685834741935164046093478423921,2559.6,1.41685834741935164046093478423921
81,2625.41936227030305385670798753737663,2624.0,1.41936227030305385670798753737663
82,2690.62183540927313066622041842290259,2689.2,1.42183540927313066622041842290259
83,2756.62427851251988260044514147282666,2755.2,1.42427851251988260044514147282666
84,2823.42669230127189887838786211476566,2822.0,1.42669230127189887838786211476566
85,2891.02907747107663359941104118471403,2889.6,1.42907747107663359941104118471403
86,2959.43143469300582007340465084634297,2958.0,1.43143469300582007340465084634297
87,3028.63376461479095937293961599595945,3027.2,1.43376461479095937293961599595945
88,3098.63606786189369581427818258498700,3097.2,1.43606786189369581427818258498700
89,3169.43834503851550857195396513393104,3168.0,1.43834503851550857195396513393104
90,3241.04059672855080541490515689254095,3239.6,1.44059672855080541490515689254095
91,3313.44282349648718310009371498249265,3312.0,1.44282349648718310009371498249265
92,3386.64502588825633066200421139975118,3385.2,1.44502588825633066200421139975118
93,3460.64720443203878958136042273330707,3459.2,1.44720443203878958136042273330707
94,3535.44935963902554188765962578306707,3534.0,1.44935963902554188765962578306707
95,3611.05149200413917609609557120666801,3609.6,1.45149200413917609609557120666801
96,3687.45360200671717905732468364173230,3686.0,1.45360200671717905732468364173230
97,3764.65569011115971745642042336247665,3763.2,1.45569011115971745642042336247665
98,3842.65775676754409982306605856707047,3841.2,1.45775676754409982306605856707047
99,3921.45980241220795644284695615032655,3920.0,1.45980241220795644284695615032655
100,4001.06182746830302821908744866736716,3999.6,1.46182746830302821908744866736716
101,4081.46383234632132623052283209762439,4080.0,1.46383234632132623052283209762439
102,4162.66581744459529815537601331891484,4161.2,1.46581744459529815537601331891484
103,4244.66778314977352981879539165351880,4243.2,1.46778314977352981879539165351880
104,4327.46972983727340285590019867171503,4326.0,1.46972983727340285590019867171503
105,4411.07165787171203640892258250079684,4409.6,1.47165787171203640892258250079684
106,4495.47356760731675001269204389056344,4494.0,1.47356760731675001269204389056344
107,4580.67545938831620674075239632907202,4579.2,1.47545938831620674075239632907202
108,4666.67733354931331644484702954469985,4665.2,1.47733354931331644484702954469985
109,4753.47919041564091032697413197053485,4752.0,1.47919041564091032697413197053485
110,4841.08103030370113566308842014953541,4839.6,1.48103030370113566308842014953541
111,4929.48285352128945363632743385518940,4928.0,1.48285352128945363632743385518940
112,5018.68466036790407380400697742059116,5017.2,1.48466036790407380400697742059116
113,5108.68645113504160318683619103634671,5107.2,1.48645113504160318683619103634671
114,5199.48822610647963921104642496126384,5198.0,1.48822610647963921104642496126384
115,5291.08998555854699528562549736280330,5289.6,1.48998555854699528562549736280330
116,5383.49172976038219946520070450802541,5382.0,1.49172976038219946520070450802541
117,5476.69345897418087493610718042686680,5475.2,1.49345897418087493610718042686680
118,5570.69517345543257003207264769487495,5569.2,1.49517345543257003207264769487495
119,5665.49687345314757177223328130811601,5664.0,1.49687345314757177223328130811601
120,5761.09855921007421107196045195964859,5759.6,1.49855921007421107196045195964859
121,5857.50023096290712950973386061904576,5856.0,1.50023096290712950973386061904576
122,5954.70188894248695862016381523817682,5953.2,1.50188894248695862016381523817682
123,6052.70353337399183049033338263870418,6051.2,1.50353337399183049033338263870418
124,6151.50516447712112075682249531254715,6150.0,1.50516447712112075682249531254715
125,6251.10678246627179553451299646832926,6249.6,1.50678246627179553451299646832926
126,6351.50838755070771861097602468140954,6350.0,1.50838755070771861097602468140954
127,6452.70997993472225466235676044624968,6451.2,1.50997993472225466235676044624968
128,6554.71155981779448165948166937261477,6553.2,1.51155981779448165948166937261477
129,6657.51312739473931355967525117926256,6656.0,1.51312739473931355967525117926256
130,6761.11468285585181599790605349378718,6759.6,1.51468285585181599790605349378718
131,6865.51622638704598228676364543158968,6864.0,1.51622638704598228676364543158968
132,6970.71775816998822205756740558487997,6969.2,1.51775816998822205756740558487997
133,7076.71927838222580309332407812520854,7075.2,1.51927838222580309332407812520854
134,7183.52078719731047562829214470797149,7182.0,1.52078719731047562829214470797149
135,7291.12228478491749028056860859838608,7289.6,1.52228478491749028056860859838608
136,7399.52377131096021709658340432881575,7398.0,1.52377131096021709658340432881575
137,7508.72524693770055987844306712114624,7507.2,1.52524693770055987844306712114624
138,7618.72671182385534635307469219544300,7617.2,1.52671182385534635307469219544300
139,7729.52816612469887263621560270657330,7728.0,1.52816612469887263621560270657330
140,7841.12960999216176499832588282001035,7839.6,1.52960999216176499832588282001035
141,7953.53104357492631738201096216493608,7952.0,1.53104357492631738201096216493608
142,8066.73246701851845504727434997903273,8065.2,1.53246701851845504727434997903273
143,8180.73388046539646607075139394444520,8179.2,1.53388046539646607075139394444520
144,8295.53528405503663524543782155064564,8294.0,1.53528405503663524543782155064564
145,8411.13667792401591073966788531579229,8409.6,1.53667792401591073966788531579229
146,8527.53806220609172600534588066639683,8526.0,1.53806220609172600534588066639683
147,8644.73943703227909122246889516692125,8643.2,1.53943703227909122246889516692125
148,8762.74080253092506960894520819488430,8761.2,1.54080253092506960894520819488430
149,8881.54215882778074039663858276300669,8880.0,1.54215882778074039663858276300669
150,9001.14350604607075211449146563707693,8999.6,1.54350604607075211449146563707693
151,9121.54484430656056209295623976217721,9120.0,1.54484430656056209295623976217721
152,9242.74617372762145248887923344755108,9241.2,1.54617372762145248887923344755108
153,9364.74749442529341178050529259463531,9363.2,1.54749442529341178050529259463531
154,9487.54880651334596563181888955996962,9486.0,1.54880651334596563181888955996962
155,9611.15011010333703536218787261185789,9609.6,1.55011010333703536218787261185789
156,9735.55140530466990188764598074158993,9734.0,1.55140530466990188764598074158993
157,9860.75269222464834618039010294807300,9859.2,1.55269222464834618039010294807300
158,9986.75397096853003806456588509170714,9985.2,1.55397096853003806456588509170714
159,10113.5552416395782370211472236815182,10112.0,1.5552416395782370211472236815182
160,10241.1565043391118713394195092003089,10239.6,1.5565043391118713394195092003089
161,10369.5577591665540541111577003344815,10368.0,1.5577591665540541111577003344815
162,10498.7590062194790955285707543677958,10497.2,1.5590062194790955285707543677958
163,10628.7602455936580663392818205679834,10627.2,1.5602455936580663392818205679834
164,10759.5614773831029670949093205776803,10758.0,1.5614773831029670949093205776803
165,10891.1627016801095517934366646700747,10889.6,1.5627016801095517934366646700747
166,11023.5639185752988564309294243861644,11022.0,1.5639185752988564309294243861644
167,11156.7651281576574796948895348210081,11155.2,1.5651281576574796948895348210081
168,11290.7663305145766584881300920153115,11289.2,1.5663305145766584881300920153115
169,11425.5675257318901833452314630987186,11424.0,1.5675257318901833452314630987186
170,11561.1687138939111934846644272529755,11559.6,1.5687138939111934846644272529755
171,11697.5698950834678916910112431904983,11696.0,1.5698950834678916910112431904983
172,11834.7710693819382168939125789435277,11833.2,1.5710693819382168939125789435277
173,11972.7722368692835098460410950474206,11971.2,1.5722368692835098460410950474206
174,12111.5733976240812077435856932691128,12110.0,1.5733976240812077435856932691128
175,12251.1745517235566017741494353697429,12249.6,1.5745517235566017741494353697429
176,12391.5756992436136872983839107441680,12390.0,1.5756992436136872983839107441680
177,12532.7768402588651399258675134223536,12531.2,1.5768402588651399258675134223536
178,12674.7779748426614466395936995746227,12673.2,1.5779748426614466395936995746227
179,12817.5791030671192184139850158933344,12816.0,1.5791030671192184139850158933344
180,12961.1802250031487152728016467903506,12959.6,1.5802250031487152728016467903506
181,13105.5813407204806064355004768511613,13104.0,1.5813407204806064355004768511613
182,13250.7824502876919932473998942085129,13249.2,1.5824502876919932473998942085129
183,13396.7835537722317179428940204203685,13395.2,1.5835537722317179428940204203685
184,13543.5846512404449824832221047664022,13542.0,1.5846512404449824832221047664022
185,13691.1857427575972992768860638686390,13689.6,1.5857427575972992768860638686390
186,13839.5868283878977947513050535297362,13838.0,1.5868283878977947513050535297362
187,13988.7879081945218895761738881374384,13987.2,1.5879081945218895761738881374384
188,14138.7889822396333709748091080685024,14137.2,1.5889822396333709748091080685024
189,14289.5900505844058808545395140297703,14288.0,1.5900505844058808545395140297703
190,14441.1911132890438354071849705242640,14439.6,1.5911132890438354071849705242640
191,14593.5921704128027954021409697312712,14592.0,1.5921704128027954021409697312712
192,14746.7932220140093035542369633687785,14745.2,1.5932220140093035542369633687785
193,14900.7942681500802072701808164313352,14899.2,1.5942681500802072701808164313352
194,15055.5953088775414801143357787169162,15054.0,1.5953088775414801143357787169162
195,15211.1963442520465599261519368509501,15209.6,1.5963442520465599261519368509501
196,15367.5973743283942172811147021724508,15366.0,1.5973743283942172811147021724508
197,15524.7983991605459686704934912521067,15523.2,1.5983991605459686704934912521067
198,15682.7994188016430485618315940619547,15681.2,1.5994188016430485618315940619547
199,15841.6004333040229531739926202141599,15840.0,1.6004333040229531739926202141599
200,16001.2014427192355699069243733066849,15999.6,1.6014427192355699069243733066849
201,16161.6024470980589034025188178427060,16160.0,1.6024470980589034025188178427060
202,16322.8034464905144116126793414039958,16321.2,1.6034464905144116126793414039958
203,16484.8044409458819625292771858950434,16483.2,1.6044409458819625292771858950434
204,16647.6054305127144231908584441407689,16646.0,1.6054305127144231908584441407689
205,16811.2064152388518909314134740286306,16809.6,1.6064152388518909314134740286306
206,16975.6073951714355798899055497464848,16974.0,1.6073951714355798899055497464848
207,17140.8083703569213686511840269045416,17139.2,1.6083703569213686511840269045416
208,17306.8093408410930232396865967193789,17305.2,1.6093408410930232396865967193789
209,17473.6103066690751012087579740849275,17472.0,1.6103066690751012087579740849275
210,17641.2112678853455483211839569940041,17639.6,1.6112678853455483211839569940041
211,17809.6122245337479951798971180185508,17808.0,1.6122245337479951798971180185508
212,17978.8131766575037640359760147735321,17977.2,1.6131766575037640359760147735321
213,18148.8141242992235901518257384991609,18147.2,1.6141242992235901518257384991609
214,18319.6150675009190726952231855525084,18318.0,1.6150675009190726952231855525084
215,18491.2160063040138543704515126454257,18489.6,1.6160063040138543704515126454257
216,18663.6169407493545437409741557993391,18662.0,1.6169407493545437409741557993391
217,18836.8178708772213842026836399191600,18835.2,1.6178708772213842026836399191600
218,19010.8187967273386785801678783505110,19009.2,1.6187967273386785801678783505110
219,19185.6197183388849726189227265547047,19184.0,1.6197183388849726189227265547047
220,19361.2206357505030098816310741923073,19359.6,1.6206357505030098816310741923073
221,19537.6215490003094559507909291791627,19536.0,1.6215490003094559507909291791627
222,19714.8224581259044091350503676831962,19713.2,1.6224581259044091350503676831962
223,19892.8233631643806912400728012456680,19891.2,1.6233631643806912400728012456680
224,20071.6242641523329334632229801246484,20070.0,1.6242641523329334632229801246484
225,20251.2251611258664599686083797966522,20249.6,1.6251611258664599686083797966522
226,20431.6260541206059726804087614900605,20430.0,1.6260541206059726804087614900605
227,20612.8269431717040459373323076702247,20611.2,1.6269431717040459373323076702247
228,20794.8278283138494328183895715644573,20793.2,1.6278283138494328183895715644573
229,20977.6287095812751902921203019423573,20976.0,1.6287095812751902921203019423573
230,21161.2295870077666278755013418390415,21159.6,1.6295870077666278755013418390415
231,21345.6304606266690815917898487547277,21344.0,1.6304606266690815917898487547277
232,21530.8313304708955236362061689380392,21529.2,1.6313304708955236362061689380392
233,21716.8321965729340027349443473404928,21715.2,1.6321965729340027349443473404928
234,21903.6330589648549313435595355680057,21902.0,1.6330589648549313435595355680057
235,22091.2339176783182128558154313288125,22089.6,1.6339176783182128558154313288125
236,22279.6347727445802185217430843302935,22278.0,1.6347727445802185217430843302935
237,22468.8356241945006176950208197251050,22467.2,1.6356241945006176950208197251050
238,22658.8364720585490631406686615938124,22657.2,1.6364720585490631406686615938124
