Eigenstate,Energy,Kinetic Energy,Potential Energy
1,0.500000000019822789862430187547513120,0.0,0.500000000019822789862430187547513120
2,1.84623093778050739803527586495989304,1.2,0.64623093778050739803527586495989304
3,3.93633761008505603251090194377743409,3.2,0.73633761008505603251090194377743409
4,6.79966527860590174198416197543708900,6.0,0.79966527860590174198416197543708900
5,10.4480465766570056212548012360214217,9.6,0.8480465766570056212548012360214217
6,14.8870659989922480140009688136964526,14.0,0.8870659989922480140009688136964526
7,20.1197208270494307813210534253655921,19.2,0.9197208270494307813210534253655921
8,26.1477838472053095109004126643980054,25.2,0.9477838472053095109004126643980054
9,32.9723835584660561384264436120521906,32.0,0.9723835584660561384264436120521906
10,40.5942802149801767456639702517266008,39.6,0.9942802149801767456639702517266008
11,49.0140093868886665492146015984557183,48.0,1.0140093868886665492146015984557183
12,58.2319621694961241418618151776411560,57.2,1.0319621694961241418618151776411560
13,68.2484326928683338235554745364296990,67.2,1.0484326928683338235554745364296990
14,79.0636476546884216810315112609133498,78.0,1.0636476546884216810315112609133498
15,90.6777854360710371853299065649090286,89.6,1.0777854360710371853299065649090286
16,103.090988906432796258854925202619812,102.0,1.090988906432796258854925202619812
17,116.303374256953784410350050709268222,115.2,1.103374256953784410350050709268222
18,130.315037251583755480191712941525330,129.2,1.115037251583755480191712941525330
19,145.126057750146108831011052294899106,144.0,1.126057750146108831011052294899106
20,160.736503045971825534505007583672967,159.6,1.136503045971825534505007583672967
21,177.146430371981165394787154901742699,176.0,1.146430371981165394787154901742699
22,194.355888811842406986697935563262225,193.2,1.155888811842406986697935563262225
23,212.364920777908372252602141778293601,211.2,1.164920777908372252602141778293601
24,231.173563168616848625828841473062959,230.0,1.173563168616848625828841473062959
25,250.781848285286515401025534121866961,249.6,1.181848285286515401025534121866961
26,271.189804565924531472915617303894784,270.0,1.189804565924531472915617303894784
27,292.397457178189111166121930340244316,291.2,1.197457178189111166121930340244316
28,314.404828502748564071180560371547569,313.2,1.204828502748564071180560371547569
29,337.211938530483246981447707303593641,336.0,1.211938530483246981447707303593641
30,360.818805191327388457057834694410020,359.6,1.218805191327388457057834694410020
31,385.225444628401808042545974253478015,384.0,1.225444628401808042545974253478015
32,410.431871428010652580408748816254805,409.2,1.231871428010652580408748816254805
33,436.438098813765624259037419503135870,435.2,1.238098813765624259037419503135870
34,463.244138811350628767523423456596521,462.0,1.244138811350628767523423456596521
35,490.850002389100576864316026158155631,489.6,1.250002389100576864316026158155631
36,519.255699578534593788308450818969944,518.0,1.255699578534593788308450818969944
37,548.461239578179806392532486592402536,547.2,1.261239578179806392532486592402536
38,578.466630843391459137598956108245714,577.2,1.266630843391459137598956108245714
39,609.271881164377261432583803953061436,608.0,1.271881164377261432583803953061436
40,640.876997734238048027579780414644684,639.6,1.276997734238048027579780414644684
41,673.281987208520083888466149867383638,672.0,1.281987208520083888466149867383638
42,706.486855757519352382987274921699062,705.2,1.286855757519352382987274921699062
43,740.491609112371679262350759980673204,739.2,1.291609112371679262350759980673204
44,775.296252605794450907081779407557550,774.0,1.296252605794450907081779407557550
45,810.900791208208115736898331940907182,809.6,1.300791208208115736898331940907182
46,847.305229559852521401799854004098240,846.0,1.305229559852521401799854004098240
47,884.509571999419663759248006535870129,883.2,1.309571999419663759248006535870129
48,922.513822589646837278085365862856591,921.2,1.313822589646837278085365862856591
49,961.317985140249513965953957223904855,960.0,1.317985140249513965953957223904855
50,1000.92206322851915520333300109606629,999.6,1.32206322851915520333300109606629
51,1041.32606021786569390485175415187954,1040.0,1.32606021786569390485175415187954
52,1082.52997927454607921424153672491653,1081.2,1.32997927454607921424153672491653
53,1124.53382338278782582075143679442935,1123.2,1.33382338278782582075143679442935
54,1167.33759535848894885340148079130758,1166.0,1.33759535848894885340148079130758
55,1210.94129786165218981693983622107902,1209.6,1.34129786165218981693983622107902
56,1255.34493340769136446324937182799984,1254.0,1.34493340769136446324937182799984
57,1300.54850437773046452683326772068293,1299.2,1.34850437773046452683326772068293
58,1346.55201302800134806672128740221013,1345.2,1.35201302800134806672128740221013
59,1393.35546149843309920986566571123369,1392.0,1.35546149843309920986566571123369
60,1440.95885182051511358339542383725017,1439.6,1.35885182051511358339542383725017
61,1489.36218592450640149559518954178731,1488.0,1.36218592450640149559518954178731
62,1538.56546564605529992036271507580862,1537.2,1.36546564605529992036271507580862
63,1588.56869273228654245088009128161562,1587.2,1.36869273228654245088009128161562
64,1639.37186884740632390831277495687542,1638.0,1.37186884740632390831277495687542
65,1690.97499557787046145137871816679479,1689.6,1.37499557787046145137871816679479
66,1743.37807443715590669357673370857871,1742.0,1.37807443715590669357673370857871
67,1796.58110687017160104353815680003726,1795.2,1.38110687017160104353815680003726
68,1850.58409425734091032315801031119161,1849.2,1.38409425734091032315801031119161
69,1905.38703791838456204743562594553165,1904.0,1.38703791838456204743562594553165
70,1960.98993911583008048169121531775510,1959.6,1.38993911583008048169121531775510
71,2017.39279905827111588809410367952239,2016.0,1.39279905827111588809410367952239
72,2074.59561890339776613105896108440734,2073.2,1.39561890339776613105896108440734
73,2132.59839976081693580466313658751731,2131.2,1.39839976081693580466313658751731
74,2191.40114269467995919668573255111170,2190.0,1.40114269467995919668573255111170
75,2251.00384872613308230276627651411086,2249.6,1.40384872613308230276627651411086
76,2311.40651883560494954742579717753701,2310.0,1.40651883560494954742579717753701
77,2372.60915396494393847027517291784667,2371.2,1.40915396494393847027517291784667
78,2434.61175501941701983755556001349645,2433.2,1.41175501941701983755556001349645
79,2497.41432286958077381916360167954084,2496.0,1.41432286958077381916360167954084
80,2561.01685835303425474566976432870888,2559.6,1.41685835303425474566976432870888
81,2625.41936227606254761836161427034098,2624.0,1.41936227606254761836161427034098
82,2690.62183541517909809479042575179507,2689.2,1.42183541517909809479042575179507
83,2756.62427851857420893850988202005297,2755.2,1.42427851857420893850988202005297
84,2823.42669230747647162997956956140117,2822.0,1.42669230747647162997956956140117
85,2891.02907747743334255943230474759612,2889.6,1.42907747743334255943230474759612
86,2959.43143469951655735711506727767666,2958.0,1.43143469951655735711506727767666
87,3028.63376462145761944551344376136935,3027.2,1.43376462145761944551344376136935
88,3098.63606786871817552043382845646507,3097.2,1.43606786871817552043382845646507
89,3169.43834504549970716565615016666856,3168.0,1.43834504549970716565615016666856
90,3241.04059673569662458914061079239086,3239.6,1.44059673569662458914061079239086
91,3313.44282350379652701672126595376543,3312.0,1.44282350379652701672126595376543
92,3386.64502589573110598168014073328878,3385.2,1.44502589573110598168014073328878
93,3460.64720443968090549353996308950840,3459.2,1.44720443968090549353996308950840
94,3535.44935964683691014067549271939467,3534.0,1.44935964683691014067549271939467
95,3611.05149201212171102731442228576930,3609.6,1.45149201212171102731442228576930
96,3687.45360201487279762338240754066568,3686.0,1.45360201487279762338240754066568
97,3764.65569011949033926353716763867536,3763.2,1.45569011949033926353716763867536
98,3842.65775677605164715744192026952698,3841.2,1.45775677605164715744192026952698
99,3921.45980242089435430113925484937399,3920.0,1.45980242089435430113925484937399
100,4001.06182747717020433897051222085795,3999.6,1.46182747717020433897051222085795
101,4081.46383235537121112133123877007320,4080.0,1.46383235537121112133123877007320
102,4162.66581745382982512883222731219889,4161.2,1.46581745382982512883222731219889
103,4244.66778315919463501982274983483157,4243.2,1.46778315919463501982274983483157
104,4327.46972984688302529352220194826871,4326.0,1.46972984688302529352220194826871
105,4411.07165788151211798724946083902552,4409.6,1.47165788151211798724946083902552
106,4495.47356761730923556199556094546248,4494.0,1.47356761730923556199556094546248
107,4580.67545939850304404862986492855585,4579.2,1.47545939850304404862986492855585
108,4666.67733355969645628747553432280457,4665.2,1.47733355969645628747553432280457
109,4753.47919042622230650045593332173662,4752.0,1.47919042622230650045593332173662
110,4841.08103031448274501488854135426043,4839.6,1.48103031448274501488854135426043
111,4929.48285353227323609680443417427129,4928.0,1.48285353227323609680443417427129
112,5018.68466037909199241803790836955998,5017.2,1.48466037909199241803790836955998
113,5108.68645114643562414553675590687324,5107.2,1.48645114643562414553675590687324
114,5199.48822611808173188358735969314950,5198.0,1.48822611808173188358735969314950
115,5291.08998557035913225114618958750949,5289.6,1.48998557035913225114618958750949
116,5383.49172977240635654482109588238747,5382.0,1.49172977240635654482109588238747
117,5476.69345898641903122503897258917476,5475.2,1.49345898641903122503897258917476
118,5570.69517346788670793183086146482289,5569.2,1.49517346788670793183086146482289
119,5665.49687346581967702294922101483873,5664.0,1.49687346581967702294922101483873
120,5761.09855922296627278479711615836764,5759.6,1.49855922296627278479711615836764
121,5857.50023097602114019940487770932206,5856.0,1.50023097602114019940487770932206
122,5954.70188895582491423755695529182707,5953.2,1.50188895582491423755695529182707
123,6052.70353338755573045523972386794612,6051.2,1.50353338755573045523972386794612
124,6151.50516449091296799077232467547623,6150.0,1.50516449091296799077232467547623
125,6251.10678248029359649371952856188201,6249.6,1.50678248029359649371952856188201
126,6351.50838756496148331938802304366906,6350.0,1.50838756496148331938802304366906
127,6452.70997994920999674482117179484096,6451.2,1.50997994920999674482117179484096
128,6554.71155983251821837501736052211231,6553.2,1.51155983251821837501736052211231
129,6657.51312740970106583485896570509947,6656.0,1.51312740970106583485896570509947
130,6761.11468287105360846037170372316535,6759.6,1.51468287105360846037170372316535
131,6865.51622640248984329881605989992347,6864.0,1.51622640248984329881605989992347
132,6970.71775818567618374991166142833562,6969.2,1.51775818567618374991166142833562
133,7076.71927839815990139891155060239755,7075.2,1.51927839815990139891155060239755
134,7183.52078721349275031628442463684722,7182.0,1.52078721349275031628442463684722
135,7291.12228480134998499042042351433909,7289.6,1.52228480134998499042042351433909
136,7399.52377132764497937224571179131040,7398.0,1.52377132764497937224571179131040
137,7508.72524695463964120268747114113860,7507.2,1.52524695463964120268747114113860
138,7618.72671184105080218194035521184594,7617.2,1.52671184105080218194035521184594
139,7729.52816614215276243357982891293896,7728.0,1.52816614215276243357982891293896
140,7841.12961000987615227059955411864750,7839.6,1.52961000987615227059955411864750
141,7953.53104359290326971296001515021588,7952.0,1.53104359290326971296001515021588
142,8066.73246703676004413296849189987609,8065.2,1.53246703676004413296849189987609
143,8180.73388048390476775464126107297762,8179.2,1.53388048390476775464126107297762
144,8295.53528407381372955356178263103303,8294.0,1.53528407381372955356178263103303
145,8411.13667794306388191598971750108027,8409.6,1.53667794306388191598971750108027
146,8527.53806222541266254722454433662051,8526.0,1.53806222541266254722454433662051
147,8644.73943705187508591626161873546854,8643.2,1.53943705187508591626161873546854
148,8762.74080255079821956574515769681749,8761.2,1.54080255079821956574515769681749
149,8881.54215884793314708814832064196212,8880.0,1.54215884793314708814832064196212
150,9001.14350606650452140903348713653661,8999.6,1.54350606650452140903348713653661
151,9121.54484432727780429162183721972135,9120.0,1.54484432727780429162183721972135
152,9242.74617374862428236181694461518540,9241.2,1.54617374862428236181694461518540
153,9364.74749444658394860335024301215933,9363.2,1.54749444658394860335024301215933
154,9487.54880653492633322226427501833788,9486.0,1.54880653492633322226427501833788
155,9611.15011012520936211669990878906901,9609.6,1.55011012520936211669990878906901
156,9735.55140532683632081832359376956645,9734.0,1.55140532683632081832359376956645
157,9860.75269224711099495197068219253003,9859.2,1.55269224711099495197068219253003
158,9986.75397099129105903157842429335846,9985.2,1.55397099129105903157842429335846
159,10113.5552416626397772652141568794156,10112.0,1.5552416626397772652141568794156
160,10241.1565043624760827067085897020332,10239.6,1.5565043624760827067085897020332
161,10369.5577591902230932499852624028932,10368.0,1.5577591902230932499852624028932
162,10498.7590062434551239271576893784640,10497.2,1.5590062434551239271576893784640
163,10628.7602456179432503636636584160845,10627.2,1.5602456179432503636636584160845
164,10759.5614774076994780270017536861105,10758.0,1.5614774076994780270017536861105
165,10891.1627017050195658692579144435855,10889.6,1.5627017050195658692579144435855
166,11023.5639186005245548789808241013532,11022.0,1.5639186005245548789808241013532
167,11156.7651281832010487746957149400410,11155.2,1.5651281832010487746957149400410
168,11290.7663305404402895289401900321060,11289.2,1.5663305404402895289401900321060
169,11425.5675257580760727848827452643023,11424.0,1.5675257580760727848827452643023
170,11561.1687139204215429086097703117241,11559.6,1.5687139204215429086097703117241
171,11697.5698951103049078715118843566990,11696.0,1.5698951103049078715118843566990
172,11834.7710694091041118293975797264973,11833.2,1.5710694091041118293975797264973
173,11972.7722368967805008006349835595428,11971.2,1.5722368967805008006349835595428
174,12111.5733976519115172868057007569244,12110.0,1.5733976519115172868057007569244
175,12251.1745517517224578207738461805962,12249.6,1.5745517517224578207738461805962
176,12391.5756992721173231484929866108742,12390.0,1.5756992721173231484929866108742
177,12532.7768402877087943050584399586701,12531.2,1.5768402877087943050584399586701
178,12674.7779748718473637393711195310692,12673.2,1.5779748718473637393711195310692
179,12817.5791030966496479323286046752589,12816.0,1.5791030966496479323286046752589
180,12961.1802250330259124549122543261495,12959.6,1.5802250330259124549122543261495
181,13105.5813407507068321147263943545821,13104.0,1.5813407507068321147263943545821
182,13250.7824503182695138863447511497178,13249.2,1.5824503182695138863447511497178
183,13396.7835538031628056747078666635195,13395.2,1.5835538031628056747078666635195
184,13543.5846512717319151530772483875683,13542.0,1.5846512717319151530772483875683
185,13691.1857427892423604836392198299648,13689.6,1.5857427892423604836392198299648
186,13839.5868284199032738893473852945091,13838.0,1.5868284199032738893473852945091
187,13988.7879082268900818774705402068121,13987.2,1.5879082268900818774705402068121
188,14138.7889822723665775511298202615865,14137.2,1.5889822723665775511298202615865
189,14289.5900506175064087398819416875029,14288.0,1.5900506175064087398819416875029
190,14441.1911133225139976003923177377869,14439.6,1.5911133225139976003923177377869
191,14593.5921704466449109097155870185789,14592.0,1.5921704466449109097155870185789
192,14746.7932220482256974333515449840661,14745.2,1.5932220482256974333515449840661
193,14900.7942681846732106718888510943352,14899.2,1.5942681846732106718888510943352
194,15055.5953089125134303269829456720481,15054.0,1.5953089125134303269829456720481
195,15211.1963442873998004189900924179325,15209.6,1.5963442873998004189900924179325
196,15367.5973743641310977481201681795904,15366.0,1.5973743641310977481201681795904
197,15524.7983991966688450743913608114940,15523.2,1.5983991966688450743913608114940
198,15682.7994188381542831783277393416914,15681.2,1.5994188381542831783277393416914
199,15841.6004333409249146362151624170923,15840.0,1.6004333409249146362151624170923
200,16001.2014427565306332500763444332704,15999.6,1.6014427565306332500763444332704
201,16161.6024471357494501087437463785034,16160.0,1.6024471357494501087437463785034
202,16322.8034465286028296561415657462605,16321.2,1.6034465286028296561415657462605
203,16484.8044409843706464214586270648828,16483.2,1.6044409843706464214586270648828
204,16647.6054305516057740260736723227620,16646.0,1.6054305516057740260736723227620
205,16811.2064152781483164325448439800202,16809.6,1.6064152781483164325448439800202
206,16975.6073952111394944543602160925507,16974.0,1.6073952111394944543602160925507
207,17140.8083703970351933970747200972855,17139.2,1.6083703970351933970747200972855
208,17306.8093408816191860522379224197899,17305.2,1.6093408816191860522379224197899
209,17473.6103067100160367869401424801308,17472.0,1.6103067100160367869401424801308
210,17641.2112679267036982245758240555761,17639.6,1.6112679267036982245758240555761
211,17809.6122245755258078757803668196709,17808.0,1.6122245755258078757803668196709
212,17978.8131766997036949466624342213356,17977.2,1.6131766997036949466624342213356
213,18148.8141243418481017022194755933005,18147.2,1.6141243418481017022194755933005
214,18319.6150675439706343606198757083795,18318.0,1.6150675439706343606198757083795
215,18491.2160063474949427245762894016493,18489.6,1.6160063474949427245762894016493
216,18663.6169407932676425042604296642302,18662.0,1.6169407932676425042604296642302
217,18836.8178709215689842907946423254029,18835.2,1.6178709215689842907946423254029
218,19010.8187967721232781527629727158646,19009.2,1.6187967721232781527629727158646
219,19185.6197183841090771286704184147709,19184.0,1.6197183841090771286704184147709
220,19361.2206357961691321234707987156749,19359.6,1.6206357961691321234707987156749
221,19537.6215490464201161114456235634891,19536.0,1.6215490464201161114456235634891
222,19714.8224581724621348427918492890287,19713.2,1.6224581724621348427918492890287
223,19892.8233632113880176147420194097339,19891.2,1.6233632113880176147420194097339
224,20071.6242641997924031665072328088254,20070.0,1.6242641997924031665072328088254
225,20251.2251611737806232545775557268683,20249.6,1.6251611737806232545775557268683
226,20431.6260541689773874463127072913759,20430.0,1.6260541689773874463127072913759
227,20612.8269432205352777746614923056815,20611.2,1.6269432205352777746614923056815
228,20794.8278283631430550642011100098884,20793.2,1.6278283631430550642011100098884
229,20977.6287096310337840806315299998161,20976.0,1.6287096310337840806315299998161
230,21161.2295870579927821899531285585331,21159.6,1.6295870579927821899531285585331
231,21345.6304606773653933165817822995297,21344.0,1.6304606773653933165817822995297
232,21530.8313305220645976093058475819896,21529.2,1.6313305220645976093058475819896
233,21716.8321966245784518005730037091267,21715.2,1.6321966245784518005730037091267
234,21903.6330590169773764051561830187867,21902.0,1.6330590169773764051561830187867
235,22091.2339177309212829292818529953724,22089.6,1.6339177309212829292818529953724
236,22279.6347727976665507889718653458125,22278.0,1.6347727976665507889718653458125
237,22468.8356242480728575577087625158085,22467.2,1.6356242480728575577087625158085
238,22658.8364721126098642744178746354598,22657.2,1.6364721126098642744178746354598
