Eigenstate,Energy,Kinetic Energy,Potential Energy
1,0.500000000018127763655004625335949071,0.0,0.500000000018127763655004625335949071
2,1.84623093776944316107993707176211442,1.2,0.64623093776944316107993707176211442
3,3.93633761005255577841505864908948126,3.2,0.73633761005255577841505864908948126
4,6.79966527853820756405862384966331049,6.0,0.79966527853820756405862384966331049
5,10.4480465765397457621256651189464823,9.6,0.8480465765397457621256651189464823
6,14.8870659988107993900290732942601243,14.0,0.8870659988107993900290732942601243
7,20.1197208267890526128517820867506701,19.2,0.9197208267890526128517820867506701
8,26.1477838468511991042128816349967689,25.2,0.9477838468511991042128816349967689
9,32.9723835580033748727222996573725800,32.0,0.9723835580033748727222996573725800
10,40.5942802143940633071386115323631087,39.6,0.9942802143940633071386115323631087
11,49.0140093861642441616663212586568382,48.0,1.0140093861642441616663212586568382
12,58.2319621686185047380556327990601987,57.2,1.0319621686185047380556327990601987
13,68.2484326918226205511496026775179189,67.2,1.0484326918226205511496026775179189
14,79.0636476534597104500688814323137590,78.0,1.0636476534597104500688814323137590
15,90.6777854346444176375505288228167481,89.6,1.0777854346444176375505288228167481
16,103.090988904793352373850530023104873,102.0,1.090988904793352373850530023104873
17,116.303374255086594875514609985701736,115.2,1.103374255086594875514609985701736
18,130.315037249473893902292348814083702,129.2,1.115037249473893902292348814083702
19,145.126057747778643838682472771650609,144.0,1.126057747778643838682472771650609
20,160.736503043331820803821526950888472,159.6,1.136503043331820803821526950888472
21,177.146430369053679619429452400677342,176.0,1.146430369053679619429452400677342
22,194.355888808612493807448592953789792,193.2,1.155888808612493807448592953789792
23,212.364920774361080156469585953699200,211.2,1.164920774361080156469585953699200
24,231.173563164737220822134700358774612,230.0,1.173563164737220822134700358774612
25,250.781848281059589679767833534367789,249.6,1.181848281059589679767833534367789
26,271.189804561335340049314696390309786,270.0,1.189804561335340049314696390309786
27,292.397457173222680514262626735000375,291.2,1.197457173222680514262626735000375
28,314.404828497389914748951312803105973,313.2,1.204828497389914748951312803105973
29,337.211938524717393448458283768657104,336.0,1.211938524717393448458283768657104
30,360.818805185139338886834678223143085,359.6,1.218805185139338886834678223143085
31,385.225444621776564130018481093849152,384.0,1.225444621776564130018481093849152
32,410.431871420933209345484149502358872,409.2,1.231871420933209345484149502358872
33,436.438098806220969846897452168052698,435.2,1.238098806220969846897452168052698
34,463.244138803323744246149308616346123,462.0,1.244138803323744246149308616346123
35,490.850002380576436019649801216196831,489.6,1.250002380576436019649801216196831
36,519.255699569498162917381557501052908,518.0,1.255699569498162917381557501052908
37,548.461239568616044094831540085806217,547.2,1.261239568616044094831540085806217
38,578.466630833285316104890101734422670,577.2,1.266630833285316104890101734422670
39,609.271881153713680237378173235235409,608.0,1.271881153713680237378173235235409
40,640.876997723001962910391173642307906,639.6,1.276997723001962910391173642307906
41,673.281987196696420543986591604427014,672.0,1.281987196696420543986591604427014
42,706.486855745093027745285277733789368,705.2,1.286855745093027745285277733789368
43,740.491609099327601289180034327103588,739.2,1.291609099327601289180034327103588
44,775.296252592117518363374015179870386,774.0,1.296252592117518363374015179870386
45,810.900791193883217977501961526587573,809.6,1.300791193883217977501961526587573
46,847.305229544864538153516939756259047,846.0,1.305229544864538153516939756259047
47,884.509571983753464902213207437333740,883.2,1.309571983753464902213207437333740
48,922.513822573287282626524058221145377,921.2,1.313822573287282626524058221145377
49,961.317985123181453048350759939389487,960.0,1.317985123181453048350759939389487
50,1000.92206321072742704203702414374944,999.6,1.32206321072742704203702414374944
51,1041.32606019933512679514068367410681,1040.0,1.32606019933512679514068367410681
52,1082.52997925526149050286307555093786,1081.2,1.32997925526149050286307555093786
53,1124.53382336273402168395754249475725,1123.2,1.33382336273402168395754249475725
54,1167.33759533765072407448818258777787,1166.0,1.33759533765072407448818258777787
55,1210.94129784001432756330312540461892,1209.6,1.34129784001432756330312540461892
56,1255.34493338523863606296567711295338,1254.0,1.34493338523863606296567711295338
57,1300.54850435444762924477129835026874,1299.2,1.34850435444762924477129835026874
58,1346.55201300387315288019052263421949,1345.2,1.35201300387315288019052263421949
59,1393.35546147344427858380545742653496,1392.0,1.35546147344427858380545742653496
60,1440.95885179465038924510752629841941,1439.6,1.35885179465038924510752629841941
61,1489.36218589775048220902151477085304,1488.0,1.36218589775048220902151477085304
62,1538.56546561839288125990921868830329,1537.2,1.36546561839288125990921868830329
63,1588.56869270370230657478690678018505,1587.2,1.36869270370230657478690678018505
64,1639.37186881788493933157001301977008,1638.0,1.37186881788493933157001301977008
65,1690.97499554739658281818672394747763,1689.6,1.37499554739658281818672394747763
66,1743.37807440571417454934904102644295,1742.0,1.37807440571417454934904102644295
67,1796.58110683774664160644488650374321,1795.2,1.38110683774664160644488650374321
68,1850.58409422391733525520701407633762,1849.2,1.38409422391733525520701407633762
69,1905.38703788394696822508827334812382,1904.0,1.38703788394696822508827334812382
70,1960.98993908036304976600937911198219,1959.6,1.38993908036304976600937911198219
71,2017.39279902175921489441455247796899,2016.0,1.39279902175921489441455247796899
72,2074.59561886582554599819110079423142,2073.2,1.39561886582554599819110079423142
73,2132.59839972216893196360575234148597,2131.2,1.39839972216893196360575234148597
74,2191.40114265494069113885816320784159,2190.0,1.40114265494069113885816320784159
75,2251.00384868528705334774921998123465,2249.6,1.40384868528705334774921998123465
76,2311.40651879363664661020674146379170,2310.0,1.40651879363664661020674146379170
77,2372.60915392183783182799327737854354,2371.2,1.40915392183783182799327737854354
78,2434.61175497515756289574063134413403,2433.2,1.41175497515756289574063134413403
79,2497.41432282415240287746365223987971,2496.0,1.41432282415240287746365223987971
80,2561.01685830642138876306150267126180,2559.6,1.41685830642138876306150267126180
81,2625.41936222824958797783807583890508,2624.0,1.41936222824958797783807583890508
82,2690.62183536615042836751983281800755,2689.2,1.42183536615042836751983281800755
83,2756.62427846831419464745970601691269,2755.2,1.42427846831419464745970601691269
84,2823.42669225596946001299965638833247,2822.0,1.42669225596946001299965638833247
85,2891.02907742466366233179082567768445,2889.6,1.42907742466366233179082567768445
86,2959.43143464546851847348096041282159,2958.0,1.43143464546851847348096041282159
87,3028.63376456611551286137892197750460,3027.2,1.43376456611551286137892197750460
88,3098.63606781206627295297044311336518,3097.2,1.43606781206627295297044311336518
89,3169.43834498752226085399782039658879,3168.0,1.43834498752226085399782039658879
90,3241.04059667637786705408695226998914,3239.6,1.44059667637786705408695226998914
91,3313.44282344312067081985447490680378,3312.0,1.44282344312067081985447490680378
92,3386.64502583368234348388862457463239,3385.2,1.44502583368234348388862457463239
93,3460.64720437624340861294183779699356,3459.2,1.44720437624340861294183779699356
94,3535.44935958199483010993500171985168,3534.0,1.44935958199483010993500171985168
95,3611.05149194585917815034427290576626,3609.6,1.45149194585917815034427290576626
96,3687.45360194717392103142495873229263,3686.0,1.45360194717392103142495873229263
97,3764.65569005033920667061734614820927,3763.2,1.45569005033920667061734614820927
98,3842.65775670543232461518467466713506,3841.2,1.45775670543232461518467466713506
99,3921.45980234879088595294431976701179,3920.0,1.45980234879088595294431976701179
100,4001.06182740356661217353718461174884,3999.6,1.46182740356661217353718461174884
101,4081.46383228025149472552582827539450,4080.0,1.46383228025149472552582827539450
102,4162.66581737717796143989077635176625,4161.2,1.46581737717796143989077635176625
103,4244.66778308099457807688158390447472,4243.2,1.46778308099457807688158390447472
104,4327.46972976711870598846880916152942,4326.0,1.46972976711870598846880916152942
105,4411.07165780016744381488615190903788,4409.6,1.47165780016744381488615190903788
106,4495.47356753436809036950831629069998,4494.0,1.47356753436809036950831629069998
107,4580.67545931394928778435472628725172,4579.2,1.47545931394928778435472628725172
108,4666.67733347351392474895484612143846,4665.2,1.47733347351392474895484612143846
109,4753.47919033839481108177669544152547,4752.0,1.47919033839481108177669544152547
110,4841.08103022499407245329509122936870,4839.6,1.48103022499407245329509122936870
111,4929.48285344110714821857761743909013,4928.0,1.48285344110714821857761743909013
112,5018.68466028623222588363286486839006,5017.2,1.48466028623222588363286486839006
113,5108.68645105186589019397139371874050,5107.2,1.48645105186589019397139371874050
114,5199.48822602178571607607354130373048,5198.0,1.48822602178571607607354130373048
115,5291.08998547232049421395561791575224,5289.6,1.48998547232049421395561791575224
116,5383.49172967260872971137782260411827,5382.0,1.49172967260872971137782260411827
117,5476.69345888484602257723043789137617,5475.2,1.49345888484602257723043789137617
118,5570.69517336452189774052928800756668,5569.2,1.49517336452189774052928800756668
119,5665.49687336064661858773516948919648,5664.0,1.49687336064661858773516948919648
120,5761.09855911596849217287694966699068,5759.6,1.49855911596849217287694966699068
121,5857.50023086718213598371383692248090,5856.0,1.50023086718213598371383692248090
122,5954.70188884512815723403950116374302,5953.2,1.50188884512815723403950116374302
123,6052.70353327498466345929875966133657,6051.2,1.50353327498466345929875966133657
124,6151.50516437645100551287885619716898,6150.0,1.50516437645100551287885619716898
125,6251.10678236392412449417427664603199,6249.6,1.50678236392412449417427664603199
126,6351.50838744666785894222646444956624,6350.0,1.50838744666785894222646444956624
127,6452.70997982897554805085341730448086,6451.2,1.50997982897554805085341730448086
128,6554.71155971032624407399424595102628,6553.2,1.51155971032624407399424595102628
129,6657.51312728553483501675568012059631,6656.0,1.51312728553483501675568012059631
130,6761.11468274489636032578022997024233,6759.6,1.51468274489636032578022997024233
131,6865.51622627432478688843764774561838,6864.0,1.51622627432478688843764774561838
132,6970.71775805548649767314050575566537,6969.2,1.51775805548649767314050575566537
133,7076.71927826592873356150081861927094,7075.2,1.51927826592873356150081861927094
134,7183.52078707920321764708568805344261,7182.0,1.52078707920321764708568805344261
135,7291.12228466498517316718752874388262,7289.6,1.52228466498517316718752874388262
136,7399.52377118918794254649405851675217,7398.0,1.52377118918794254649405851675217
137,7508.72524681407340172359962618576878,7507.2,1.52524681407340172359962618576878
138,7618.72671169835835031930887747899393,7617.2,1.52671169835835031930887747899393
139,7729.52816599731705609977811068716589,7728.0,1.52816599731705609977811068716589
140,7841.12960986288011674157145346923922,7839.6,1.52960986288011674157145346923922
141,7953.53104344372979734821899176561672,7952.0,1.53104344372979734821899176561672
142,8066.73246688539199409459690440214333,8065.2,1.53246688539199409459690440214333
143,8180.73388033032496572528042870244286,8179.2,1.53388033032496572528042870244286
144,8295.53528391800496745338337175698929,8294.0,1.53528391800496745338337175698929
145,8411.13667778500891761863893850514650,8409.6,1.53667778500891761863893850514650
146,8527.53806206509421959472560356564954,8526.0,1.53806206509421959472560356564954
147,8644.73943688927585323287579997563545,8643.2,1.53943688927585323287579997563545
148,8762.74080238590085117077186804439602,8761.2,1.54080238590085117077186804439602
149,8881.54215868072026180765939296129591,8880.0,1.54215868072026180765939296129591
150,9001.14350589695870258653091429324544,8999.6,1.54350589695870258653091429324544
151,9121.54484415538159949760912171492866,9120.0,1.54484415538159949760912171492866
152,9242.74617357436020310227414712972017,9241.2,1.54617357436020310227414712972017
153,9364.74749426993447002710276069354855,9363.2,1.54749426993447002710276069354855
154,9487.54880635587389382723534418567955,9486.0,1.54880635587389382723534418567955
155,9611.15010994373636345503674344544152,9609.6,1.55010994373636345503674344544152
156,9735.55140514292512720038700200083930,9734.0,1.55140514292512720038700200083930
157,9860.75269206074393314917798217012991,9859.2,1.55269206074393314917798217012991
158,9986.75397080245041797808936002236263,9985.2,1.55397080245041797808936002236263
159,10113.5552414713078077584495179967600,10112.0,1.5552414713078077584495179967600
160,10241.1565041686349971066911181212642,10239.6,1.5565041686349971066911181212642
161,10369.5577589938550651774923833013197,10368.0,1.5577589938550651774923833013197
162,10498.7590060445422879606755796247023,10497.2,1.5590060445422879606755796247023
163,10628.7602454164677017351320296180258,10627.2,1.5602454164677017351320296180258
164,10759.5614772036432723163387305136912,10758.0,1.5614772036432723163387305136912
165,10891.1627014983647186976542477795487,10889.6,1.5627014983647186976542477795487
166,11023.5639183912530416009526880730105,11022.0,1.5639183912530416009526880730105
167,11156.7651279712948041688852291801811,11155.2,1.5651279712948041688852291801811
168,11290.7663303258812074876527355291342,11289.2,1.5663303258812074876527355291342
169,11425.5675255408460060023500904656837,11424.0,1.5675255408460060023500904656837
170,11561.1687137005023025679679382226487,11559.6,1.5687137005023025679679382226487
171,11697.5698948876782633304826500891985,11696.0,1.5698948876782633304826500891985
172,11834.7710691837517903046623793570903,11833.2,1.5710691837517903046623793570903
173,11972.7722366686841870508899522268716,11971.2,1.5722366686841870508899522268716
174,12111.5733974210528532944865502068134,12110.0,1.5733974210528532944865502068134
175,12251.1745515180830424724390867142007,12249.6,1.5745515180830424724390867142007
176,12391.5756990356787119138540402820462,12390.0,1.5756990356787119138540402820462
177,12532.7768400484524989146451007019415,12531.2,1.5768400484524989146451007019415
178,12674.7779746297548518608206734598987,12673.2,1.5779746297548518608206734598987
179,12817.5791028517023428452869184245900,12816.0,1.5791028517023428452869184245900
180,12961.1802247852051927245350383032834,12959.6,1.5802247852051927245350383032834
181,13105.5813404999940312637687628654322,13104.0,1.5813404999940312637687628654322
182,13250.7824500646459200658271203998816,13249.2,1.5824500646459200658271203998816
183,13396.7835535466096613331461930760341,13395.2,1.5835535466096613331461930760341
184,13543.5846510122304167042654611789257,13542.0,1.5846510122304167042654611789257
185,13691.1857425267736579729716794347880,13689.6,1.5857425267736579729716794347880
186,13839.5868281544484706586690971658819,13838.0,1.5868281544484706586690971658819
187,13988.7879079584302342284427691116600,13987.2,1.5879079584302342284427691116600
188,14138.7889820008826944070986751821467,14137.2,1.5889820008826944070986751821467
189,14289.5900503429794513062374016081653,14288.0,1.5900503429794513062374016081653
190,14441.1911130449248790234051082898454,14439.6,1.5911130449248790234051082898454
191,14593.5921701659744959338392107904350,14592.0,1.5921701659744959338392107904350
192,14746.7932217644548020569766967080219,14745.2,1.5932217644548020569766967080219
193,14900.7942678977826018015373574954500,14899.2,1.5942678977826018015373574954500
194,15055.5953086224838254299282692272028,15054.0,1.5953086224838254299282692272028
195,15211.1963439942118671742913842514732,15209.6,1.5963439942118671742913842514732
196,15367.5973740677654536960567325986894,15366.0,1.5973740677654536960567325986894
197,15524.7983988971060572642842913093856,15523.2,1.5983988971060572642842913093856
198,15682.7994185353748678147354683481435,15681.2,1.5994185353748678147354683481435
199,15841.6004330349093367234894677412716,15840.0,1.6004330349093367234894677412716
200,16001.2014424472593062352653654315498,15999.6,1.6014424472593062352653654315498
201,16161.6024468232027355228284016993279,16160.0,1.6024468232027355228284016993279
202,16322.8034462127610367535916824370337,16321.2,1.6034462127610367535916824370337
203,16484.8044406652140318180950365690724,16483.2,1.6044406652140318180950365690724
204,16647.6054302291145413352223493638639,16646.0,1.6054302291145413352223493638639
205,16811.2064149523026158994691683858918,16809.6,1.6064149523026158994691683858918
206,16975.6073948819194225889572590515952,16974.0,1.6073948819194225889572590515952
207,17140.8083700644207926048213720987349,17139.2,1.6083700644207926048213720987349
208,17306.8093405455904442633726403278719,17305.2,1.6093405455904442633726403278719
209,17473.6103063705528870838658954342511,17472.0,1.6103063705528870838658954342511
210,17641.2112675837860184674697908492355,17639.6,1.6112675837860184674697908492355
211,17809.6122242291334203263958071362993,17808.0,1.6122242291334203263958071362993
212,17978.8131763498163658903080318590441,17977.2,1.6131763498163658903080318590441
213,18148.8141239884455410679013961523259,18147.2,1.6141239884455410679013961523259
214,18319.6150671870324953393316402085657,18318.0,1.6150671870324953393316402085657
215,18491.2160059870008213857214223880280,18489.6,1.6160059870008213857214223880280
216,18663.6169404291970774101928365746530,18662.0,1.6169404291970774101928365746530
217,18836.8178705539014561094614593874813,18835.2,1.6178705539014561094614593874813
218,19010.8187964008382092684345688607396,19009.2,1.6187964008382092684345688607396
219,19185.6197180091858312507421043455225,19184.0,1.6197180091858312507421043455225
220,19361.2206354175870138933207127046568,19359.6,1.6206354175870138933207127046568
221,19537.6215486641583707073330859563012,19536.0,1.6215486641583707073330859563012
222,19714.8224577864999475827804395949717,19713.2,1.6224577864999475827804395949717
223,19892.8233628217045135576314731386120,19891.2,1.6233628217045135576314731386120
224,20071.6242638063666467107581352016041,20070.0,1.6242638063666467107581352016041
225,20251.2251607765916177352126845598727,20249.6,1.6251607765916177352126845598727
226,20431.6260537680040747297788173194554,20430.0,1.6260537680040747297788173194554
227,20612.8269428157565378516351181614702,20611.2,1.6269428157565378516351181614702
228,20794.8278279545377056403219340401151,20793.2,1.6278279545377056403219340401151
229,20977.6287092185805801651466778901297,20976.0,1.6287092185805801651466778901297
230,21161.2295866416704156822556434035187,21159.6,1.6295866416704156822556434035187
231,21345.6304602571524925906264247256196,21344.0,1.6304602571524925906264247256196
232,21530.8313300979397270958852457606492,21529.2,1.6313300979397270958852457606492
233,21716.8321961965201115674369853020489,21715.2,1.6321961965201115674369853020489
234,21903.6330585849640017349570938940441,21902.0,1.6330585849640017349570938940441
235,22091.2339172949312438953284267619130,22089.6,1.6339172949312438953284267619130
236,22279.6347723576781518287742031113313,22278.0,1.6347723576781518287742031113313
237,22468.8356238040643370442967050733813,22467.2,1.6356238040643370442967050733813
238,22658.8364716645593940854150238443984,22657.2,1.6364716645593940854150238443984
