Eigenstate,Energy,Kinetic Energy,Potential Energy
1,0.500000000822694568769389277061286565,0.0,0.500000000822694568769389277061286565
2,1.84623094302137089677239874140120181,1.2,0.64623094302137089677239874140120181
3,3.93633762548028512757661888156803211,3.2,0.73633762548028512757661888156803211
4,6.79966531067416247475420495700273149,6.0,0.79966531067416247475420495700273149
5,10.4480466322096728280512085336778189,9.6,0.8480466322096728280512085336778189
6,14.8870660849623629497241261887670851,14.0,0.8870660849623629497241261887670851
7,20.1197209504290787035763248689544214,19.2,0.9197209504290787035763248689544214
8,26.1477840150198724869001588319912068,25.2,0.9477840150198724869001588319912068
9,32.9723837777625800872532859044567659,32.0,0.9723837777625800872532859044567659
10,40.5942804928217806446961337251057736,39.6,0.9942804928217806446961337251057736
11,49.0140097303517969728703968455551017,48.0,1.0140097303517969728703968455551017
12,58.2319625856692607199196083108617344,57.2,1.0319625856692607199196083108617344
13,68.2484331888514855909102777273106217,67.2,1.0484331888514855909102777273106217
14,79.0636482375930796145224080593090544,78.0,1.0636482375930796145224080593090544
15,90.6777861130204029978306997360656664,89.6,1.0777861130204029978306997360656664
16,103.090989684562185791246533470625167,102.0,1.090989684562185791246533470625167
17,116.303375143411145680414988480723865,115.2,1.103375143411145680414988480723865
18,130.315038253530264721340603884373921,129.2,1.115038253530264721340603884373921
19,145.126058874756821366065529358099120,144.0,1.126058874756821366065529358099120
20,160.736504300436366455171608781768258,159.6,1.136504300436366455171608781768258
21,177.146431763504450058130220485149731,176.0,1.146431763504450058130220485149731
22,194.355890347645384555111022615283136,193.2,1.155890347645384555111022615283136
23,212.364922465228787606446565934561173,211.2,1.164922465228787606446565934561173
24,231.173565014710019384394726611788851,230.0,1.173565014710019384394726611788851
25,250.781850297426121747782055157766971,249.6,1.181850297426121747782055157766971
26,271.189806751403417149115121340018147,270.0,1.189806751403417149115121340018147
27,292.397459544320094469733749484488414,291.2,1.197459544320094469733749484488414
28,314.404831056865258038292019651928102,313.2,1.204831056865258038292019651928102
29,337.211941279940888175646334442352548,336.0,1.211941279940888175646334442352548
30,360.818808143503673976254309338157686,359.6,1.218808143503673976254309338157686
31,385.225447790697740490780984012425707,384.0,1.225447790697740490780984012425707
32,410.431874807851392857203004318189550,409.2,1.231874807851392857203004318189550
33,436.438102418601352099737438433468280,435.2,1.238102418601352099737438433468280
34,463.244142648657411031197457892260406,462.0,1.244142648657411031197457892260406
35,490.850006466381243615605342424401972,489.6,1.250006466381243615605342424401972
36,519.255703903319622259528010469041919,518.0,1.255703903319622259528010469041919
37,548.461244158028212944657475087395877,547.2,1.261244158028212944657475087395877
38,578.466635685891699365351334409582616,577.2,1.266635685891699365351334409582616
39,609.271886277148138580983477709412730,608.0,1.271886277148138580983477709412730
40,640.877003124929629906054499153612245,639.6,1.277003124929629906054499153612245
41,673.281992884814628484686562856279599,672.0,1.281992884814628484686562856279599
42,706.486861727132242392599129771639806,705.2,1.286861727132242392599129771639806
43,740.491615383052365763167656338090581,739.2,1.291615383052365763167656338090581
44,775.296259185327406417431903296599142,774.0,1.296259185327406417431903296599142
45,810.900798104413796907967341386784047,809.6,1.300798104413796907967341386784047
46,847.305236780588341603197989426384122,846.0,1.305236780588341603197989426384122
47,884.509579552580975825826038179835460,883.2,1.309579552580975825826038179835460
48,922.513830483167926694374883229121556,921.2,1.313830483167926694374883229121556
49,961.317993382104602772622225358379039,960.0,1.317993382104602772622225358379039
50,1000.92207182672341691781563789027029,999.6,1.32207182672341691781563789027029
51,1041.32606918047627975593469235447761,1040.0,1.32606918047627975593469235447761
52,1082.52998860966315599786558191233402,1081.2,1.32998860966315599786558191233402
53,1124.53383309855562569176474265048700,1123.2,1.33383309855562569176474265048700
54,1167.33760546309683137542906220059311,1166.0,1.33760546309683137542906220059311
55,1210.94130836333571660001308862964619,1209.6,1.34130836333571660001308862964619
56,1255.34494431473338672637277147773668,1254.0,1.34494431473338672637277147773668
57,1300.54851569846222393028862109913045,1299.2,1.34851569846222393028862109913045
58,1346.55202477080359116665116818292909,1345.2,1.35202477080359116665116818292909
59,1393.35547367173720589554544273449470,1392.0,1.35547367173720589554544273449470
60,1440.95886443280423986563332750895379,1439.6,1.35886443280423986563332750895379
61,1489.36219898431663702289683688546775,1488.0,1.36219898431663702289683688546775
62,1538.56547916197684060788451874262873,1537.2,1.36547916197684060788451874262873
63,1588.56870671296487861578307675196865,1587.2,1.36870671296487861578307675196865
64,1639.37188330154344431393445103052525,1638.0,1.37188330154344431393445103052525
65,1690.97501051422607367167830912405839,1689.6,1.37501051422607367167830912405839
66,1743.37808986454867421858638495787355,1742.0,1.37808986454867421858638495787355
67,1796.58112279748039755608657342818906,1795.2,1.38112279748039755608657342818906
68,1850.58411069350609158693539131343149,1849.2,1.38411069350609158693539131343149
69,1905.38705487240925585655242973402093,1904.0,1.38705487240925585655242973402093
70,1960.98995659678149513225014135236902,1959.6,1.38995659678149513225014135236902
71,2017.39281707528186764297832004738419,2016.0,1.39281707528186764297832004738419
72,2074.59563746566722616012418627669121,2073.2,1.39563746566722616012418627669121
73,2132.59841887761259709384687294357830,2131.2,1.39841887761259709384687294357830
74,2191.40116237533882393120069699015687,2190.0,1.40116237533882393120069699015687
75,2251.00386898006307024156099681691962,2249.6,1.40386898006307024156099681691962
76,2311.40653967228632791846758839817173,2310.0,1.40653967228632791846758839817173
77,2372.60917539393077392896859311983285,2371.2,1.40917539393077392896859311983285
78,2434.61177705033865304375546683055739,2433.2,1.41177705033865304375546683055739
79,2497.41434551214331720179359710582664,2496.0,1.41434551214331720179359710582664
80,2561.01688161702211403792685242831459,2559.6,1.41688161702211403792685242831459
81,2625.41938617133996776089686176151833,2624.0,1.41938617133996776089686176151833
82,2690.62185995169173411910883614604275,2689.2,1.42185995169173411910883614604275
83,2756.62430370635072245815313256788025,2755.2,1.42430370635072245815313256788025
84,2823.42671815663015358285800705496923,2822.0,1.42671815663015358285800705496923
85,2891.02910399816376286097334504151010,2889.6,1.42910399816376286097334504151010
86,2959.43146190211124214070559678776591,2958.0,1.43146190211124214070559678776591
87,3028.63379251629375658406886380197369,3027.2,1.43379251629375658406886380197369
88,3098.63609646626434914082434276714455,3097.2,1.43609646626434914082434276714455
89,3169.43837435631766188618878881813567,3168.0,1.43837435631766188618878881813567
90,3241.04062677044306022936612912918686,3239.6,1.44062677044306022936612912918686
91,3313.44285427322492454850352384571511,3312.0,1.44285427322492454850352384571511
92,3386.64505741069358551078107620969699,3385.2,1.44505741069358551078107620969699
93,3460.64723671113011708193382029522924,3459.2,1.44723671113011708193382029522924
94,3535.44939268582795830145471176152738,3534.0,1.44939268582795830145471176152738
95,3611.05152582981411374639929696887147,3609.6,1.45152582981411374639929696887147
96,3687.45363662253248078532236322639459,3686.0,1.45363662253248078532236322639459
97,3764.65572552849166738253271554938217,3763.2,1.45572552849166738253271554938217
98,3842.65779299787949133932424043020388,3841.2,1.45779299787949133932424043020388
99,3921.45983946714619838748362383295842,3920.0,1.45983946714619838748362383295842
100,4001.06186535955829021078201893721284,3999.6,1.46186535955829021078201893721284
101,4081.46387108572472416688769793665919,4080.0,1.46387108572472416688769793665919
102,4162.66585704409712090831211754703001,4161.2,1.46585704409712090831211754703001
103,4244.66782362144550818832996359783845,4243.2,1.46782362144550818832996359783845
104,4327.46977119331102187407657846260453,4326.0,1.46977119331102187407657846260453
105,4411.07170012443689211627293057443569,4409.6,1.47170012443689211627293057443569
106,4495.47361076917895186183520066679552,4494.0,1.47361076917895186183520066679552
107,4580.67550347189682681475334090877907,4579.2,1.47550347189682681475334090877907
108,4666.67737856732688671219623224227427,4665.2,1.47737856732688671219623224227427
109,4753.47923638093796919043951134201321,4752.0,1.47923638093796919043951134201321
110,4841.08107722927082509629359520933159,4839.6,1.48107722927082509629359520933159
111,4929.48290142026216823977699400659743,4928.0,1.48290142026216823977699400659743
112,5018.68470925355416315145780186135955,5017.2,1.48470925355416315145780186135955
113,5108.68650102079012887344079670377346,5107.2,1.48650102079012887344079670377346
114,5199.48827700589718805665024312778129,5198.0,1.48827700589718805665024312778129
115,5291.09003748535655019000557297374765,5289.6,1.49003748535655019000557297374765
116,5383.49178272846206945697962912893543,5382.0,1.49178272846206945697962912893543
117,5476.69351299756768600359707429185469,5475.2,1.49351299756768600359707429185469
118,5570.69522854832431837247881045995977,5569.2,1.49522854832431837247881045995977
119,5665.49692962990674114553239875664327,5664.0,1.49692962990674114553239875664327
120,5761.09861648523095599743532770735473,5759.6,1.49861648523095599743532770735473
121,5857.50028935116252609667102514631713,5856.0,1.50028935116252609667102514631713
122,5954.70194845871632487967071748919948,5953.2,1.50194845871632487967071748919948
123,6052.70359403324811803268575543285671,6051.2,1.50359403324811803268575543285671
124,6151.50522629463837983829675404881198,6150.0,1.50522629463837983829675404881198
125,6251.10684545746871547938264111541973,6249.6,1.50684545746871547938264111541973
126,6351.50845173119124569832586324012042,6350.0,1.50845173119124569832586324012042
127,6452.71004532029128963370912839341862,6451.2,1.51004532029128963370912839341862
128,6554.71162642444365907202306369940308,6553.2,1.51162642444365907202306369940308
129,6657.51319523866286528121705870963228,6656.0,1.51319523866286528121705870963228
130,6761.11475195344752121372734426117944,6759.6,1.51475195344752121372734426117944
131,6865.51629675491920646527091443346163,6864.0,1.51629675491920646527091443346163
132,6970.71782982495604740139607236109509,6969.2,1.51782982495604740139607236109509
133,7076.71935134132125308519216667498710,7075.2,1.51935134132125308519216667498710
134,7183.52086147778683636677255680632493,7182.0,1.52086147778683636677255680632493
135,7291.12236040425273139007175798308192,7289.6,1.52236040425273139007175798308192
136,7399.52384828686151508837777260347231,7398.0,1.52384828686151508837777260347231
137,7508.72532528810892693567735745210914,7507.2,1.52532528810892693567735745210914
138,7618.72679156695036761259866372666594,7617.2,1.52679156695036761259866372666594
139,7729.52824727890355514373707935173215,7728.0,1.52824727890355514373707935173215
140,7841.12969257614750162124078433160111,7839.6,1.52969257614750162124078433160111
141,7953.53112760761796907627890060503723,7952.0,1.53112760761796907627890060503723
142,8066.73255251909955499118275637175795,8065.2,1.53255251909955499118275637175795
143,8180.73396745331454929951043717658854,8179.2,1.53396745331454929951043717658854
144,8295.53537255000869754648256100431655,8294.0,1.53537255000869754648256100431655
145,8411.13676794603400069953202153094744,8409.6,1.53676794603400069953202153094744
146,8527.53815377542867423524799077479126,8526.0,1.53815377542867423524799077479126
147,8644.73953016949438093155471413830541,8643.2,1.53953016949438093155471413830541
148,8762.74089725687085284170864623480449,8761.2,1.54089725687085284170864623480449
149,8881.54225516360800440467857829750017,8880.0,1.54225516360800440467857829750017
150,9001.14360401323564049270733631052520,8999.6,1.54360401323564049270733631052520
151,9121.54494392683085547688581233467306,9120.0,1.54494392683085547688581233467306
152,9242.74627502308321378337396610428783,9241.2,1.54627502308321378337396610428783
153,9364.74759741835780107073463658168421,9363.2,1.54759741835780107073463658168421
154,9487.54891122675623011596186822740680,9486.0,1.54891122675623011596186822740680
155,9611.15021656017567984152722166619465,9609.6,1.55021656017567984152722166619465
156,9735.55151352836604555448734239811585,9734.0,1.55151352836604555448734239811585
157,9860.75280223898527165766054516899660,9859.2,1.55280223898527165766054516899660
158,9986.75408279765293887361368647714001,9985.2,1.55408279765293887361368647714001
159,10113.5553553080021698864828492472047,10112.0,1.5553553080021698864828492472047
160,10241.1566198717299199815181916044282,10239.6,1.5566198717299199815181916044282
161,10369.5578765886457114313861277563781,10368.0,1.5578765886457114313861277563781
162,10498.7591255567188713543708351865244,10497.2,1.5591255567188713543708351865244
163,10628.7603668721243281734845967548789,10627.2,1.5603668721243281734845967548789
164,10759.5616006292870216010672635201280,10758.0,1.5616006292870216010672635201280
165,10891.1628269209249750499480087664893,10889.6,1.5628269209249750499480087664893
166,11023.5640458380910813011424328084041,11022.0,1.5640458380910813011424328084041
167,11156.7652574702136489890225564558468,11155.2,1.5652574702136489890225564558468
168,11290.7664619051357529364535414171900,11289.2,1.5664619051357529364535414171900
169,11425.5676592291534337612610607519220,11424.0,1.5676592291534337612610607519220
170,11561.1688495270527868730152906846174,11559.6,1.5688495270527868730152906846174
171,11697.5700328821459814478223237151852,11696.0,1.5700328821459814478223237151852
172,11834.7712093763062476593742464489569,11833.2,1.5712093763062476593742464489569
173,11972.7723790900018679994464248259891,11971.2,1.5723790900018679994464248259891
174,12111.5735421023292089825674902240379,12110.0,1.5735421023292089825674902240379
175,12251.1746984910448276923863454390761,12249.6,1.5746984910448276923863454390761
176,12391.5758483325966833712731826296997,12390.0,1.5758483325966833712731826296997
177,12532.7769917021544878326398910866449,12531.2,1.5769917021544878326398910866449
178,12674.7781286736392243944355701904782,12673.2,1.5781286736392243944355701904782
179,12817.5792593197518623492595550753933,12816.0,1.5792593197518623492595550753933
180,12961.1803837120012985159523273792537,12959.6,1.5803837120012985159523273792537
181,13105.5815019207315491491512325222356,13104.0,1.5815019207315491491512325222356
182,13250.7826140151482205612548700498849,13249.2,1.5826140151482205612548700498849
183,13396.7837200633442821980149449704733,13395.2,1.5837200633442821980149449704733
184,13543.5848201323251671359731680597616,13542.0,1.5848201323251671359731680597616
185,13691.1859142880332225732904278674510,13689.6,1.5859142880332225732904278674510
186,13839.5870025953715320848497591485457,13838.0,1.5870025953715320848497591485457
187,13988.7880851182271342855018875114695,13987.2,1.5880851182271342855018875114695
188,14138.7891619194936542245913619463480,14137.2,1.5891619194936542245913619463480
189,14289.5902330610933721757566231906055,14288.0,1.5902330610933721757566231906055
190,14441.1912986039987464546808052021678,14439.6,1.5912986039987464546808052021678
191,14593.5923586082534105206324001592706,14592.0,1.5923586082534105206324001592706
192,14746.7934131329926618320059938601842,14745.2,1.5934131329926618320059938601842
193,14900.7944622364634619057608977216421,14899.2,1.5944622364634619057608977216421
194,15055.5955059760439621291521744594270,15054.0,1.5955059760439621291521744594270
195,15211.1965444082625745290177732288832,15209.6,1.5965444082625745290177732288832
196,15367.5975775888166025328064438709739,15366.0,1.5975775888166025328064438709739
197,15524.7986055725904475125530367557837,15523.2,1.5986055725904475125530367557837
198,15682.7996284136734067679079842890917,15681.2,1.5996284136734067679079842890917
199,15841.6006461653770773593702452237191,15840.0,1.6006461653770773593702452237191
200,16001.2016588802523813976003041529774,15999.6,1.6016588802523813976003041529774
201,16161.6026666101062255249960573180626,16160.0,1.6026666101062255249960573180626
202,16322.8036694060178098255417254578233,16321.2,1.6036694060178098255417254578233
203,16484.8046673183545987840769755636630,16483.2,1.6046673183545987840769755636630
204,16647.6056603967879679898881389327270,16646.0,1.6056603967879679898881389327270
205,16811.2066486903085387509184354303478,16809.6,1.6066486903085387509184354303478
206,16975.6076322472412159673561527359701,16974.0,1.6076322472412159673561527359701
207,17140.8086111152599376028708164660224,17139.2,1.6086111152599376028708164660224
208,17306.8095853414021525894379586044531,17305.2,1.6095853414021525894379586044531
209,17473.6105549720830356799792891170176,17472.0,1.6105549720830356799792891170176
210,17641.2115200531094536833274530483685,17639.6,1.6115200531094536833274530483685
211,17809.6124806296936935585333111103255,17808.0,1.6124806296936935585333111103255
212,17978.8134367464669659051781579002992,17977.2,1.6134367464669659051781579002992
213,18148.8143884474926917420848942906756,18147.2,1.6143884474926917420848942906756
214,18319.6153357762795912839849188808262,18318.0,1.6153357762795912839849188808262
215,18491.2162787757945778912559064386755,18489.6,1.6162787757945778912559064386755
216,18663.6172174884754753679073814527350,18662.0,1.6172174884754753679073814527350
217,18836.8181519562435670576316029844553,18835.2,1.6181519562435670576316029844553
218,19010.8190822205159904909598012858163,19009.2,1.6190822205159904909598012858163
219,19185.6200083222179859480339806328750,19184.0,1.6200083222179859480339806328750
220,19361.2209303017950168709313468351202,19359.6,1.6209303017950168709313468351202
221,19537.6218481992247658127668612069309,19536.0,1.6218481992247658127668612069309
222,19714.8227620540290292920976557483420,19713.2,1.6227620540290292920976557483420
223,19892.8236719052855117003852884305700,19891.2,1.6236719052855117003852884305700
224,20071.6245777916395403562301560803334,20070.0,1.6245777916395403562301560803334
225,20251.2254797513157117797728104903511,20249.6,1.6254797513157117797728104903511
226,20431.6263778221294807619570399904590,20430.0,1.6263778221294807619570399904590
227,20612.8272720414987094694264711758440,20611.2,1.6272720414987094694264711758440
228,20794.8281624464551875988774484095438,20793.2,1.6281624464551875988774484095438
229,20977.6290490736561405911611036086093,20976.0,1.6290490736561405911611036086093
230,21161.2299319593957411570732984111267,21159.6,1.6299319593957411570732984111267
231,21345.6308111396166372353388900526579,21344.0,1.6308111396166372353388900526579
232,21530.8316866499215189518874276153004,21529.2,1.6316866499215189518874276153004
233,21716.8325585255847326241260482068683,21715.2,1.6325585255847326241260482068683
234,21903.6334268015639719883721681183767,21902.0,1.6334268015639719883721681183767
235,22091.2342915125120549103975432403248,22089.6,1.6342915125120549103975432403248
236,22279.6351526927888115143486417146704,22278.0,1.6351526927888115143486417146704
237,22468.8360103764731048341294910008599,22467.2,1.6360103764731048341294910008599
238,22658.8368645973750045589706847633472,22657.2,1.6368645973750045589706847633472
