Eigenstate,Energy,Kinetic Energy,Potential Energy
1,0.500000000020506126281758525738293063,0.0,0.500000000020506126281758525738293063
2,1.84623093778496785847187390328239512,1.2,0.64623093778496785847187390328239512
3,3.93633761009815825872610831912502541,3.2,0.73633761009815825872610831912502541
4,6.79966527863319213632407041764587549,6.0,0.79966527863319213632407041764587549
5,10.4480465767042780655759221907423413,9.6,0.8480465767042780655759221907423413
6,14.8870659990653977244160718526582711,14.0,0.8870659990653977244160718526582711
7,20.1197208271544004398234971854104246,19.2,0.9197208271544004398234971854104246
8,26.1477838473480667809186087224802162,25.2,0.9477838473480667809186087224802162
9,32.9723835586525831919839246325792769,32.0,0.9723835586525831919839246325792769
10,40.5942802152164649317800013552722168,39.6,0.9942802152164649317800013552722168
11,49.0140093871807134825555979416885972,48.0,1.0140093871807134825555979416885972
12,58.2319621698499320247058389016214152,57.2,1.0319621698499320247058389016214152
13,68.2484326932899084391672100869994249,67.2,1.0484326932899084391672100869994249
14,79.0636476551837717734253814326299424,78.0,1.0636476551837717734253814326299424
15,90.6777854366461740721243513168069677,89.6,1.0777854366461740721243513168069677
16,103.090988907093733590533798971986378,102.0,1.090988907093733590533798971986378
17,116.303374257706538024750966772200732,115.2,1.103374257706538024750966772200732
18,130.315037252434343320847177698647028,129.2,1.115037252434343320847177698647028
19,145.126057751100550909466404446789498,144.0,1.126057751100550909466404446789498
20,160.736503047036143923650699792790122,159.6,1.136503047036143923650699792790122
21,177.146430373161384244531103093619120,176.0,1.146430373161384244531103093619120
22,194.355888813144552556038223547273362,193.2,1.155888813144552556038223547273362
23,212.364920779338472953948069630934609,211.2,1.164920779338472953948069630934609
24,231.173563170180935078613471565039743,230.0,1.173563170180935078613471565039743
25,250.781848286990620492468277155199505,249.6,1.181848286990620492468277155199505
26,271.189804567774690424360038582539613,270.0,1.189804567774690424360038582539613
27,292.397457180191361603774409774398086,291.2,1.197457180191361603774409774398086
28,314.404828504908946100362842160848477,313.2,1.204828504908946100362842160848477
29,337.211938532807803263685581993449386,336.0,1.211938532807803263685581993449386
30,360.818805193822164289482487576504390,359.6,1.218805193822164289482487576504390
31,385.225444631072851439199701645198720,384.0,1.225444631072851439199701645198720
32,410.431871430864014355133681587798050,409.2,1.231871430864014355133681587798050
33,436.438098816807358109692201347602601,435.2,1.238098816807358109692201347602601
34,463.244138814586791361323864312131581,462.0,1.244138814586791361323864312131581
35,490.850002392537227924135439712165036,489.6,1.250002392537227924135439712165036
36,519.255699582177796179804495520069561,518.0,1.255699582177796179804495520069561
37,548.461239582035626211991906293416582,547.2,1.261239582035626211991906293416582
38,578.466630847465965800411180971179780,577.2,1.266630847465965800411180971179780
39,609.271881168676527762270049768526207,608.0,1.271881168676527762270049768526207
40,640.876997738768150345316939994351344,639.6,1.276997738768150345316939994351344
41,673.281987213287102103055041492824232,672.0,1.281987213287102103055041492824232
42,706.486855762529370081223206038809800,705.2,1.286855762529370081223206038809800
43,740.491609117630783799761254733013543,739.2,1.291609117630783799761254733013543
44,775.296252611308733499002008317164015,774.0,1.296252611308733499002008317164015
45,810.900791213983671549859509096432088,809.6,1.300791213983671549859509096432088
46,847.305229565895449645209805417848821,846.0,1.305229565895449645209805417848821
47,884.509572005736067777346405930909291,883.2,1.309572005736067777346405930909291
48,922.513822596242824642158924413174734,921.2,1.313822596242824642158924413174734
49,961.317985147131196566799188402304934,960.0,1.317985147131196566799188402304934
50,1000.92206323569264934395617615689996,999.6,1.32206323569264934395617615689996
51,1041.32606022533712039339736346307233,1040.0,1.32606022533712039339736346307233
52,1082.52997928232156345714201290734943,1081.2,1.32997928232156345714201290734943
53,1124.53382339087349791609214920141953,1123.2,1.33382339087349791609214920141953
54,1167.33759536689094368449607169620865,1166.0,1.33759536689094368449607169620865
55,1210.94129787037664714611189911917415,1209.6,1.34129787037664714611189911917415
56,1255.34493341674442902581727464847132,1254.0,1.34493341674442902581727464847132
57,1300.54850438711828612529561191840478,1299.2,1.34850438711828612529561191840478
58,1346.55201303773008166514111246073988,1345.2,1.35201303773008166514111246073988
59,1393.35546150850890502845203046443838,1392.0,1.35546150850890502845203046443838
60,1440.95885183094415719328146589199928,1439.6,1.35885183094415719328146589199928
61,1489.36218593529485391381217075006578,1488.0,1.36218593529485391381217075006578
62,1538.56546565720933770500992633037206,1537.2,1.36546565720933770500992633037206
63,1588.56869274381234779649080518329189,1587.2,1.36869274381234779649080518329189
64,1639.37186885931008474141671977243681,1638.0,1.37186885931008474141671977243681
65,1690.97499559015837152626180005975163,1689.6,1.37499559015837152626180005975163
66,1743.37807444983416568823895494288554,1742.0,1.37807444983416568823895494288554
67,1796.58110688324641465585088018594752,1795.2,1.38110688324641465585088018594752
68,1850.58409427081849036722190147399893,1849.2,1.38409427081849036722190147399893
69,1905.38703793227112655014076466043759,1904.0,1.38703793227112655014076466043759
70,1960.98993913013185377948101266528674,1959.6,1.38993913013185377948101266528674
71,2017.39279907299432872393479444303640,2016.0,1.39279907299432872393479444303640
72,2074.59561891854865575161655885060216,2073.2,1.39561891854865575161655885060216
73,2132.59839977640174605768984815171452,2131.2,1.39839977640174605768984815171452
74,2191.40114271070494062861792619007210,2190.0,1.40114271070494062861792619007210
75,2251.00384874260449225653618660003497,2249.6,1.40384874260449225653618660003497
76,2311.40651885252905226048923735373958,2310.0,1.40651885252905226048923735373958
77,2372.60915398232700517285759223231775,2371.2,1.40915398232700517285759223231775
78,2434.61175503726532885111886017299721,2433.2,1.41175503726532885111886017299721
79,2497.41432288790061065509619249725224,2496.0,1.41432288790061065509619249725224
80,2561.01685837183191220420238830363979,2559.6,1.41685837183191220420238830363979
81,2625.41936229534432588771153602761789,2624.0,1.41936229534432588771153602761789
82,2690.62183543495130485053662529815821,2689.2,1.42183543495130485053662529815821
83,2756.62427853884315944320194639103487,2755.2,1.42427853884315944320194639103487
84,2823.42669232824848883298301336934383,2822.0,1.42669232824848883298301336934383
85,2891.02907749871475719701310795616775,2889.6,1.42907749871475719701310795616775
86,2959.43143472131370805276623823315531,2958.0,1.43143472131370805276623823315531
87,3028.63376464377685281052646767010163,3027.2,1.43376464377685281052646767010163
88,3098.63606789156584625471789453485103,3097.2,1.43606789156584625471789453485103
89,3169.43834506888217815880808157393244,3168.0,1.43834506888217815880808157393244
90,3241.04059675962026702176845903621232,3239.6,1.44059675962026702176845903621232
91,3313.44282352826772046202455605818528,3312.0,1.44282352826772046202455605818528
92,3386.64502592075623850728978762707949,3385.2,1.44502592075623850728978762707949
93,3460.64720446526637376362090991465528,3459.2,1.44720446526637376362090991465528
94,3535.44935967298911951829514191750486,3534.0,1.44935967298911951829514191750486
95,3611.05149203884707567707997024503572,3609.6,1.45149203884707567707997024503572
96,3687.45360204217774061435020330718867,3686.0,1.45360204217774061435020330718867
97,3764.65569014738129267239726040963364,3763.2,1.45569014738129267239726040963364
98,3842.65775680453505217198096038989419,3841.2,1.45775680453505217198096038989419
99,3921.45980244997666132398496266018207,3920.0,1.45980244997666132398496266018207
100,4001.06182750685787309162093589592757,3999.6,1.46182750685787309162093589592757
101,4081.46383238567071074847205499899193,4080.0,1.46383238567071074847205499899193
102,4162.66581748474763430294535066838701,4161.2,1.46581748474763430294535066838701
103,4244.66778319073724204608955173494381,4243.2,1.46778319073724204608955173494381
104,4327.46972987905692821502465185659871,4326.0,1.46972987905692821502465185659871
105,4411.07165791432382469047252811334862,4409.6,1.47165791432382469047252811334862
106,4495.47356765076526388263423901226802,4494.0,1.47356765076526388263423901226802
107,4580.67545943260992187770420058926961,4579.2,1.47545943260992187770420058926961
108,4666.67733359446072167775705851607399,4665.2,1.47733359446072167775705851607399
109,4753.47919046165050777320892475002203,4752.0,1.47919046165050777320892475002203
110,4841.08103035058144086692956039448031,4839.6,1.48103035058144086692956039448031
111,4929.48285356904899570788359752117916,4928.0,1.48285356904899570788359752117916
112,5018.68466041655139555854539019537085,5017.2,1.48466041655139555854539019537085
113,5108.68645118458526128453801640309226,5107.2,1.48645118458526128453801640309226
114,5199.48822615692820429719063824147199,5198.0,1.48822615692820429719063824147199
115,5291.08998560990905213120580614835633,5289.6,1.48998560990905213120580614835633
116,5383.49172981266634710798012556324377,5382.0,1.49172981266634710798012556324377
117,5476.69345902739572682211489050977667,5475.2,1.49345902739572682211489050977667
118,5570.69517350958675415754776818473591,5569.2,1.49517350958675415754776818473591
119,5665.49687350824973082602027505085242,5664.0,1.49687350824973082602027505085242
120,5761.09855926613300257836083307099644,5759.6,1.49855926613300257836083307099644
121,5857.50023101993122597181896257873563,5856.0,1.50023101993122597181896257873563
122,5954.70188900048504766355336854847518,5953.2,1.50188900048504766355336854847518
123,6052.70353343297261500744469829782008,6051.2,1.50353343297261500744469829782008
124,6151.50516453709331905159506552985897,6150.0,1.50516453709331905159506552985897
125,6251.10678252724414146761335429663665,6249.6,1.50678252724414146761335429663665
126,6351.50838761268896174548774218966359,6350.0,1.50838761268896174548774218966359
127,6452.70997999772116040996047733076753,6451.2,1.50997999772116040996047733076753
128,6554.71155988181983142713008113826653,6553.2,1.51155988181983142713008113826653
129,6657.51312745979990489676801550112595,6656.0,1.51312745979990489676801550112595
130,6761.11468292195646274396959975303395,6759.6,1.51468292195646274396959975303395
131,6865.51622645420351471964089079014352,6864.0,1.51622645420351471964089079014352
132,6970.71775823820748704212243712275721,6969.2,1.51775823820748704212243712275721
133,7076.71927845151566423066685362612068,7075.2,1.51927845151566423066685362612068
134,7183.52078726767981340552832726301232,7182.0,1.52078726767981340552832726301232
135,7291.12228485637520222107966019318857,7289.6,1.52228485637520222107966019318857
136,7399.52377138351521791084209272430653,7398.0,1.52377138351521791084209272430653
137,7508.72524701136178161536958794226471,7507.2,1.52524701136178161536958794226471
138,7618.72671189863173855193861785616650,7617.2,1.52671189863173855193861785616650
139,7729.52816620059940247908891502482359,7728.0,1.52816620059940247908891502482359
140,7841.12961006919541746309236852720073,7839.6,1.52961006919541746309236852720073
141,7953.53104365310209539593728761110118,7952.0,1.53104365310209539593728761110118
142,8066.73246709784537964114815778968424,8065.2,1.53246709784537964114815778968424
143,8180.73388054588357653359179949702247,8179.2,1.53388054588357653359179949702247
144,8295.53528413669298927978371892434493,8294.0,1.53528413669298927978371892434493
145,8411.13667800685058461744950688425549,8409.6,1.53667800685058461744950688425549
146,8527.53806229011381472434507629211729,8526.0,1.53806229011381472434507629211729
147,8644.73943711749770866337364581588383,8643.2,1.53943711749770866337364581588383
148,8762.74080261734934869300391239949023,8761.2,1.54080261734934869300391239949023
149,8881.54215891541983324391968782410241,8880.0,1.54215891541983324391968782410241
150,9001.14350613493383020275405136090890,8999.6,1.54350613493383020275405136090890
151,9121.54484439665681641713719724882331,9120.0,1.54484439665681641713719724882331
152,9242.74617381896009372120271692979036,9241.2,1.54617381896009372120271692979036
153,9364.74749451788367043122016564444761,9363.2,1.54749451788367043122016564444761
154,9487.54880660719709221056988679390957,9486.0,1.54880660719709221056988679390957
155,9611.15011019845830054002628786898216,9609.6,1.55011019845830054002628786898216
156,9735.55140540107059665968568120960613,9734.0,1.55140540107059665968568120960613
157,9860.75269232233778202911472943089326,9859.2,1.55269232233778202911472943089326
158,9986.75397106751754712379313067746798,9985.2,1.55397106751754712379313067746798
159,10113.5552417398731722406561173257439,10112.0,1.5552417398731722406561173257439
160,10241.1565044407236066502466816484160,10239.6,1.5565044407236066502466816484160
161,10369.5577592694919845915686079601447,10368.0,1.5577592694919845915686079601447
162,10498.7590063237526375707119266771678,10497.2,1.5590063237526375707119266771678
163,10628.7602456992766578165202137137280,10627.2,1.5602456992766578165202137137280
164,10759.5614774900760675298648738933695,10758.0,1.5614774900760675298648738933695
165,10891.1627017884466425267142321305106,10889.6,1.5627017884466425267142321305106
166,11023.5639186850094407905562841660918,11022.0,1.5639186850094407905562841660918
167,11156.7651282687510831664646906453309,11155.2,1.5651282687510831664646906453309
168,11290.7663306270628288856916836336899,11289.2,1.5663306270628288856916836336899
169,11425.5675258457784909828485592122346,11424.0,1.5675258457784909828485592122346
170,11561.1687140092112313487595961825641,11559.6,1.5687140092112313487595961825641
171,11697.5698952001892756134202858028598,11696.0,1.5698952001892756134202858028598
172,11834.7710695000905857256878705482792,11833.2,1.5710695000905857256878705482792
173,11972.7722369888765256320050251874448,11971.2,1.5722369888765256320050251874448
174,12111.5733977451245558976407253828000,12110.0,1.5733977451245558976407253828000
175,12251.1745518460599912553513620581078,12249.6,1.5745518460599912553513620581078
176,12391.5756993675868507877849319074752,12390.0,1.5756993675868507877849319074752
177,12532.7768403843178340041357620735575,12531.2,1.5768403843178340041357620735575
178,12674.7779749696034519654159741769069,12673.2,1.5779749696034519654159741769069
179,12817.5791031955603399032594140836934,12816.0,1.5791031955603399032594140836934
180,12961.1802251330987822786269231151629,12959.6,1.5802251330987822786269231151629
181,13105.5813408519494729289689742263352,13104.0,1.5813408519494729289689742263352
182,13250.7824504206895379992009073714976,13249.2,1.5824504206895379992009073714976
183,13396.7835539067678447057345405424639,13395.2,1.5835539067678447057345405424639
184,13543.5846513765296201750719440726554,13542.0,1.5846513765296201750719440726554
185,13691.1857428952404021650543526257747,13689.6,1.5857428952404021650543526257747
186,13839.5868285271093426373552122967223,13838.0,1.5868285271093426373552122967223
187,13988.7879083353118879816841937644910,13987.2,1.5879083353118879816841937644910
188,14138.7889823820118513279860230839967,14137.2,1.5889823820118513279860230839967
189,14289.5900507283829006776910227466589,14288.0,1.5900507283829006776910227466589
190,14441.1911134346294785050611590516871,14439.6,1.5911134346294785050611590516871
191,14593.5921705600071720511492198389283,14592.0,1.5921705600071720511492198389283
192,14746.7932221628425506925391106124010,14745.2,1.5932221628425506925391106124010
193,14900.7942683005524886886796842656852,14899.2,1.5942683005524886886796842656852
194,15055.5953090296629866485586257356764,15054.0,1.5953090296629866485586257356764
195,15211.1963444058275096490382848934352,15209.6,1.5963444058275096490382848934352
196,15367.5973744838448556967161586159037,15366.0,1.5973744838448556967161586159037
197,15524.7983993176765689085932211491326,15523.2,1.5983993176765689085932211491326
198,15682.7994189604639115734911065512030,15681.2,1.5994189604639115734911065512030
199,15841.6004334645444079280336451314132,15840.0,1.6004334645444079280336451314132
200,16001.2014428814679735873536127000004,15999.6,1.6014428814679735873536127000004
201,16161.6024472620126416069034153562859,16160.0,1.6024472620126416069034153562859
202,16322.8034466561998985514810531320630,16321.2,1.6034466561998985514810531320630
203,16484.8044411133096412261531430819478,16483.2,1.6044411133096412261531430819478
204,16647.6054306818947656839365796143556,16646.0,1.6054306818947656839365796143556
205,16811.2064154097953984755507079674923,16809.6,1.6064154097953984755507079674923
206,16975.6073953441527831599368498045231,16974.0,1.6073953441527831599368498045231
207,17140.8083705314228279461705930635068,17139.2,1.6083705314228279461705930635068
208,17306.8093410173893286881713907549564,17305.2,1.6093410173893286881713907549564
209,17473.6103068471768729750369523316082,17472.0,1.6103068471768729750369523316082
210,17641.2112680652634368126013837099093,17639.6,1.6112680652634368126013837099093
211,17809.6122247154926812551733987401546,17808.0,1.6122247154926812551733987401546
212,17978.8131768410859592145765829046788,17977.2,1.6131768410859592145765829046788
213,18148.8141244846540368243795542426952,18147.2,1.6141244846540368243795542426952
214,18319.6150676882085443349994757967824,18318.0,1.6150676882085443349994757967824
215,18491.2160064931731557459034675422389,18489.6,1.6160064931731557459034675422389
216,18663.6169409403945111293583397782836,18662.0,1.6169409403945111293583397782836
217,18836.8178710701528856047639604901429,18835.2,1.6178710701528856047639604901429
218,19010.8187969221726139360130143180466,19009.2,1.6187969221726139360130143180466
219,19185.6197185356322740248059205205434,19184.0,1.6197185356322740248059205205434
220,19361.2206359491746418080414127818635,19359.6,1.6206359491746418080414127818635
221,19537.6215492009164154615651395802738,19536.0,1.6215492009164154615651395802738
222,19714.8224583284577261076343443014372,19713.2,1.6224583284577261076343443014372
223,19892.8233633688914285869220469907520,19891.2,1.6233633688914285869220469907520
224,20071.6242643588121873543513285426951,20070.0,1.6242643588121873543513285426951
225,20251.2251613343253600552943326991339,20249.6,1.6251613343253600552943326991339
226,20431.6260543310556823200688824421473,20430.0,1.6260543310556823200688824421473
227,20612.8269433841557624195712607046360,20611.2,1.6269433841557624195712607046360
228,20794.8278285283143875922363128519504,20793.2,1.6278285283143875922363128519504
229,20977.6287097977646491944601386185154,20976.0,1.6287097977646491944601386185154
230,21161.2295872262918913607135929992655,21159.6,1.6295872262918913607135929992655
231,21345.6304608472414849626009121736685,21344.0,1.6304608472414849626009121736685
232,21530.8313306935264372757679222851923,21529.2,1.6313306935264372757679222851923
233,21716.8321967976348323401477801996731,21715.2,1.6321967976348323401477801996731
234,21903.6330591916371181595937396996797,21902.0,1.6330591916371181595937396996797
235,22091.2339179071932339119820004873975,22089.6,1.6339179071932339119820004873975
236,22279.6347729755595868685361785096493,22278.0,1.6347729755595868685361785096493
237,22468.8356244275958826424831454050843,22467.2,1.6356244275958826424831454050843
238,22658.8364722937718104980337490819565,22657.2,1.6364722937718104980337490819565
