Eigenstate,Energy,Kinetic Energy,Potential Energy
1,0.500000000046613887586092784776508218,0.0,0.500000000046613887586092784776508218
2,1.84623093795538586717131335612379934,1.2,0.64623093795538586717131335612379934
3,3.93633761059874808615717798076326039,3.2,0.73633761059874808615717798076326039
4,6.79966527967586552209654325111331608,6.0,0.79966527967586552209654325111331608
5,10.4480465785104060093174745602298433,9.6,0.8480465785104060093174745602298433
6,14.8870660018602281861631800176118463,14.0,0.8870660018602281861631800176118463
7,20.1197208311650016004322845617504532,19.2,0.9197208311650016004322845617504532
8,26.1477838528024693678129677626720151,25.2,0.9477838528024693678129677626720151
9,32.9723835657793817252033443909176176,32.0,0.9723835657793817252033443909176176
10,40.5942802242446153989984224333873293,39.6,0.9942802242446153989984224333873293
11,49.0140093983394234840876400666222358,48.0,1.0140093983394234840876400666222358
12,58.2319621833685980400128340077047911,57.2,1.0319621833685980400128340077047911
13,68.2484327093980787466841904228953725,67.2,1.0484327093980787466841904228953725
14,79.0636476741111241341195864476730409,78.0,1.0636476741111241341195864476730409
15,90.6777854586225023199470252108020220,89.6,1.0777854586225023199470252108020220
16,103.090988932348939817969273938438845,102.0,1.090988932348939817969273938438845
17,116.303374286470628408144553170845846,115.2,1.103374286470628408144553170845846
18,130.315037284937426386912079346477129,129.2,1.115037284937426386912079346477129
19,145.126057787572837483675545632509614,144.0,1.126057787572837483675545632509614
20,160.736503087707948265361723108192620,159.6,1.136503087707948265361723108192620
21,177.146430418263126037530342779759001,176.0,1.146430418263126037530342779759001
22,194.355888862906759527668292957618213,193.2,1.155888862906759527668292957618213
23,212.364920833991783964286272093114636,211.2,1.164920833991783964286272093114636
24,231.173563229956103566831945810089669,230.0,1.173563229956103566831945810089669
25,250.781848352118518198660554172512237,249.6,1.181848352118518198660554172512237
26,271.189804638486311326768461258125453,270.0,1.189804638486311326768461258125453
27,292.397457256717826026653290960724667,291.2,1.197457256717826026653290960724667
28,314.404828587481504958693324341709372,313.2,1.204828587481504958693324341709372
29,337.211938621657842418951702948537803,336.0,1.211938621657842418951702948537803
30,360.818805289181208996613224271178281,359.6,1.218805289181208996613224271178281
31,385.225444733172570869182411849222833,384.0,1.225444733172570869182411849222833
32,410.431871539936226181126256890873100,409.2,1.231871539936226181126256890873100
33,436.438098933084033146995136427704683,435.2,1.238098933084033146995136427704683
34,463.244138938300058253525029896734720,462.0,1.244138938300058253525029896734720
35,490.850002523919377869257207097280306,489.6,1.250002523919377869257207097280306
36,519.255699721461287691471776375915829,518.0,1.255699721461287691471776375915829
37,548.461239729453089911579129330426139,547.2,1.261239729453089911579129330426139
38,578.466631003250209236874005720914743,577.2,1.266631003250209236874005720914743
39,609.271881333060540256967114141593365,608.0,1.271881333060540256967114141593365
40,640.876997911985107859610788055586808,639.6,1.276997911985107859610788055586808
41,673.281987395570372126874249742033282,672.0,1.281987395570372126874249742033282
42,706.486855954112516541088760586387935,705.2,1.286855954112516541088760586387935
43,740.491609318747571985043986871402025,739.2,1.291609318747571985043986871402025
44,775.296252822193135005395738207277508,774.0,1.296252822193135005395738207277508
45,810.900791434869869239235450836913269,809.6,1.300791434869869239235450836913269
46,847.305229797017842621168764062445602,846.0,1.305229797017842621168764062445602
47,884.509572247329276375911781050778681,883.2,1.309572247329276375911781050778681
48,922.513822848541695437160151566765454,921.2,1.313822848541695437160151566765454
49,961.317985410370807389585342585580625,960.0,1.317985410370807389585342585580625
50,1000.92206351010831431715599531599478,999.6,1.32206351010831431715599531599478
51,1041.32606051116439497850726620333177,1040.0,1.32606051116439497850726620333177
52,1082.52997957979624951577955200876840,1081.2,1.32997957979624951577955200876840
53,1124.53382370023164878480033424368860,1123.2,1.33382370023164878480033424368860
54,1167.33759568836886926302547608074709,1166.0,1.33759568836886926302547608074709
55,1210.94129820421091899914329245011068,1209.6,1.34129820421091899914329245011068
56,1255.34493376317188549811870733995306,1254.0,1.34493376317188549811870733995306
57,1300.54850474637603747033499900174659,1299.2,1.34850474637603747033499900174659
58,1346.55201341005551518719923496493100,1345.2,1.35201341005551518719923496493100
59,1393.35546189413969023830163337847070,1392.0,1.35546189413969023830163337847070
60,1440.95885223011825097751658583177104,1439.6,1.35885223011825097751658583177104
61,1489.36218634825050571792804972350070,1488.0,1.36218634825050571792804972350070
62,1538.56546608418509473034834146035484,1537.2,1.36546608418509473034834146035484
63,1588.56869318504706021117843574893425,1587.2,1.36869318504706021117843574893425
64,1639.37186931504291090543561703500931,1638.0,1.37186931504291090543561703500931
65,1690.97499606062878323080138949056354,1689.6,1.37499606062878323080138949056354
66,1743.37807493528195340948817925617693,1742.0,1.37807493528195340948817925617693
67,1796.58110738391169282339746838070474,1795.2,1.38110738391169282339746838070474
68,1850.58409478694170264723328679309601,1849.2,1.38409478694170264723328679309601
69,1905.38703846409305114350815895552859,1904.0,1.38703846409305114350815895552859
70,1960.98993967789360873511424857383503,1959.6,1.38993967789360873511424857383503
71,2017.39279963693737726740152212085125,2016.0,1.39279963693737726740152212085125
72,2074.59561949891481162932447883789903,2073.2,1.39561949891481162932447883789903
73,2132.59840037343317889681571169455839,2131.2,1.39840037343317889681571169455839
74,2191.40114332464418131299148444861945,2190.0,1.40114332464418131299148444861945
75,2251.00384937369443831869156318747008,2249.6,1.40384937369443831869156318747008
76,2311.40651950101297329010004448476770,2310.0,1.40651950101297329010004448476770
77,2372.60915464844854824177591956331957,2371.2,1.40915464844854824177591956331957
78,2434.61175572126852395524170632739720,2433.2,1.41175572126852395524170632739720
79,2497.41432359002987617328623030364241,2496.0,1.41432359002987617328623030364241
80,2561.01685909233206037449303299136730,2559.6,1.41685909233206037449303299136730
81,2625.41936303446056830102934714928957,2624.0,1.41936303446056830102934714928957
82,2690.62183619292925796217688226752476,2689.2,1.42183619292925796217688226752476
83,2756.62427931592885010229597722451747,2755.2,1.42427931592885010229597722451747
84,2823.42669312468835983019850403092834,2822.0,1.42669312468835983019850403092834
85,2891.02907831475567283073118810000143,2889.6,1.42907831475567283073118810000143
86,2959.43143555720295971398154252202616,2958.0,1.43143555720295971398154252202616
87,3028.63376549976216458671886747151514,3027.2,1.43376549976216458671886747151514
88,3098.63606876789538055294689545870383,3097.2,1.43606876789538055294689545870383
89,3169.43834596580454134828313955546375,3168.0,1.43834596580454134828313955546375
90,3241.04059767738451509615076097264605,3239.6,1.44059767738451509615076097264605
91,3313.44282446712336472171802984491205,3312.0,1.44282446712336472171802984491205
92,3386.64502688095325126198123372297017,3385.2,1.44502688095325126198123372297017
93,3460.64720544705519405533133417141431,3459.2,1.44720544705519405533133417141431
94,3535.44936067662065886520648241436179,3534.0,1.44936067662065886520648241436179
95,3611.05149306457272383840354380533747,3609.6,1.45149306457272383840354380533747
96,3687.45360309024937137650520336255144,3686.0,1.45360309024937137650520336255144
97,3764.65569121805126965676988522252384,3763.2,1.45569121805126965676988522252384
98,3842.65775789805623466453661247943555,3841.2,1.45775789805623466453661247943555
99,3921.45980356660241012700823688607795,3920.0,1.45980356660241012700823688607795
100,4001.06182864684205639786001371913261,3999.6,1.46182864684205639786001371913261
101,4081.46383354926771003796629859265208,4080.0,1.46383354926771003796629859265208
102,4162.66581867221235026281691225382376,4161.2,1.46581867221235026281691225382376
103,4244.66778440232510051358181523288393,4243.2,1.46778440232510051358181523288393
104,4327.46973111502388614407261277477004,4326.0,1.46973111502388614407261277477004
105,4411.07165917492637614209205415298593,4409.6,1.47165917492637614209205415298593
106,4495.47356893626044603941941099862803,4494.0,1.47356893626044603941941099862803
107,4580.67546074325532108272397897054966,4579.2,1.47546074325532108272397897054966
108,4666.67733493051447949814461717220976,4665.2,1.47733493051447949814461717220976
109,4753.47919182337132708873922250493824,4752.0,1.47919182337132708873922250493824
110,4841.08103173822859198388272763899509,4839.6,1.48103173822859198388272763899509
111,4929.48285498288232249849398439006732,4928.0,1.48285498288232249849398439006732
112,5018.68466185683132162633827416048923,5017.2,1.48466185683132162633827416048923
113,5108.68645265157279615585812316115682,5107.2,1.48645265157279615585812316115682
114,5199.48822765088494963922892625520697,5198.0,1.48822765088494963922892625520697
115,5291.08998713109720799683307653601300,5289.6,1.48998713109720799683307653601300
116,5383.49173136134871820769840614381154,5382.0,1.49173136134871820769840614381154
117,5476.69346060383572882343975388902725,5475.2,1.49346060383572882343975388902725
118,5570.69517511404842001213699562425173,5569.2,1.49517511404842001213699562425173
119,5665.49687514099771712486668833949829,5664.0,1.49687514099771712486668833949829
120,5761.09856092743259593536947380242867,5759.6,1.49856092743259593536947380242867
121,5857.50023271004834943609102980721842,5856.0,1.50023271004834943609102980721842
122,5954.70189071968626716070184995519918,5953.2,1.50189071968626716070184995519918
123,6052.70353518152514581026903128520139,6051.2,1.50353518152514581026903128520139
124,6151.50516631526503228044451304178009,6150.0,1.50516631526503228044451304178009
125,6251.10678433530357062077140072746143,6249.6,1.50678433530357062077140072746143
126,6351.50838945090530925991216249213110,6350.0,1.50838945090530925991216249213110
127,6452.70998186636430425271638971626314,6451.2,1.50998186636430425271638971626314
128,6554.71156178116033171785577278547976,6553.2,1.51156178116033171785577278547976
129,6657.51312939010901056151596511065727,6656.0,1.51312939010901056151596511065727
130,6761.11468488350611820076761953414998,6759.6,1.51468488350611820076761953414998
131,6865.51622844726636659612106207155694,6864.0,1.51622844726636659612106207155694
132,6970.71776026305689092556829808373169,6969.2,1.51776026305689092556829808373169
133,7076.71928050842569145083163174151565,7075.2,1.51928050842569145083163174151565
134,7183.52078935692525785058010988625026,7182.0,1.52078935692525785058010988625026
135,7291.12228697823158718703209568535921,7289.6,1.52228697823158718703209568535921
136,7399.52377353825880298483178179501477,7398.0,1.52377353825880298483178179501477
137,7508.72524919926956959314443859945971,7507.2,1.52524919926956959314443859945971
138,7618.72671411998148238992414249391651,7617.2,1.52671411998148238992414249391651
139,7729.52816845566961228140242829395315,7728.0,1.52816845566961228140242829395315
140,7841.12961235826536750387792969202659,7839.6,1.52961235826536750387792969202659
141,7953.53104597645183117739717375835807,7952.0,1.53104597645183117739717375835807
142,8066.73246945575572498764976317675476,8065.2,1.53246945575572498764976317675476
143,8180.73388293863614072223174472252450,8179.2,1.53388293863614072223174472252450
144,8295.53528656457017420779422279148747,8294.0,1.53528656457017420779422279148747
145,8411.13668047013559200683495610338765,8409.6,1.53668047013559200683495610338765
146,8527.53806478909065336414011315386462,8526.0,1.53806478909065336414011315386462
147,8644.73943965245120168991703702744543,8643.2,1.53943965245120168991703702744543
148,8762.74080518856514090862592812831093,8761.2,1.54080518856514090862592812831093
149,8881.54216152318439847444382517828741,8880.0,1.54216152318439847444382517828741
150,9001.14350877953447869421718870726774,8999.6,1.54350877953447869421718870726774
151,9121.54484707838170227213590313809195,9120.0,1.54484707838170227213590313809195
152,9242.74617653809822237527641106869836,9241.2,1.54617653809822237527641106869836
153,9364.74749727472490616968561266971022,9363.2,1.54749727472490616968561266971022
154,9487.54880940203216572622465805924847,9486.0,1.54880940203216572622465805924847
155,9611.15011303157881653214257357129819,9609.6,1.55011303157881653214257357129819
156,9735.55140827276904147471934236966513,9734.0,1.55140827276904147471934236966513
157,9860.75269523290753134355791184496315,9859.2,1.55269523290753134355791184496315
158,9986.75397401725287366960250509188433,9985.2,1.55397401725287366960250509188433
159,10113.5552447290692535736925708563055,10112.0,1.5552447290692535736925708563055
160,10241.1565074696765329621657924522471,10239.6,1.5565074696765329621657924522471
161,10369.5577623384987665656052507179366,10368.0,1.5577623384987665656052507179366
162,10498.7590094331112142818059929801018,10497.2,1.5590094331112142818059929801018
163,10628.7602488492859046762341947800981,10627.2,1.5602488492859046762341947800981
164,10759.5614806810358042765482659913804,10758.0,1.5614806810358042765482659913804
165,10891.1627050206576412613735040450834,10889.6,1.5627050206576412613735040450834
166,11023.5639219587734340588929997247532,11022.0,1.5639219587734340588929997247532
167,11156.7651315843707720875486486595454,11155.2,1.5651315843707720875486486595454
168,11290.7663339848418913277399598880348,11289.2,1.5663339848418913277399598880348
169,11425.5675292460215897865853638853517,11424.0,1.5675292460215897865853638853517
170,11561.1687174522240225988363052754052,11559.6,1.5687174522240225988363052754052
171,11697.5698986862784169583789253631978,11696.0,1.5698986862784169583789253631978
172,11834.7710730295637447469559453224272,11833.2,1.5710730295637447469559453224272
173,11972.7722405620423882624136256072045,11971.2,1.5722405620423882624136256072045
174,12111.5734013622928348899625051512129,12110.0,1.5734013622928348899625051512129
175,12251.1745555075414347013592499120138,12249.6,1.5745555075414347013592499120138
176,12391.5757030736932506883371099665048,12390.0,1.5757030736932506883371099665048
177,12532.7768441353620348907967808099728,12531.2,1.5768441353620348907967808099728
178,12674.7779787658993595741286794906170,12673.2,1.5779787658993595741286794906170
179,12817.5791070374229299005869278346165,12816.0,1.5791070374229299005869278346165
180,12961.1802290208441090410887697639086,12959.6,1.5802290208441090410887697639086
181,13105.5813447858946783760000109431821,13104.0,1.5813447858946783760000109431821
182,13250.7824544011528604802667724740374,13249.2,1.5824544011528604802667724740374
183,13396.7835579340686279421420545163938,13395.2,1.5835579340686279421420545163938
184,13543.5846554509883222570180437912839,13542.0,1.5846554509883222570180437912839
185,13691.1857470171786046044620632275440,13689.6,1.5857470171786046044620632275440
186,13839.5868326968497594770500722192094,13838.0,1.5868326968497594770500722192094
187,13988.7879125531783749614700235704843,13987.2,1.5879125531783749614700235704843
188,14138.7889866483294151081838499208526,14137.2,1.5889866483294151081838499208526
189,14289.5900550434777081207103908470708,14288.0,1.5900550434777081207103908470708
190,14441.1911177988288660155783044037266,14439.6,1.5911177988288660155783044037266
191,14593.5921749736396549754720066545096,14592.0,1.5921749736396549754720066545096
192,14746.7932266262378327777441324341734,14745.2,1.5932266262378327777441324341734
193,14900.7942728140414716021123803744738,14899.2,1.5942728140414716021123803744738
194,15055.5953135935777795582928808161293,15054.0,1.5953135935777795582928808161293
195,15211.1963490205014388658976499691292,15209.6,1.5963490205014388658976499691292
196,15367.5973791496124743784645829156172,15366.0,1.5973791496124743784645829156172
197,15524.7984040348736668269088644030241,15523.2,1.5984040348736668269088644030241
198,15682.7994237294275249443428620937850,15681.2,1.5994237294275249443428620937850
199,15841.6004382856128293060857601241355,15840.0,1.6004382856128293060857601241355
200,16001.2014477549807618250299824593725,15999.6,1.6014477549807618250299824593725
201,16161.6024521883106318787488970515219,16160.0,1.6024521883106318787488970515219
202,16322.8034516356252124444638104168283,16321.2,1.6034516356252124444638104168283
203,16484.8044461462056968965577103883660,16483.2,1.6044461462056968965577103883660
204,16647.6054357686062880815040832406255,16646.0,1.6054357686062880815040832406255
205,16811.2064205506684296355287588832413,16809.6,1.6064205506684296355287588832413
206,16975.6074005395346925637083146977879,16974.0,1.6074005395346925637083146977879
207,17140.8083757816623229511368163911455,17139.2,1.6083757816623229511368163911455
208,17306.8093463228364650275722153371470,17305.2,1.6093463228364650275722153371470
209,17473.6103122081830653283964574174489,17472.0,1.6103122081830653283964574174489
210,17641.2112734821814694474952146436470,17639.6,1.6112734821814694474952146436470
211,17809.6122301886767187410201832792662,17808.0,1.6122301886767187410201832792662
212,17978.8131823708915572091630270953198,17977.2,1.6131823708915572091630270953198
213,18148.8141300714381529338360364090546,18147.2,1.6141300714381529338360364090546
214,18319.6150733323295490479496524849678,18318.0,1.6150733323295490479496524849678
215,18491.2160121949908434425190500065372,18489.6,1.6160121949908434425190500065372
216,18663.6169467002701111660572042004864,18662.0,1.6169467002701111660572042004864
217,18836.8178768884490734752971687725784,18835.2,1.6178768884490734752971687725784
218,19010.8188027992535225096940735786757,19009.2,1.6188027992535225096940735786757
219,19185.6197244718635048626430219533915,19184.0,1.6197244718635048626430219533915
220,19361.2206419449232765575406823812203,19359.6,1.6206419449232765575406823812203
221,19537.6215552565510273309815807645863,19536.0,1.6215552565510273309815807645863
222,19714.8224644443483914204539960237629,19713.2,1.6224644443483914204539960237629
223,19892.8233695454097384173676248822724,19891.2,1.6233695454097384173676248822724
224,20071.6242705963312592447111871079461,20070.0,1.6242705963312592447111871079461
225,20251.2251676332198498158830852283459,20249.6,1.6251676332198498158830852283459
226,20431.6260606917017959126360344114685,20430.0,1.6260606917017959126360344114685
227,20612.8269498069312679249825404546481,20611.2,1.6269498069312679249825404546481
228,20794.8278350135986272632611578982022,20793.2,1.6278350135986272632611578982022
229,20977.6287163459385515945069471501044,20976.0,1.6287163459385515945069471501044
230,21161.2295938377379835893634241679061,21159.6,1.6295938377379835893634241679061
231,21345.6304675223439049687987571797122,21344.0,1.6304675223439049687987571797122
232,21530.8313374326709462595398357976727,21529.2,1.6313374326709462595398357976727
233,21716.8322036012088272437209698580439,21715.2,1.6322036012088272437209698580439
234,21903.6330660600296442488058953988145,21902.0,1.6330660600296442488058953988145
235,22091.2339248407949974488753963595605,22089.6,1.6339248407949974488753963595605
236,22279.6347799747629678760415124124483,22278.0,1.6347799747629678760415124124483
237,22468.8356314927949477621072351583343,22467.2,1.6356314927949477621072351583343
238,22658.8364794253623259414752540064982,22657.2,1.6364794253623259414752540064982
