Eigenstate,Energy,Kinetic Energy,Potential Energy
1,0.500000000029185272167846732302215459,0.0,0.500000000029185272167846732302215459
2,1.84623093784162078962491348739379078,1.2,0.64623093784162078962491348739379078
3,3.93633761026457162631361339131048189,3.2,0.73633761026457162631361339131048189
4,6.79966527897981204705382152121983584,6.0,0.79966527897981204705382152121983584
5,10.4480465773046943904052389729152724,9.6,0.8480465773046943904052389729152724
6,14.8870659999944880586307851925008635,14.0,0.8870659999944880586307851925008635
7,20.1197208284876460840538540205123980,19.2,0.9197208284876460840538540205123980
8,26.1477838491612673337339379913982639,25.2,0.9477838491612673337339379913982639
9,32.9723835610217237036120615848413813,32.0,0.9723835610217237036120615848413813
10,40.5942802182176483575319813800862829,39.6,0.9942802182176483575319813800862829
11,49.0140093908901238763032167732625177,48.0,1.0140093908901238763032167732625177
12,58.2319621743438133969605008709336642,57.2,1.0319621743438133969605008709336642
13,68.2484326986445521429650112941287643,67.2,1.0484326986445521429650112941287643
14,79.0636476614755087979181762740052013,78.0,1.0636476614755087979181762740052013
15,90.6777854439513702968391406341888204,89.6,1.0777854439513702968391406341888204
16,103.090988915488786899323411636267806,102.0,1.090988915488786899323411636267806
17,116.303374267267876629399071565650850,115.2,1.103374267267876629399071565650850
18,130.315037263238424895849953665250741,129.2,1.115037263238424895849953665250741
19,145.126057763223862285553363088383715,144.0,1.126057763223862285553363088383715
20,160.736503060555201175416976838115544,159.6,1.136503060555201175416976838115544
21,177.146430388152733062018591002486361,176.0,1.146430388152733062018591002486361
22,194.355888829684768824835100451581703,193.2,1.155888829684768824835100451581703
23,212.364920797504163491082247924272949,211.2,1.164920797504163491082247924272949
24,231.173563190048738486695530203953304,230.0,1.173563190048738486695530203953304
25,250.781848308637208104895898189964482,249.6,1.181848308637208104895898189964482
26,271.189804591276767321592976241396700,270.0,1.189804591276767321592976241396700
27,292.397457205625667685775299498550174,291.2,1.197457205625667685775299498550174
28,314.404828532352257203949542779045944,313.2,1.204828532352257203949542779045944
29,337.211938562336932316197973961698216,336.0,1.211938562336932316197973961698216
30,360.818805225513962492126344503831889,359.6,1.218805225513962492126344503831889
31,385.225444665004209474893085782952479,384.0,1.225444665004209474893085782952479
32,410.431871467111863616785537284784601,409.2,1.231871467111863616785537284784601
33,436.438098855448671945685077766816624,435.2,1.238098855448671945685077766816624
34,463.244138855698586335621387386081704,462.0,1.244138855698586335621387386081704
35,490.850002436196565088939316355064045,489.6,1.250002436196565088939316355064045
36,519.255699628461782359080983429868538,518.0,1.255699628461782359080983429868538
37,548.461239631021415294499893777048380,547.2,1.261239631021415294499893777048380
38,578.466630899230760041112519633486152,577.2,1.266630899230760041112519633486152
39,609.271881223297579091201983820833510,608.0,1.271881223297579091201983820833510
40,640.876997796322761683167225101313535,639.6,1.276997796322761683167225101313535
41,673.281987273852628682810854634223988,672.0,1.281987273852628682810854634223988
42,706.486855826183220775371573382343588,705.2,1.286855826183220775371573382343588
43,740.491609184450422452606301636485761,739.2,1.291609184450422452606301636485761
44,775.296252681371680263736653225727332,774.0,1.296252681371680263736653225727332
45,810.900791287367504230089255966735866,809.6,1.300791287367504230089255966735866
46,847.305229642677805040676369183657993,846.0,1.305229642677805040676369183657993
47,884.509572085994643033640849838249220,883.2,1.309572085994643033640849838249220
48,922.513822680055378604249311915464873,921.2,1.313822680055378604249311915464873
49,961.317985234575551136227589431392899,960.0,1.317985234575551136227589431392899
50,1000.92206332684669083958519546514424,999.6,1.32206332684669083958519546514424
51,1041.32606032027880091560795282340054,1040.0,1.32606032027880091560795282340054
52,1082.52997938112890225540277221659518,1081.2,1.32997938112890225540277221659518
53,1124.53382349362458275983615844002900,1123.2,1.33382349362458275983615844002900
54,1167.33759547366393223725495868433751,1166.0,1.33759547366393223725495868433751
55,1210.94129798124976834286861484583971,1209.6,1.34129798124976834286861484583971
56,1255.34493353179598445354930210160189,1254.0,1.34493353179598445354930210160189
57,1300.54850450642665140668919439543670,1299.2,1.34850450642665140668919439543670
58,1346.55201316137370784546490154142118,1345.2,1.35201316137370784546490154142118
59,1393.35546163656631996558529974273584,1392.0,1.35546163656631996558529974273584
60,1440.95885196349396695089803884368194,1439.6,1.35885196349396695089803884368194
61,1489.36218607241574415772645106348362,1488.0,1.36218607241574415772645106348362
62,1538.56546579898007510269608000367669,1537.2,1.36546579898007510269608000367669
63,1588.56869289031178141979024605538994,1587.2,1.36869289031178141979024605538994
64,1639.37186901061714747245269498936570,1638.0,1.37186901061714747245269498936570
65,1690.97499574635208146658316939054853,1689.6,1.37499574635208146658316939054853
66,1743.37807461099362757121812864257863,1742.0,1.37807461099362757121812864257863
67,1796.58110704945082126236351848138036,1795.2,1.38110704945082126236351848138036
68,1850.58409444214712394463830426855548,1849.2,1.38409444214712394463830426855548
69,1905.38703810880336023466104121341346,1904.0,1.38703810880336023466104121341346
70,1960.98993931194715302184795801240712,1959.6,1.38993931194715302184795801240712
71,2017.39279926017225271856023771305456,2016.0,1.39279926017225271856023771305456
72,2074.59561911116885886915843033204667,2073.2,1.39561911116885886915843033204667
73,2132.59839997454397928111872771846789,2131.2,1.39839997454397928111872771846789
74,2191.40114291444905299281312286295276,2190.0,1.40114291444905299281312286295276
75,2251.00384895203043229145263493082428,2249.6,1.40384895203043229145263493082428
76,2311.40651906771686943793757867999973,2310.0,1.40651906771686943793757867999973
77,2372.60915420335685135694088315447114,2371.2,1.40915420335685135694088315447114
78,2434.61175526421745975237029103161626,2433.2,1.41175526421745975237029103161626
79,2497.41432312085538728836310422269048,2496.0,1.41432312085538728836310422269048
80,2561.01685861086980235032267945216233,2559.6,1.41685861086980235032267945216233
81,2625.41936254054590555902938107693309,2624.0,1.41936254054590555902938107693309
82,2690.62183568639725976030512293154672,2689.2,1.42183568639725976030512293154672
83,2756.62427879661428647892101855211355,2755.2,1.42427879661428647892101855211355
84,2823.42669259242569753372154812395191,2822.0,1.42669259242569753372154812395191
85,2891.02907776937907123476493936291080,2889.6,1.42907776937907123476493936291080
86,2959.43143499854626671789015364532181,2958.0,1.43143499854626671789015364532181
87,3028.63376492765891250132102365112991,3027.2,1.43376492765891250132102365112991
88,3098.63606818217878197118234228821851,3097.2,1.43606818217878197118234228821851
89,3169.43834536630748500064122664363471,3168.0,1.43834536630748500064122664363471
90,3241.04059706393956169065779024931948,3239.6,1.44059706393956169065779024931948
91,3313.44282383956274276827847610011741,3312.0,1.44282383956274276827847610011741
92,3386.64502623910885288086622758349642,3385.2,1.44502623910885288086622758349642
93,3460.64720479075857076960609321713626,3459.2,1.44720479075857076960609321713626
94,3535.44936000570301737688669022643392,3534.0,1.44936000570301737688669022643392
95,3611.05149237886492178812901344259201,3609.6,1.45149237886492178812901344259201
96,3687.45360238958191308651753397238363,3686.0,1.45360238958191308651753397238363
97,3764.65569050225430185697906103252913,3763.2,1.45569050225430185697906103252913
98,3842.65775716695954220145998116688757,3841.2,1.45775716695954220145998116688757
99,3921.45980282003541165536348417531886,3920.0,1.45980282003541165536348417531886
100,4001.06182788463380005459223988132922,3999.6,1.46182788463380005459223988132922
101,4081.46383277124686909848751115987089,4080.0,1.46383277124686909848751115987089
102,4162.66581787820721877923465515255004,4161.2,1.46581787820721877923465515255004
103,4244.66778359216358893469198790974490,4243.2,1.46778359216358893469198790974490
104,4327.46973028853351691688973545552228,4326.0,1.46973028853351691688973545552228
105,4411.07165833193427929468868222380981,4409.6,1.47165833193427929468868222380981
106,4495.47356807659335474484458562910785,4494.0,1.47356807659335474484458562910785
107,4580.67545986673956720376894712604891,4579.2,1.47545986673956720376894712604891
108,4666.67733403697598911272230688307222,4665.2,1.47733403697598911272230688307222
109,4753.47919091263561599564216667449880,4752.0,1.47919091263561599564216667449880
110,4841.08103081012076118868246827609655,4839.6,1.48103081012076118868246827609655
111,4929.48285403722705367934311552515989,4928.0,1.48285403722705367934311552515989
112,5018.68466089345287257943453998938406,5017.2,1.48466089345287257943453998938406
113,5108.68645167029499622032820026890454,5107.2,1.48645167029499622032820026890454
114,5199.48822665153119510118760434229691,5198.0,1.48822665153119510118760434229691
115,5291.08998611349045747237186598901902,5289.6,1.48998611349045747237186598901902
116,5383.49173032531148800455557473668517,5382.0,1.49173032531148800455557473668517
117,5476.69345954919008828110199529749496,5475.2,1.49345954919008828110199529749496
118,5570.69517404061598682012108154826395,5569.2,1.49517404061598682012108154826395
119,5665.49687404859965261892743233510284,5664.0,1.49687404859965261892743233510284
120,5761.09855981588960037137838999324206,5759.6,1.49855981588960037137838999324206
121,5857.50023157918065724132825776898540,5856.0,1.50023157918065724132825776898540
122,5954.70188956931364216230176821231770,5953.2,1.50188956931364216230176821231770
123,6052.70353401146687644055802999000655,6051.2,1.50353401146687644055802999000655
124,6151.50516512533992675890742775100424,6150.0,1.50516512533992675890742775100424
125,6251.10678312532995211238095019224710,6249.6,1.50678312532995211238095019224710
126,6351.50838822070101100955375515415411,6350.0,1.50838822070101100955375515415411
127,6452.70998061574666469543847727249530,6451.2,1.50998061574666469543847727249530
128,6554.71156050994618956467386973321496,6553.2,1.51156050994618956467386973321496
129,6657.51312809811469986049622306005385,6656.0,1.51312809811469986049622306005385
130,6761.11468357054746337311381951677055,6759.6,1.51468357054746337311381951677055
131,6865.51622711315867744698654788120649,6864.0,1.51622711315867744698654788120649
132,6970.71775890761495762931209650860197,6969.2,1.51775890761495762931209650860197
133,7076.71927913146377951043600436474608,7075.2,1.51927913146377951043600436474608
134,7183.52078795825710303094426386766178,7182.0,1.52078795825710303094426386766178
135,7291.12228555767039042185446937432597,7289.6,1.52228555767039042185446937432597
136,7399.52377209561722525679120379566017,7398.0,1.52377209561722525679120379566017
137,7508.72524773435972678708786459166124,7507.2,1.52524773435972678708786459166124
138,7618.72671263261494011876639126297420,7617.2,1.52671263261494011876639126297420
139,7729.52816694565738068444089086289977,7728.0,1.52816694565738068444089086289977
140,7841.12961082541789601722276593304296,7839.6,1.52961082541789601722276593304296
141,7953.53104442057900327621505804088821,7952.0,1.53104442057900327621505804088821
142,8066.73246787666685289991669802155383,8065.2,1.53246787666685289991669802155383
143,8180.73388133613996011368793561480093,8179.2,1.53388133613996011368793561480093
144,8295.53528493847483883779142569203642,8294.0,1.53528493847483883779142569203642
145,8411.13667882024866835476411889414639,8409.6,1.53667882024866835476411889414639
146,8527.53806311521911522612444774800068,8526.0,1.53806311521911522612444774800068
147,8644.73943795440142474545310504257467,8643.2,1.53943795440142474545310504257467
148,8762.74080346614289725685243837474238,8761.2,1.54080346614289725685243837474238
149,8881.54215977619485113971527449092731,8880.0,1.54215977619485113971527449092731
150,9001.14350700778217610065668976101718,8999.6,1.54350700778217610065668976101718
151,9121.54484528167057268683856718814957,9120.0,1.54484528167057268683856718814957
152,9242.74617471623156831983207220712663,9241.2,1.54617471623156831983207220712663
153,9364.74749542750539879968658404648850,9363.2,1.54749542750539879968658404648850
154,9487.54880752926183917842151724415836,9486.0,1.54880752926183917842151724415836
155,9611.15011113305906223890783751606577,9609.6,1.55011113305906223890783751606577
156,9735.55140634830060244547598752140085,9734.0,1.55140634830060244547598752140085
157,9860.75269328229049641282672179275207,9859.2,1.55269328229049641282672179275207
158,9986.75397204028667171131916313498507,9985.2,1.55397204028667171131916313498507
159,10113.5552427255526476814422582294448,10112.0,1.5552427255526476814422582294448
160,10241.1565054394076145949800127506951,10239.6,1.5565054394076145949800127506951
161,10369.5577602812749496589623525567859,10368.0,1.5577602812749496589623525567859
162,10498.7590073487292293234737065044565,10497.2,1.5590073487292293234737065044565
163,10628.7602467375417927465893646580612,10627.2,1.5602467375417927465893646580612
164,10759.5614785417249110530054156302247,10758.0,1.5614785417249110530054156302247
165,10891.1627028535746109865507270141624,10889.6,1.5627028535746109865507270141624
166,11023.5639197637122034721403376334445,11022.0,1.5639197637122034721403376334445
167,11156.7651293611245643194605900213479,11155.2,1.5651293611245643194605900213479
168,11290.7663317332032097572703285446411,11289.2,1.5663317332032097572703285446411
169,11425.5675269657822118603793433941428,11424.0,1.5675269657822118603793433941428
170,11561.1687151431749936123908087500536,11559.6,1.5687151431749936123908087500536
171,11697.5698963482100437986389857410527,11696.0,1.5698963482100437986389857410527
172,11834.7710706622655895959510652407261,11833.2,1.5710706622655895959510652407261
173,11972.7722381653032622615345732815495,11971.2,1.5722381653032622615345732815495
174,12111.5733989359007917644751001776586,12110.0,1.5733989359007917644751001776586
175,12251.1745530512837643447481064013256,12249.6,1.5745530512837643447481064013256
176,12391.5757005873564727060683096436986,12390.0,1.5757005873564727060683096436986
177,12532.7768416187318921030848631165896,12531.2,1.5768416187318921030848631165896
178,12674.7779762187608114772892163231963,12673.2,1.5779762187608114772892163231963
179,12817.5791044595601460865521097800740,12816.0,1.5791044595601460865521097800740
180,12961.1802264120404625746593346826142,12959.6,1.5802264120404625746593346826142
181,13105.5813421459327391294030135397405,13104.0,1.5813421459327391294030135397405
182,13250.7824517298143884245843739881833,13249.2,1.5824517298143884245843739881833
183,13396.7835552311345663951725288798060,13395.2,1.5835552311345663951725288798060
184,13543.5846527162387910871258659843221,13542.0,1.5846527162387910871258659843221
185,13691.1857442503928933899697957419355,13689.6,1.5857442503928933899697957419355
186,13839.5868298978063206207205090542521,13838.0,1.5868298978063206207205090542521
187,13988.7879097216548167596225928112934,13987.2,1.5879097216548167596225928112934
188,14138.7889837841024947739849034257455,14137.2,1.5889837841024947739849034257455
189,14289.5900521463233247611725895446390,14288.0,1.5900521463233247611725895446390
190,14441.1911148685220535617997723927860,14439.6,1.5911148685220535617997723927860
191,14593.5921720099545750656413388391981,14592.0,1.5921720099545750656413388391981
192,14746.7932236289477675924327407336829,14745.2,1.5932236289477675924327407336829
193,14900.7942697829188166513709379124782,14899.2,1.5942697829188166513709379124782
194,15055.5953105283940364200639798366910,15054.0,1.5953105283940364200639798366910
195,15211.1963459210272078752518694177781,15209.6,1.5963459210272078752518694177781
196,15367.5973760156174472671623542052380,15366.0,1.5973760156174472671623542052380
197,15524.7984008661266193127856772900260,15523.2,1.5984008661266193127856772900260
198,15682.7994205256963092700101715254046,15681.2,1.5994205256963092700101715254046
199,15841.6004350466643667264351713680624,15840.0,1.6004350466643667264351713680624
200,16001.2014444805810350430229245329344,15999.6,1.6014444805810350430229245329344
201,16161.6024488782246774289691267407492,16160.0,1.6024488782246774289691267407492
202,16322.8034482896171130239044599002346,16321.2,1.6034482896171130239044599002346
203,16484.8044427640385736421097223168335,16483.2,1.6044427640385736421097223168335
204,16647.6054323500422927936071590167323,16646.0,1.6054323500422927936071590167323
205,16811.2064170954687369474407544219261,16809.6,1.6064170954687369474407544219261
206,16975.6073970474594920558433778225148,16974.0,1.6073970474594920558433778225148
207,17140.8083722524708112099170637646377,17139.2,1.6083722524708112099170637646377
208,17306.8093427562868376482320416865091,17305.2,1.6093427562868376482320416865091
209,17473.6103086040325088611729795721280,17472.0,1.6103086040325088611729795721280
210,17641.2112698401861532866323644781724,17639.6,1.6112698401861532866323644781724
211,17809.6122265085917869560083703061781,17808.0,1.6122265085917869560083703061781
212,17978.8131786524711203176302372210817,17977.2,1.6131786524711203176302372210817
213,18148.8141263144352796155000968063108,18147.2,1.6141263144352796155000968063108
214,18319.6150695364962577990356155479228,18318.0,1.6150695364962577990356155479228
215,18491.2160083600780941700392140018106,18489.6,1.6160083600780941700392140018106
216,18663.6169428260277967213452352969406,18662.0,1.6169428260277967213452352969406
217,18836.8178729746260111261815414734731,18835.2,1.6178729746260111261815414734731
218,19010.8187988455974453506893315643187,19009.2,1.6187988455974453506893315643187
219,19185.6197204781210531625311193745899,19184.0,1.6197204781210531625311193745899
220,19361.2206379108399890437084080842136,19359.6,1.6206379108399890437084080842136
221,19537.6215511818713324098726719812053,19536.0,1.6215511818713324098726719812053
222,19714.8224603288155983334886831313471,19713.2,1.6224603288155983334886831313471
223,19892.8233653887660283316749455703686,19891.2,1.6233653887660283316749455703686
224,20071.6242663983176762780128136004734,20070.0,1.6242663983176762780128136004734
225,20251.2251633935762919948603156575237,20249.6,1.6251633935762919948603156575237
226,20431.6260564101670060641045315495310,20430.0,1.6260564101670060641045315495310
227,20612.8269454832428244991924331959605,20611.2,1.6269454832428244991924331959605
228,20794.8278306474929350886325342749487,20793.2,1.6278306474929350886325342749487
229,20977.6287119371508325631038340157379,20976.0,1.6287119371508325631038340157379
230,21161.2295893860022672724015295900008,21159.6,1.6295893860022672724015295900008
231,21345.6304630273930191614750276951408,21344.0,1.6304630273930191614750276951408
232,21530.8313328942365074544640645375925,21529.2,1.6313328942365074544640645375925
233,21716.8321990190212310322221318446824,21715.2,1.6321990190212310322221318446824
234,21903.6330614338180556493779378800440,21902.0,1.6330614338180556493779378800440
235,22091.2339201702873411620194221922838,22089.6,1.6339201702873411620194221922838
236,22279.6347752596859184647529773125996,22278.0,1.6347752596859184647529773125996
237,22468.8356267328739197572492235700568,22467.2,1.6356267328739197572492235700568
238,22658.8364746203214638712699743038907,22657.2,1.6364746203214638712699743038907
