Eigenstate,Energy,Kinetic Energy,Potential Energy
1,0.500000000014236598974800359652509843,0.0,0.500000000014236598974800359652509843
2,1.84623093774404370108354029030794147,1.2,0.64623093774404370108354029030794147
3,3.93633760997794707471337179622191080,3.2,0.73633760997794707471337179622191080
4,6.79966527838280661149323873485933968,6.0,0.79966527838280661149323873485933968
5,10.4480465762705605226605602236269381,9.6,0.8480465762705605226605602236269381
6,14.8870659983942610672325616139026929,14.0,0.8870659983942610672325616139026929
7,20.1197208261913224685209971621176496,19.2,0.9197208261913224685209971621176496
8,26.1477838460382965636085924489373533,25.2,0.9477838460382965636085924489373533
9,32.9723835569412372314313318339331228,32.0,0.9723835569412372314313318339331228
10,40.5942802130485761619030838338377531,39.6,0.9942802130485761619030838338377531
11,49.0140093845012580594771549988179370,48.0,1.0140093845012580594771549988179370
12,58.2319621666038448023626199299434800,57.2,1.0319621666038448023626199299434800
13,68.2484326894220922848655475266111749,67.2,1.0484326894220922848655475266111749
14,79.0636476506391033383898578649118524,78.0,1.0636476506391033383898578649118524
15,90.6777854313695074235230561119211889,89.6,1.0777854313695074235230561119211889
16,103.090988901029902500298748715372509,102.0,1.090988901029902500298748715372509
17,116.303374250800357384768933562663993,115.2,1.103374250800357384768933562663993
18,130.315037244630609972378664964500406,129.2,1.115037244630609972378664964500406
19,145.126057742344044069156365973980427,144.0,1.126057742344044069156365973980427
20,160.736503037271625325064008320141225,159.6,1.136503037271625325064008320141225
21,177.146430362333598074802271373635607,176.0,1.146430362333598074802271373635607
22,194.355888801198225242135689398266091,193.2,1.155888801198225242135689398266091
23,212.364920766218312836651468624065868,211.2,1.164920766218312836651468624065868
24,231.173563155831632001336882439237141,230.0,1.173563155831632001336882439237141
25,250.781848271356845324581367386707876,249.6,1.181848271356845324581367386707876
26,271.189804550801094533460239468789558,270.0,1.189804550801094533460239468789558
27,292.397457161822576287689167022188114,291.2,1.197457161822576287689167022188114
28,314.404828485089581987024133050824118,313.2,1.204828485089581987024133050824118
29,337.211938511482449685099455582893444,336.0,1.211938511482449685099455582893444
30,360.818805170935388634600816670405460,359.6,1.218805170935388634600816670405460
31,385.225444606569198489444685098566667,384.0,1.225444606569198489444685098566667
32,410.431871404688005605528025702887484,409.2,1.231871404688005605528025702887484
33,436.438098788903491077939537469552973,435.2,1.238098788903491077939537469552973
34,463.244138784899538886715408112907429,462.0,1.244138784899538886715408112907429
35,490.850002361011037457794753197845558,489.6,1.250002361011037457794753197845558
36,519.255699548757089067496808260386547,518.0,1.255699548757089067496808260386547
37,548.461239546664796970498963891591227,547.2,1.261239546664796970498963891591227
38,578.466630810089381388293120918969977,577.2,1.266630810089381388293120918969977
39,609.271881129238526845691953795667381,608.0,1.271881129238526845691953795667381
40,640.876997697213042559501628942831998,639.6,1.276997697213042559501628942831998
41,673.281987169559167309829448813630132,672.0,1.281987169559167309829448813630132
42,706.486855716572857623048683381098721,705.2,1.286855716572857623048683381098721
43,740.491609069389911750574945838462635,739.2,1.291609069389911750574945838462635
44,775.296252560727687912144227381527265,774.0,1.296252560727687912144227381527265
45,810.900791161006605703318740134916440,809.6,1.300791161006605703318740134916440
46,847.305229510466483284380807721527194,846.0,1.305229510466483284380807721527194
47,884.509571947799286355466658965231053,883.2,1.309571947799286355466658965231053
48,922.513822535742278558563170806284275,921.2,1.313822535742278558563170806284275
49,961.317985084010900403110333630152405,960.0,1.317985084010900403110333630152405
50,1000.92206316989658109831254869202162,999.6,1.32206316989658109831254869202162
51,1041.32606015680922071280079606536189,1040.0,1.32606015680922071280079606536189
52,1082.52997921100573486799793200019593,1081.2,1.32997921100573486799793200019593
53,1124.53382331671360405300146203855006,1123.2,1.33382331671360405300146203855006
54,1167.33759528983080851734884201071985,1166.0,1.33759528983080851734884201071985
55,1210.94129779036005420552432873120872,1209.6,1.34129779036005420552432873120872
56,1255.34493333371512062694618404812276,1254.0,1.34493333371512062694618404812276
57,1300.54850430101996259005824389340364,1299.2,1.34850430101996259005824389340364
58,1346.55201294850640054286251132740716,1345.2,1.35201294850640054286251132740716
59,1393.35546141610348031495742109658796,1392.0,1.35546141610348031495742109658796
60,1440.95885173530055854844679079901369,1439.6,1.35885173530055854844679079901369
61,1489.36218583635660587758220999475011,1488.0,1.36218583635660587758220999475011
62,1538.56546555491991891189011921289021,1537.2,1.36546555491991891189011921289021
63,1588.56869263811519018851599961298710,1587.2,1.36869263811519018851599961298710
64,1639.37186875014857277959748896924937,1638.0,1.37186875014857277959748896924937
65,1690.97499547747584140050666769750869,1689.6,1.37499547747584140050666769750869
66,1743.37807433357390452574884316940634,1742.0,1.37807433357390452574884316940634
67,1796.58110676335165972798027612900159,1795.2,1.38110676335165972798027612900159
68,1850.58409414723242829479959864064572,1849.2,1.38409414723242829479959864064572
69,1905.38703780493689250724157244028680,1904.0,1.38703780493689250724157244028680
70,1960.98993899899253069563854089155758,1959.6,1.38993899899253069563854089155758
71,2017.39279893799294648478419578616617,2016.0,1.39279893799294648478419578616617
72,2074.59561877962819039795508060755093,2073.2,1.39561877962819039795508060755093
73,2132.59839963350511898294204366552668,2131.2,1.39839963350511898294204366552668
74,2191.40114256377501777469152344937714,2190.0,1.40114256377501777469152344937714
75,2251.00384859158408330805378789905972,2249.6,1.40384859158408330805378789905972
76,2311.40651869736090983738030335137320,2310.0,1.40651869736090983738030335137320
77,2372.60915382295382402129450051312470,2371.2,1.40915382295382402129450051312470
78,2434.61175487362974503278020887159487,2433.2,1.41175487362974503278020887159487
79,2497.41432271994520073473994214470980,2496.0,1.41432271994520073473994214470980
80,2561.01685819949919243553094172177170,2559.6,1.41685819949919243553094172177170
81,2625.41936211857675139751035636613903,2624.0,1.41936211857675139751035636613903
82,2690.62183525369126882106754249539347,2689.2,1.42183525369126882106754249539347
83,2756.62427835303299229283190709125726,2755.2,1.42427835303299229283190709125726
84,2823.42669213783045739502863430663384,2822.0,1.42669213783045739502863430663384
85,2891.02907730363106389678101464120729,2889.6,1.42907730363106389678101464120729
86,2959.43143452150649008276886653760396,2958.0,1.43143452150649008276886653760396
87,3028.63376443918818130385265414316746,3027.2,1.43376443918818130385265414316746
88,3098.63606768213772545653730402918411,3097.2,1.43606768213772545653730402918411
89,3169.43834485455654459598822668653058,3168.0,1.43834485455654459598822668653058
90,3241.04059654033898867058280539758199,3239.6,1.44059654033898867058280539758199
91,3313.44282330397259591392994383716053,3312.0,1.44282330397259591392994383716053
92,3386.64502569138899613275116280942446,3385.2,1.44502569138899613275116280942446
93,3460.64720423076867087396112539886740,3459.2,1.44720423076867087396112539886740
94,3535.44935943330254152554736699560579,3534.0,1.44935943330254152554736699560579
95,3611.05149179391313525182002254458241,3609.6,1.45149179391313525182002254458241
96,3687.45360179193787684148593913170952,3686.0,1.45360179193787684148593913170952
97,3764.65568989177687020489191810199637,3763.2,1.45568989177687020489191810199637
98,3842.65775654350736038248721099412304,3841.2,1.45775654350736038248721099412304
99,3921.45980218346691345436618310240595,3920.0,1.45980218346691345436618310240595
100,4001.06182723480720540033608071388682,3999.6,1.46182723480720540033608071388682
101,4081.46383210802018165580030234688492,4080.0,1.46383210802018165580030234688492
102,4162.66581720143822353402652617781996,4161.2,1.46581720143822353402652617781996
103,4244.66778290170984977175618573732583,4243.2,1.46778290170984977175618573732583
104,4327.46972958425237419040132734756151,4326.0,1.46972958425237419040132734756151
105,4411.07165761368284739131804355801528,4409.6,1.47165761368284739131804355801528
106,4495.47356734422851963940193146587148,4494.0,1.47356734422851963940193146587148
107,4580.67545912011798400729562239190538,4579.2,1.47545912011798400729562239190538
108,4666.67733327595407961294405399164427,4665.2,1.47733327595407961294405399164427
109,4753.47919013706956618969897320500312,4752.0,1.47919013706956618969897320500312
110,4841.08103001986651880804913541636815,4839.6,1.48103001986651880804913541636815
111,4929.48285323214032570685410735326242,4928.0,1.48285323214032570685410735326242
112,5018.68466007338912275832612559726270,5017.2,1.48466007338912275832612559726270
113,5108.68645083510944255521040070635042,5107.2,1.48645083510944255521040070635042
114,5199.48822580107880735085789422663642,5198.0,1.48822580107880735085789422663642
115,5291.08998524762595463438202403238199,5289.6,1.48998524762595463438202403238199
116,5383.49172944388933579144256559175897,5382.0,1.49172944388933579144256559175897
117,5476.69345865206449658819321442269184,5475.2,1.49345865206449658819321442269184
118,5570.69517312764090718482371638973830,5569.2,1.49517312764090718482371638973830
119,5665.49687311962877567141120474560156,5664.0,1.49687311962877567141120474560156
120,5761.09855887077635327656034195126117,5759.6,1.49855887077635327656034195126117
121,5857.50023061777820113206769617783482,5856.0,1.50023061777820113206769617783482
122,5954.70188859147486956371296263384662,5953.2,1.50188859147486956371296263384662
123,6052.70353301704440868534764516375735,6051.2,1.50353301704440868534764516375735
124,6151.50516411418611139364316185352602,6150.0,1.50516411418611139364316185352602
125,6251.10678209729686029459722613952083,6249.6,1.50678209729686029459722613952083
126,6351.50838717564043489559979106139508,6350.0,1.50838717564043489559979106139508
127,6452.70997955351011481897345432891174,6451.2,1.50997955351011481897345432891174
128,6554.71155943038489220571332449204125,6553.2,1.51155943038489220571332449204125
129,6657.51312700107959440491325422404998,6656.0,1.51312700107959440491325422404998
130,6761.11468245588919966249806506583605,6759.6,1.51468245588919966249806506583605
131,6865.51622598072761311876332017896188,6864.0,1.51622598072761311876332017896188
132,6970.71775775726115544702338023751960,6969.2,1.51775775726115544702338023751960
133,7076.71927796303700468408460104793417,7075.2,1.51927796303700468408460104793417
134,7183.52078677160682052730154499371194,7182.0,1.52078677160682052730154499371194
135,7291.12228435264576226463168563572031,7289.6,1.52228435264576226463168563572031
136,7399.52377087206710781657372979810576,7398.0,1.52377087206710781657372979810576
137,7508.72524649213266806093100057746187,7507.2,1.52524649213266806093100057746187
138,7618.72671137155917699935082520757498,7617.2,1.52671137155917699935082520757498
139,7729.52816566562083621868519519904456,7728.0,1.52816566562083621868519519904456
140,7841.12960952624817665424970924728207,7839.6,1.52960952624817665424970924728207
141,7953.53104310212339610456789332039304,7952.0,1.53104310212339610456789332039304
142,8066.73246653877232287392081835946559,8065.2,1.53246653877232287392081835946559
143,8180.73387997865314726885276464601418,8179.2,1.53387997865314726885276464601418
144,8295.53528356124205549514656514976440,8294.0,1.53528356124205549514656514976440
145,8411.13667742311589631402330911527211,8409.6,1.53667742311589631402330911527211
146,8527.53806169803200294757002053132094,8526.0,1.53806169803200294757002053132094
147,8644.73943651700528452043301068081569,8643.2,1.53943651700528452043301068081569
148,8762.74080200838270236678126535982357,8761.2,1.54080200838270236678126535982357
149,8881.54215829791523300346985728536945,8880.0,1.54215829791523300346985728536945
150,9001.14350550882742141025632256708349,8999.6,1.54350550882742141025632256708349
151,9121.54484376188462053129900265324855,9120.0,1.54484376188462053129900265324855
152,9242.74617317545800729708183900552234,9241.2,1.54617317545800729708183900552234
153,9364.74749386558746411643335240207927,9363.2,1.54749386558746411643335240207927
154,9487.54880594604240973785562162981027,9486.0,1.54880594604240973785562162981027
155,9611.15010952838065771612918059375324,9609.6,1.55010952838065771612918059375324
156,9735.55140472200538035052979749049768,9734.0,1.55140472200538035052979749049768
157,9860.75269163422024914123302430541407,9859.2,1.55269163422024914123302430541407
158,9986.75397037028282358197989898098896,9985.2,1.55397037028282358197989898098896
159,10113.5552410334562519618092172114360,10112.0,1.5552410334562519618092172114360
160,10241.1565037250593505133660763068981,10239.6,1.5565037250593505133660763068981
161,10369.5577585445151194038776084179781,10368.0,1.5577585445151194038776084179781
162,10498.7590055893977550298672190772130,10497.2,1.5590055893977550298672190772130
163,10628.7602449554782134688766847040637,10627.2,1.5602449554782134688766847040637
164,10759.5614767367683797247609744689052,10758.0,1.5614767367683797247609744689052
165,10891.1627010255638913667433792765574,10889.6,1.5627010255638913667433792765574
166,11023.5639179124856670777896874615877,11022.0,1.5639179124856670777896874615877
167,11156.7651274865201873445907150772132,11155.2,1.5651274865201873445907150772132
168,11290.7663298350585699780366316252596,11289.2,1.5663298350585699780366316252596
169,11425.5675250439344855262436330538611,11424.0,1.5675250439344855262436330538611
170,11561.1687131974609523232184756651432,11559.6,1.5687131974609523232184756651432
171,11697.5698943784660513675916137604380,11696.0,1.5698943784660513675916137604380
172,11834.7710686683275988980466985053005,11833.2,1.5710686683275988980466985053005
173,11972.7722361470068120677470489759742,11971.2,1.5722361470068120677470489759742
174,12111.5733968930810035612429129661223,12110.0,1.5733968930810035612429129661223
175,12251.1745509837753391387623641351723,12249.6,1.5745509837753391387623641351723
176,12391.5756984949936878142084073007868,12390.0,1.5756984949936878142084073007868
177,12532.7768395013485979273695737362046,12531.2,1.5768395013485979273695737362046
178,12674.7779740761904282647099167367558,12673.2,1.5779740761904282647099167367558
179,12817.5791022916356606736539628659906,12816.0,1.5791022916356606736539628659906
180,12961.1802242185944251167351953161604,12959.6,1.5802242185944251167351953161604
181,13105.5813399267972598141638998933892,13104.0,1.5813399267972598141638998933892
182,13250.7824494848211341701693658636111,13249.2,1.5824494848211341701693658636111
183,13396.7835529601147575323599473904658,13395.2,1.5835529601147575323599473904658
184,13543.5846504190231980256065381592011,13542.0,1.5846504190231980256065381592011
185,13691.1857419268118332685421878504744,13689.6,1.5857419268118332685421878504744
186,13839.5868275476896539412666364414193,13838.0,1.5868275476896539412666364414193
187,13988.7879073448319440047222961929173,13987.2,1.5879073448319440047222961929173
188,14138.7889813804023530080253054420832,14137.2,1.5889813804023530080253054420832
189,14289.5900497155743842148082756647561,14288.0,1.5900497155743842148082756647561
190,14441.1911124105523141996183073218747,14439.6,1.5911124105523141996183073218747
191,14593.5921695245915631368875627909992,14592.0,1.5921695245915631368875627909992
192,14746.7932211160185321646441990580872,14745.2,1.5932211160185321646441990580872
193,14900.7942672422499261267757682138036,14899.2,1.5942672422499261267757682138036
194,15055.5953079598115750345913017106089,15054.0,1.5953079598115750345913017106089
195,15211.1963433243567721800037995142385,15209.6,1.5963433243567721800037995142385
196,15367.5973733906841425921954643657247,15366.0,1.5973733906841425921954643657247
197,15524.7983982127550562130486017378848,15523.2,1.5983982127550562130486017378848
198,15682.7994178437105999532829891638357,15681.2,1.5994178437105999532829891638357
199,15841.6004323358881214631148246096338,15840.0,1.6004323358881214631148246096338
200,16001.2014417408373585575979306327081,15999.6,1.6014417408373585575979306327081
201,16161.6024461093361652730256073010408,16160.0,1.6024461093361652730256073010408
202,16322.8034454914058479305040976267607,16321.2,1.6034454914058479305040976267607
203,16484.8044399363261218613793497252466,16483.2,1.6044399363261218613793497252466
204,16647.6054294926497004093781708638342,16646.0,1.6054294926497004093781708638342
205,16811.2064142082165261747754510780446,16809.6,1.6064142082165261747754510780446
206,16975.6073941301676575192839654554243,16974.0,1.6073941301676575192839654554243
207,17140.8083693049588162022918553747738,17139.2,1.6083693049588162022918553747738
208,17306.8093397783736103698520280586408,17305.2,1.6093397783736103698520280586408
209,17473.6103055955364386392506668336217,17472.0,1.6103055955364386392506668336217
210,17641.2112668009250867747534673692956,17639.6,1.6112668009250867747534673692956
211,17809.6122234383830243134856229723502,17808.0,1.6122234383830243134856229723502
212,17978.8131755511314113685672382681655,17977.2,1.6131755511314113685672382681655
213,18148.8141231817808199873916301082170,18147.2,1.6141231817808199873916301082170
214,18319.6150663723426850407297212048028,18318.0,1.6150663723426850407297212048028
215,18491.2160051642404838488847048819248,18489.6,1.6160051642404838488847048819248
216,18663.6169395983206584993470641424058,18662.0,1.6169395983206584993470641424058
217,18836.8178697148632848149849382361063,18835.2,1.6178697148632848149849382361063
218,19010.8187955535924969452122802175764,19009.2,1.6187955535924969452122802175764
219,19185.6197171536866708530631714162835,19184.0,1.6197171536866708530631714162835
220,19361.2206345537883792062925100883789,19359.6,1.6206345537883792062925100883789
221,19537.6215477920141155747850503128151,19536.0,1.6215477920141155747850503128151
222,19714.8224569059638051316304920139409,19713.2,1.6224569059638051316304920139409
223,19892.8233619327300954186877587849873,19891.2,1.6233619327300954186877587849873
224,20071.6242629089074422359286107351128,20070.0,1.6242629089074422359286107351128
225,20251.2251598706009932110948870731235,20249.6,1.6251598706009932110948870731235
226,20431.6260528534352725876019650001915,20430.0,1.6260528534352725876019650001915
227,20612.8269418925626758735265130686455,20611.2,1.6269418925626758735265130686455
228,20794.8278270226717761618694143031215,20793.2,1.6278270226717761618694143031215
229,20977.6287082779954492742286932799922,20976.0,1.6287082779954492742286932799922
230,21161.2295856923188224141103387923762,21159.6,1.6295856923188224141103387923762
231,21345.6304592989870481191309121474566,21344.0,1.6304592989870481191309121474566
232,21530.8313291309129139210160034674090,21529.2,1.6313291309129139210160034674090
233,21716.8321952205842826988822114273512,21715.2,1.6321952205842826988822114273512
234,21903.6330576000713798718515333230598,21902.0,1.6330576000713798718515333230598
235,22091.2339163010339206020810646822557,22089.6,1.6339163010339206020810646822557
236,22279.6347713547280867069589854265398,22278.0,1.6347713547280867069589854265398
237,22468.8356227920133569005761970167773,22467.2,1.6356227920133569005761970167773
238,22658.8364706433591920954668032456548,22657.2,1.6364706433591920954668032456548
