Eigenstate,Energy,Kinetic Energy,Potential Energy
1,0.500000000083260017232208132862112805,0.0,0.500000000083260017232208132862112805
2,1.84623093819459370045155902652807342,1.2,0.64623093819459370045155902652807342
3,3.93633761130140634014084839826707299,3.2,0.73633761130140634014084839826707299
4,6.79966528113943540368031141860104063,6.0,0.79966528113943540368031141860104063
5,10.4480465810456371745086785891078804,9.6,0.8480465810456371745086785891078804
6,14.8870660057833269288725854072938052,14.0,0.8870660057833269288725854072938052
7,20.1197208367947476934928682179872972,19.2,0.9197208367947476934928682179872972
8,26.1477838604590159747735599729869178,25.2,0.9477838604590159747735599729869178
9,32.9723835757836994791320758093076043,32.0,0.9723835757836994791320758093076043
10,40.5942802369182122026254166076161835,39.6,0.9942802369182122026254166076161835
11,49.0140094140041941094620298677819820,48.0,1.0140094140041941094620298677819820
12,58.2319622023467398744979324646651076,57.2,1.0319622023467398744979324646651076
13,68.2484327320120435517508339678703650,67.2,1.0484327320120435517508339678703650
14,79.0636477006835905320697526292101437,78.0,1.0636477006835905320697526292101437
15,90.6777854894763607879476579566762297,89.6,1.0777854894763607879476579566762297
16,103.090988967807285541144330714806316,102.0,1.090988967807285541144330714806316
17,116.303374326856759247507317560063893,115.2,1.103374326856759247507317560063893
18,130.315037330574844280098670193900699,129.2,1.115037330574844280098670193900699
19,145.126057838785252213080048835005608,144.0,1.126057838785252213080048835005608
20,160.736503144819282899043107517978618,159.6,1.136503144819282899043107517978618
21,177.146430481597523578236898306525572,176.0,1.146430481597523578236898306525572
22,194.355888932788590451981156127444116,193.2,1.155888932788590451981156127444116
23,212.364920910745654429759960697891471,211.2,1.164920910745654429759960697891471
24,231.173563313906864129108667541844030,230.0,1.173563313906864129108667541844030
25,250.781848443591272924266709615351920,249.6,1.181848443591272924266709615351920
26,271.189804737806427217692879360366466,270.0,1.189804737806427217692879360366466
27,292.397457364210942694285430090866453,291.2,1.197457364210942694285430090866453
28,314.404828703473544500115414030746412,313.2,1.204828703473544500115414030746412
29,337.211938746475019459800991004311007,336.0,1.211938746475019459800991004311007
30,360.818805423150040873007399112699855,359.6,1.218805423150040873007399112699855
31,385.225444876619887927380218415979085,384.0,1.225444876619887927380218415979085
32,410.431871693189182178260085019369177,409.2,1.231871693189182178260085019369177
33,436.438099096470115739771010835827350,435.2,1.238099096470115739771010835827350
34,463.244139112147099564526800621514031,462.0,1.244139112147099564526800621514031
35,490.850002708555565122622861552340526,489.6,1.250002708555565122622861552340526
36,519.255699917215173911380704067035191,518.0,1.255699917215173911380704067035191
37,548.461239936653604678309893292278954,547.2,1.261239936653604678309893292278954
38,578.466631222226669496243934992721786,577.2,1.266631222226669496243934992721786
39,609.271881564142661179808697880616123,608.0,1.271881564142661179808697880616123
40,640.876998155503013748621214331828387,639.6,1.276998155503013748621214331828387
41,673.281987651854607368728169397045585,672.0,1.281987651854607368728169397045585
42,706.486856223494056602157292811246485,705.2,1.286856223494056602157292811246485
43,740.491609601557834449435594265319150,739.2,1.291609601557834449435594265319150
44,775.296253118763990654342802436435488,774.0,1.296253118763990654342802436435488
45,810.900791745533653171106821107198610,809.6,1.300791745533653171106821107198610
46,847.305230122107365411602997403876958,846.0,1.305230122107365411602997403876958
47,884.509572587177835277745992310600623,883.2,1.309572587177835277745992310600623
48,922.513823203483085619981679486283231,921.2,1.313823203483085619981679486283231
49,961.317985780739333218862701977014780,960.0,1.317985780739333218862701977014780
50,1000.92206389623880067301575700078312,999.6,1.32206389623880067301575700078312
51,1041.32606091339219861431812193228573,1040.0,1.32606091339219861431812193228573
52,1082.52997999845727045678614543745556,1081.2,1.32997999845727045678614543745556
53,1124.53382413566234176711983753019535,1123.2,1.33382413566234176711983753019535
54,1167.33759614090625521338118393275752,1166.0,1.33759614090625521338118393275752
55,1210.94129867419259655576295515008033,1209.6,1.34129867419259655576295515008033
56,1255.34493425093604257327230386648333,1254.0,1.34493425093604257327230386648333
57,1300.54850525226146285502801275555908,1299.2,1.34850525226146285502801275555908
58,1346.55201393440161019857438660678631,1345.2,1.35201393440161019857438660678631
59,1393.35546243728648041033455504760847,1392.0,1.35546243728648041033455504760847
60,1440.95885279240639779562038513240052,1439.6,1.35885279240639779562038513240052
61,1489.36218693002131839810803530115466,1488.0,1.36218693002131839810803530115466
62,1538.56546668578054204357217765991387,1537.2,1.36546668578054204357217765991387
63,1588.56869380680978235364863264489916,1587.2,1.36869380680978235364863264489916
64,1639.37186995731623141547121253486735,1638.0,1.37186995731623141547121253486735
65,1690.97499672375672095305407763592705,1689.6,1.37499672375672095305407763592705
66,1743.37807561960923450723497435393815,1742.0,1.37807561960923450723497435393815
67,1796.58110808978376283966781088211455,1795.2,1.38110808978376283966781088211455
68,1850.58409551470473861554325002540598,1849.2,1.38409551470473861554325002540598
69,1905.38703921409397374898835076950362,1904.0,1.38703921409397374898835076950362
70,1960.98994045048009452683091214416352,1959.6,1.38994045048009452683091214416352
71,2017.39280043245787092268309926663847,2016.0,1.39280043245787092268309926663847
72,2074.59562031771853827091747553800910,2073.2,1.39562031771853827091747553800910
73,2132.59840121587015646370538545185056,2131.2,1.39840121587015646370538545185056
74,2191.40114419106523298573369139638951,2190.0,1.40114419106523298573369139638951
75,2251.00385026445120500011288462276046,2249.6,1.40385026445120500011288462276046
76,2311.40652041645792614223351198638873,2310.0,1.40652041645792614223351198638873
77,2372.60915558893500127990984668660570,2371.2,1.40915558893500127990984668660570
78,2434.61175668715064669996902588397111,2433.2,1.41175668715064669996902588397111
79,2497.41432458166270636145142755045366,2496.0,1.41432458166270636145142755045366
80,2561.01686011007151672994320806586576,2559.6,1.41686011007151672994320806586576
81,2625.41936407866346336608558055485648,2624.0,1.41936407866346336608558055485648
82,2690.62183726395331099075132762749077,2689.2,1.42183726395331099075132762749077
83,2756.62428041413270001558935487087426,2755.2,1.42428041413270001558935487087426
84,2823.42669425043157823592203660820616,2822.0,1.42669425043157823592203660820616
85,2891.02907946839877710680616667998210,2889.6,1.42907946839877710680616667998210
86,2959.43143673910742615767886134297976,2958.0,1.43143673910742615767886134297976
87,3028.63376671029044163021024307788462,3027.2,1.43376671029044163021024307788462
88,3098.63607000741090204624856727976896,3097.2,1.43607000741090204624856727976896
89,3169.43834723467173991058218616881290,3168.0,1.43834723467173991058218616881290
90,3241.04059897596883553651339680426636,3239.6,1.44059897596883553651339680426636
91,3313.44282579579127753018877945892784,3312.0,1.44282579579127753018877945892784
92,3386.64502824007226617209094976215661,3385.2,1.44502824007226617209094976215661
93,3460.64720683699387367904198094098047,3459.2,1.44720683699387367904198094098047
94,3535.44936209774863240132976899839600,3534.0,1.44936209774863240132976899839600
95,3611.05149451726070085554032027118960,3609.6,1.45149451726070085554032027118960
96,3687.45360457486915567156221943835184,3686.0,1.45360457486915567156221943835184
97,3764.65569273497577319012042290310929,3763.2,1.45569273497577319012042290310929
98,3842.65775944765949157290130876926960,3841.2,1.45775944765949157290130876926960
99,3921.45980514925959081514261704202623,3920.0,1.45980514925959081514261704202623
100,4001.06183026292948171014529676819959,3999.6,1.46183026292948171014529676819959
101,4081.46383519916286551101041430757152,4080.0,1.46383519916286551101041430757152
102,4162.66582035629390046018298604043973,4161.2,1.46582035629390046018298604043973
103,4244.66778612097290344377189033955039,4243.2,1.46778612097290344377189033955039
104,4327.46973286861900776290530424642425,4326.0,1.46973286861900776290530424642425
105,4411.07166096385110494062327818200791,4409.6,1.47166096385110494062327818200791
106,4495.47357076089830771856657006409837,4494.0,1.47357076089830771856657006409837
107,4580.67546260399109331576483320943554,4579.2,1.47546260399109331576483320943554
108,4666.67733682773420678227354850385491,4665.2,1.47733682773420678227354850385491
109,4753.47919375746233568687486463391246,4752.0,1.47919375746233568687486463391246
110,4841.08103370957950495793249142000871,4839.6,1.48103370957950495793249142000871
111,4929.48285699188307483529272668305954,4928.0,1.48285699188307483529272668305954
112,5018.68466390387317545749023752133360,5017.2,1.48466390387317545749023752133360
113,5108.68645473704835607272334890623266,5107.2,1.48645473704835607272334890623266
114,5199.48822977518817810430747986184175,5198.0,1.48822977518817810430747986184175
115,5291.08998929462344085281286927743071,5289.6,1.48998929462344085281286927743071
116,5383.49173356449468028544492669281498,5382.0,1.49173356449468028544492669281498
117,5476.69346284699954965021878167839069,5475.2,1.49346284699954965021878167839069
118,5570.69517739762964962137430754976274,5569.2,1.49517739762964962137430754976274
119,5665.49687746539734196876168129489971,5664.0,1.49687746539734196876168129489971
120,5761.09856329305305490169332124159966,5759.6,1.49856329305305490169332124159966
121,5857.50023511729354997051308559278786,5856.0,1.50023511729354997051308559278786
122,5954.70189316896160149600189536541381,5953.2,1.50189316896160149600189536541381
123,6052.70353767323750730380682694970775,6051.2,1.50353767323750730380682694970775
124,6151.50516884982283186127210825619224,6150.0,1.50516884982283186127210825619224
125,6251.10678691311675334778805932573714,6249.6,1.50678691311675334778805932573714
126,6351.50839207238537099247628900390991,6350.0,1.50839207238537099247628900390991
127,6452.70998453192430843514331458891576,6451.2,1.50998453192430843514331458891576
128,6554.71156449121492627924546006384918,6553.2,1.51156449121492627924546006384918
129,6657.51313214507444493236969965920250,6656.0,1.51313214507444493236969965920250
130,6761.11468768380026044786812159410671,6759.6,1.51468768380026044786812159410671
131,6865.51623129330872067716606591864449,6864.0,1.51623129330872067716606591864449
132,6970.71776315526861406506357832318673,6969.2,1.51776315526861406506357832318673
133,7076.71928344722961163876517807958845,7075.2,1.51928344722961163876517807958845
134,7183.52079234274589146541590262660307,7182.0,1.52079234274589146541590262660307
135,7291.12229001149515674457807813656991,7289.6,1.52229001149515674457807813656991
136,7399.52377661939325501455356235357011,7398.0,1.52377661939325501455356235357011
137,7508.72525232870459264351327784810971,7507.2,1.52525232870459264351327784810971
138,7618.72671729814852516440503098704947,7617.2,1.52671729814852516440503098704947
139,7729.52817168300190190670560175335139,7728.0,1.52817168300190190670560175335139
140,7841.12961563519792793211492487122444,7839.6,1.52961563519792793211492487122444
141,7953.53104930342150172380049726940325,7952.0,1.53104930342150172380049726940325
142,8066.73247283320117900553379654113159,8065.2,1.53247283320117900553379654113159
143,8180.73388636699790441689082404335007,8179.2,1.53388636699790441689082404335007
144,8295.53529004429064559105292102532959,8294.0,1.53529004429064559105292102532959
145,8411.13668400165905999398444698545498,8409.6,1.53668400165905999398444698545498
146,8527.53806837286331701501418883091725,8526.0,1.53806837286331701501418883091725
147,8644.73944328892118959588109177553476,8643.2,1.53944328892118959588109177553476
148,8762.74080887818253072727173454378550,8761.2,1.54080887818253072727173454378550
149,8881.54216526640123661380399662699424,8880.0,1.54216526640123661380399662699424
150,9001.14351257680480014833295853728665,8999.6,1.54351257680480014833295853728665
151,9121.54485093016155060983357539196933,9120.0,1.54485093016155060983357539196933
152,9242.74618044484566988402844234228952,9241.2,1.54618044484566988402844234228952
153,9364.74750123690007415645409088773051,9363.2,1.54750123690007415645409088773051
154,9487.54881342009724497720669177955834,9486.0,1.54881342009724497720669177955834
155,9611.15011710599808793335931365372845,9609.6,1.55011710599808793335931365372845
156,9735.55141240400889679541296797427523,9734.0,1.55141240400889679541296797427523
157,9860.75269942143649418438346463902751,9859.2,1.55269942143649418438346463902751
158,9986.75397826354162057762497482266046,9985.2,1.55397826354162057762497482266046
159,10113.5552490335906353262228097329393,10112.0,1.5552490335906353262228097329393
160,10241.1565118329055960214929745460817,10239.6,1.5565118329055960214929745460817
161,10369.5577667609127747067077847830030,10368.0,1.5577667609127747067077847830030
162,10498.7590139151896703951471843444751,10497.2,1.5590139151896703951471843444751
163,10628.7602533915105727477741001450662,10627.2,1.5602533915105727477741001450662
164,10759.5614852838907315471284596704369,10758.0,1.5614852838907315471284596704369
165,10891.1627096846291805676572801974785,10889.6,1.5627096846291805676572801974785
166,11023.5639266843502663580693483313663,11022.0,1.5639266843502663580693483313663
167,11156.7651363720439291680350262326472,11155.2,1.5651363720439291680350262326472
168,11290.7663388351047787081459771788154,11289.2,1.5663388351047787081459771788154
169,11425.5675341593700098052261155377623,11424.0,1.5675341593700098052261155377623
170,11561.1687224291561976961126907182578,11559.6,1.5687224291561976961126907182578
171,11697.5699037272950131543695474056132,11696.0,1.5699037272950131543695474056132
172,11834.7710781351678953165942338142811,11833.2,1.5710781351678953165942338142811
173,11972.7722457327397176106526074818407,11971.2,1.5722457327397176106526074818407
174,12111.5734065985914826293590654624179,12110.0,1.5734065985914826293590654624179
175,12251.1745608099520799345396432585270,12249.6,1.5745608099520799345396432585270
176,12391.5757084427291364978356309790396,12390.0,1.5757084427291364978356309790396
177,12532.7768495715389930387903973760477,12531.2,1.5768495715389930387903973760477
178,12674.7779842697358354146214579563300,12673.2,1.5779842697358354146214579563300
179,12817.5791126094400075066299938514255,12816.0,1.5791126094400075066299938514255
180,12961.1802346615655365496537337939125,12959.6,1.5802346615655365496537337939125
181,13105.5813504958468935531560278362731,13104.0,1.5813504958468935531560278362731
182,13250.7824601808650165093450509074964,13249.2,1.5824601808650165093450509074964
183,13396.7835637840726194376051635994453,13395.2,1.5835637840726194376051635994453
184,13543.5846613718188115067849634960411,13542.0,1.5846613718188115067849634960411
185,13691.1857530093730480434761362992369,13689.6,1.5857530093730480434761362992369
186,13839.5868387609484343949099655508907,13838.0,1.5868387609484343949099655508907
187,13988.7879186897244064469817526282014,13987.2,1.5879186897244064469817526282014
188,14138.7889928578688032337269648609052,14137.2,1.5889928578688032337269648609052
189,14289.5900613265593553693485044214699,14288.0,1.5900613265593553693485044214699
190,14441.1911241560046049538817505816411,14439.6,1.5911241560046049538817505816411
191,14593.5921814054642761750584690962255,14592.0,1.5921814054642761750584690962255
192,14746.7932331332691129885812674540962,14745.2,1.5932331332691129885812674540962
193,14900.7942793968402021806663758230832,14899.2,1.5942793968402021806663758230832
194,15055.5953202527077951536455442717809,15054.0,1.5953202527077951536455442717809
195,15211.1963557565296463669963730346850,15209.6,1.5963557565296463669963730346850
196,15367.5973859631088821257093952957360,15366.0,1.5973859631088821257093952957360
197,15524.7984109264114140913231858230230,15523.2,1.5984109264114140913231858230230
198,15682.7994306995829116776162239586862,15681.2,1.5994306995829116776162239586862
199,15841.6004453349653461648207242839494,15840.0,1.6004453349653461648207242839494
200,16001.2014548841131204725679120980776,15999.6,1.6014548841131204725679120980776
201,16161.6024593978087955679942267094771,16160.0,1.6024593978087955679942267094771
202,16322.8034589260784268851717601951372,16321.2,1.6034589260784268851717601951372
203,16484.8044535182065214105950537079042,16483.2,1.6044535182065214105950537079042
204,16647.6054432227506270496401100459297,16646.0,1.6054432227506270496401100459297
205,16811.2064280875555642393598612236632,16809.6,1.6064280875555642393598612236632
206,16975.6074081597673128263680264619308,16974.0,1.6074081597673128263680264619308
207,17140.8083834858465600804917291222817,17139.2,1.6083834858465600804917291222817
208,17306.8093541115819240656528836011891,17305.2,1.6093541115819240656528836011891
209,17473.6103200821028581108640815930886,17472.0,1.6103200821028581108640815930886
210,17641.2112814418922478769940689748688,17639.6,1.6112814418922478769940689748688
211,17809.6122382347987083783184637126070,17808.0,1.6122382347987083783184637126070
212,17978.8131905040485911860376874982984,17977.2,1.6131905040485911860376874982984
213,18148.8141382922577061917099513864753,18147.2,1.6141382922577061917099513864753
214,18319.6150816414427729063437843702686,18318.0,1.6150816414427729063437843702686
215,18491.2160205930326005014377236301376,18489.6,1.6160205930326005014377236301376
216,18663.6169551878790105464806462132950,18662.0,1.6169551878790105464806462132950
217,18836.8178854662675064020118798490749,18835.2,1.6178854662675064020118798490749
218,19010.8188114679276982407495567691844,19009.2,1.6188114679276982407495567691844
219,19185.6197332320434869697827158884894,19184.0,1.6197332320434869697827158884894
220,19361.2206507972630195620138303086016,19359.6,1.6206507972630195620138303086016
221,19537.6215642017084136992037708828907,19536.0,1.6215642017084136992037708828907
222,19714.8224734829852689240454994196584,19713.2,1.6224734829852689240454994196584
223,19892.8233786781919578621617541654028,19891.2,1.6233786781919578621617541654028
224,20071.6242798239287125733876293491895,20070.0,1.6242798239287125733876293491895
225,20251.2251769563065085889467186958844,20249.6,1.6251769563065085889467186958844
226,20431.6260701109557501725269276899303,20430.0,1.6260701109557501725269276899303
227,20612.8269593230347654481690146551155,20611.2,1.6269593230347654481690146551155
228,20794.8278446272381132052371532128964,20793.2,1.6278446272381132052371532128964
229,20977.6287260578047085326822092160816,20976.0,1.6287260578047085326822092160816
230,21161.2296036485257719689058659513254,21159.6,1.6296036485257719689058659513254
231,21345.6304774327526039565596154463720,21344.0,1.6304774327526039565596154463720
232,21530.8313474434041950112642792310562,21529.2,1.6313474434041950112642792310562
233,21716.8322137129746665898202817867370,21715.2,1.6322137129746665898202817867370
234,21903.6330762735405588040425921444955,21902.0,1.6330762735405588040425921444955
235,22091.2339351567679581513881411705929,22089.6,1.6339351567679581513881411705929
236,22279.6347903939194749612136716312918,22278.0,1.6347903939194749612136716312918
237,22468.8356420158610741768622892277423,22467.2,1.6356420158610741768622892277423
238,22658.8364900530687612046611937664840,22657.2,1.6364900530687612046611937664840
