Eigenstate,Energy,Kinetic Energy,Potential Energy
1,0.500000000018265297649108353815630533,0.0,0.500000000018265297649108353815630533
2,1.84623093777034091034390773719257229,1.2,0.64623093777034091034390773719257229
3,3.93633761005519283999000526954963377,3.2,0.73633761005519283999000526954963377
4,6.79966527854370024951566860940418138,6.0,0.79966527854370024951566860940418138
5,10.4480465765492601893274793890210358,9.6,0.8480465765492601893274793890210358
6,14.8870659988255220675102170937798544,14.0,0.8870659988255220675102170937798544
7,20.1197208268101795966131854381033747,19.2,0.9197208268101795966131854381033747
8,26.1477838468799314711071841829464624,25.2,0.9477838468799314711071841829464624
9,32.9723835580409166113943066831126701,32.0,0.9723835580409166113943066831126701
10,40.5942802144416202437338855870311807,39.6,0.9942802144416202437338855870311807
11,49.0140093862230233726588251502264680,48.0,1.0140093862230233726588251502264680
12,58.2319621686897142113014282318351815,57.2,1.0319621686897142113014282318351815
13,68.2484326919074689820733763756608937,67.2,1.0484326919074689820733763756608937
14,79.0636476535594071156172893791392175,78.0,1.0636476535594071156172893791392175
15,90.6777854347601723170584852274238986,89.6,1.0777854347601723170584852274238986
16,103.090988904926375299373635705222684,102.0,1.090988904926375299373635705222684
17,116.303374255238096701326716126120115,115.2,1.103374255238096701326716126120115
18,130.315037249645085687233572063693940,129.2,1.115037249645085687233572063693940
19,145.126057747970737037357193665984614,144.0,1.126057747970737037357193665984614
20,160.736503043546027264037374490106044,159.6,1.136503043546027264037374490106044
21,177.146430369291211584131353193847794,176.0,1.146430369291211584131353193847794
22,194.355888808874563919952342698477451,193.2,1.155888808874563919952342698477451
23,212.364920774648901468159207997641248,211.2,1.164920774648901468159207997641248
24,231.173563165052006802028404162689651,230.0,1.173563165052006802028404162689651
25,250.781848281402554225521497145299295,249.6,1.181848281402554225521497145299295
26,271.189804561707697499345843225361074,270.0,1.189804561707697499345843225361074
27,292.397457173625645660758464490857380,291.2,1.197457173625645660758464490857380
28,314.404828497824702851582247597516716,313.2,1.204828497824702851582247597516716
29,337.211938525185220248660428146393315,336.0,1.211938525185220248660428146393315
30,360.818805185641420622555926602051211,359.6,1.218805185641420622555926602051211
31,385.225444622314117550845903990368303,384.0,1.225444622314117550845903990368303
32,410.431871421507451728087956824797359,409.2,1.231871421507451728087956824797359
33,436.438098806833119010740120352217349,435.2,1.238098806833119010740120352217349
34,463.244138803975018569418746588648030,462.0,1.244138803975018569418746588648030
35,490.850002381268054455383416387532139,489.6,1.250002381268054455383416387532139
36,519.255699570231345009754345639158280,518.0,1.255699570231345009754345639158280
37,548.461239569392009995586269202182230,547.2,1.261239569392009995586269202182230
38,578.466630834105286589891596534897578,577.2,1.266630834105286589891596534897578
39,609.271881154578876723276863340362299,608.0,1.271881154578876723276863340362299
40,640.876997723913607471383614036866624,639.6,1.276997723913607471383614036866624
41,673.281987197655735928662733335293870,672.0,1.281987197655735928662733335293870
42,706.486855746101237393553951627578547,705.2,1.286855746101237393553951627578547
43,740.491609100385929349265502616909471,739.2,1.291609100385929349265502616909471
44,775.296252593227189708877586037739604,774.0,1.296252593227189708877586037739604
45,810.900791195045458224523616721922247,809.6,1.300791195045458224523616721922247
46,847.305229546080573677832713389624034,846.0,1.305229546080573677832713389624034
47,884.509571985024522856504721722809997,883.2,1.309571985024522856504721722809997
48,922.513822574614590957657178148323871,921.2,1.313822574614590957657178148323871
49,961.317985124566240514700802532876244,960.0,1.317985124566240514700802532876244
50,1000.92206321217092323085835743254174,999.6,1.32206321217092323085835743254174
51,1041.32606020083856213997889121818882,1040.0,1.32606020083856213997889121818882
52,1082.52997925682609630100815511516583,1081.2,1.32997925682609630100815511516583
53,1124.53382336436103011393685511277891,1123.2,1.33382336436103011393685511277891
54,1167.33759533934136821359808701594900,1166.0,1.33759533934136821359808701594900
55,1210.94129784176984140517841521246532,1209.6,1.34129784176984140517841521246532
56,1255.34493338706025453518610060678010,1254.0,1.34493338706025453518610060678010
57,1300.54850435633658822650457990406100,1299.2,1.34850435633658822650457990406100
58,1346.55201300583068921987142821893449,1345.2,1.35201300583068921987142821893449
59,1393.35546147547163011685055187877555,1392.0,1.35546147547163011685055187877555
60,1440.95885179674879481166536315231010,1439.6,1.35885179674879481166536315231010
61,1489.36218589992118167175808297227732,1488.0,1.36218589992118167175808297227732
62,1538.56546562063711552182854110392042,1537.2,1.36546562063711552182854110392042
63,1588.56869270602131759708675131657189,1587.2,1.36869270602131759708675131657189
64,1639.37186882027997015153273109269806,1638.0,1.37186882027997015153273109269806
65,1690.97499554986887756710528614454450,1689.6,1.37499554986887756710528614454450
66,1743.37807440826497847048837885736215,1742.0,1.37807440826497847048837885736215
67,1796.58110684037720107303869428130180,1795.2,1.38110684037720107303869428130180
68,1850.58409422662889778849019448334243,1849.2,1.38409422662889778849019448334243
69,1905.38703788674078251236525282545581,1904.0,1.38703788674078251236525282545581
70,1960.98993908324036567875853432542454,1959.6,1.38993908324036567875853432542454
71,2017.39279902472128350642903046532688,2016.0,1.39279902472128350642903046532688
72,2074.59561886887361960375632332931202,2073.2,1.39561886887361960375632332931202
73,2132.59839972530426409571393111336764,2131.2,1.39839972530426409571393111336764
74,2191.40114265816453658746016001861318,2190.0,1.40114265816453658746016001861318
75,2251.00384868860066817804411016300926,2249.6,1.40384868860066817804411016300926
76,2311.40651879704128818096945706397525,2310.0,1.40651879704128818096945706397525
77,2372.60915392533475880994071465162965,2371.2,1.40915392533475880994071465162965
78,2434.61175497874803528993662049159132,2433.2,1.41175497874803528993662049159132
79,2497.41432282783768203376321253582796,2496.0,1.41432282783768203376321253582796
80,2561.01685831020273739859480070102084,2559.6,1.41685831020273739859480070102084
81,2625.41936223212827019553452757516681,2624.0,1.41936223212827019553452757516681
82,2690.62183537012770967467279267834245,2689.2,1.42183537012770967467279267834245
83,2756.62427847239134197433219930034703,2755.2,1.42427847239134197433219930034703
84,2823.42669226014774173147162210110697,2822.0,1.42669226014774173147162210110697
85,2891.02907742894434827404833657974549,2889.6,1.42907742894434827404833657974549
86,2959.43143464985287995074790404562203,2958.0,1.43143464985287995074790404562203
87,3028.63376457060482268269162941016627,3027.2,1.43376457060482268269162941016627
88,3098.63606781666180544399575537494352,3097.2,1.43606781666180544399575537494352
89,3169.43834499222529187589509819380236,3168.0,1.43834499222529187589509819380236
90,3241.04059668118967402241452912710690,3239.6,1.44059668118967402241452912710690
91,3313.44282344804253272352107073865504,3312.0,1.44282344804253272352107073865504
92,3386.64502583871554090415023197964876,3385.2,1.44502583871554090415023197964876
93,3460.64720438138922374244460693836257,3459.2,1.44720438138922374244460693836257
94,3535.44935958725454677180465377069854,3534.0,1.44935958725454677180465377069854
95,3611.05149195123408181732256699713387,3609.6,1.45149195123408181732256699713387
96,3687.45360195266529884505375820240114,3686.0,1.45360195266529884505375820240114
97,3764.65569005594834746047081651484933,3763.2,1.45569005594834746047081651484933
98,3842.65775671116051891815017055340006,3841.2,1.45775671116051891815017055340006
99,3921.45980235463942603255249917299641,3920.0,1.45980235463942603255249917299641
100,4001.06182740953679203934191711758935,3999.6,1.46182740953679203934191711758935
101,4081.46383228634461015253444726430437,4080.0,1.46383228634461015253444726430437
102,4162.66581738339530998804524115575980,4161.2,1.46581738339530998804524115575980
103,4244.66778308733745911059111540764419,4243.2,1.46778308733745911059111540764419
104,4327.46972977358842069619457396712438,4326.0,1.46972977358842069619457396712438
105,4411.07165780676529522877856604471546,4409.6,1.47165780676529522877856604471546
106,4495.47356754109538338509754788620991,4494.0,1.47356754109538338509754788620991
107,4580.67545932080732918029497806618114,4579.2,1.47545932080732918029497806618114
108,4666.67733348050402320682300180524259,4665.2,1.47733348050402320682300180524259
109,4753.47919034551827720592592339363576,4752.0,1.47919034551827720592592339363576
110,4841.08103023225221879076398929631237,4839.6,1.48103023225221879076398929631237
111,4929.48285344850128927905550486827837,4928.0,1.48285344850128927905550486827837
112,5018.68466029376367815948181108294162,5017.2,1.48466029376367815948181108294162
113,5108.68645105953597218030559435619241,5107.2,1.48645105953597218030559435619241
114,5199.48822602959574829089664721996399,5198.0,1.48822602959574829089664721996399
115,5291.08998548027179921835662131276544,5289.6,1.48998548027179921835662131276544
116,5383.49172968070263212978612075035822,5382.0,1.49172968070263212978612075035822
117,5476.69345889308384911773068302216692,5475.2,1.49345889308384911773068302216692
118,5570.69517337290497721523665662122744,5569.2,1.49517337290497721523665662122744
119,5665.49687336917628193323166086645294,5664.0,1.49687336917628193323166086645294
120,5761.09855912464607247070935134396864,5759.6,1.49855912464607247070935134396864
121,5857.50023087600896848095398012041038,5856.0,1.50023087600896848095398012041038
122,5954.70188885410557936390744683821671,5953.2,1.50188885410557936390744683821671
123,6052.70353328411401486184954821121202,6051.2,1.50353328411401486184954821121202
124,6151.50516438573362805575346775739932,6150.0,1.50516438573362805575346775739932
125,6251.10678237336136229341544208930250,6249.6,1.50678237336136229341544208930250
126,6351.50838745626105838315997773256097,6350.0,1.50838745626105838315997773256097
127,6452.70997983872605780903559842186787,6451.2,1.50997983872605780903559842186787
128,6554.71155972023541513622621595184775,6553.2,1.51155972023541513622621595184775
129,6657.51312729560402070216509843766321,6656.0,1.51312729560402070216509843766321
130,6761.11468275512691630697116762788023,6759.6,1.51468275512691630697116762788023
131,6865.51622628471807121270925680162674,6864.0,1.51622628471807121270925680162674
132,6970.71775806604387078377515945903006,6969.2,1.51775806604387078377515945903006
133,7076.71927827665155831912238419198632,7075.2,1.51927827665155831912238419198632
134,7183.52078709009285935108862295183565,7182.0,1.52078709009285935108862295183565
135,7291.12228467604299957723748058465472,7289.6,1.52228467604299957723748058465472
136,7399.52377120041532390410064983747509,7398.0,1.52377120041532390410064983747509
137,7508.72524682547171077376211392671724,7507.2,1.52524682547171077376211392671724
138,7618.72671170992896233223537888394434,7617.2,1.52671170992896233223537888394434
139,7729.52816600906134889267909500562175,7728.0,1.52816600906134889267909500562175
140,7841.12960987479947070052819882193178,7839.6,1.52960987479947070052819882193178
141,7953.53104345582559545012771381073263,7952.0,1.53104345582559545012771381073263
142,8066.73246689766562192918926486749451,8065.2,1.53246689766562192918926486749451
143,8180.73388034277781151722113430945526,8179.2,1.53388034277781151722113430945526
144,8295.53528393063842208444558070368716,8294.0,1.53528393063842208444558070368716
145,8411.13667779782437464995819463864519,8409.6,1.53667779782437464995819463864519
146,8527.53806207809307528913302897580545,8526.0,1.53806207809307528913302897580545
147,8644.73943690245950657731126569067987,8643.2,1.53943690245950657731126569067987
148,8762.74080239927070389877788993941356,8761.2,1.54080239927070389877788993941356
149,8881.54215869427771842195647577625727,8880.0,1.54215869427771842195647577625727
150,9001.14350591070517038167509241545556,8999.6,1.54350591070517038167509241545556
151,9121.54484416931848858273243820965708,9120.0,1.54484416931848858273243820965708
152,9242.74617358848892642390882972270818,9241.2,1.54617358848892642390882972270818
153,9364.74749428425644339208984616993871,9363.2,1.54749428425644339208984616993871
154,9487.54880637039053592571850706259322,9486.0,1.54880637039053592571850706259322
155,9611.15010995844909588354209237060046,9609.6,1.55010995844909588354209237060046
156,9735.55140515783537448498962089862810,9734.0,1.55140515783537448498962089862810
157,9860.75269207585312276875598175883954,9859.2,1.55269207585312276875598175883954
158,9986.75397081775998038766620870903216,9985.2,1.55397081775998038766620870903216
159,10113.5552414868191764126254523202248,10112.0,1.5552414868191764126254523202248
160,10241.1565041843496084831644045107947,10239.6,1.5565041843496084831644045107947
161,10369.5577590097743588006712456411676,10368.0,1.5577590097743588006712456411676
162,10498.7590060606677064253815496512177,10497.2,1.5590060606677064253815496512177
163,10628.7602454328006907303955562374987,10627.2,1.5602454328006907303955562374987
164,10759.5614772201852806492878343416005,10758.0,1.5614772201852806492878343416005
165,10891.1627015151171983174970463062229,10889.6,1.5627015151171983174970463062229
166,11023.5639184082174476230545923348052,11022.0,1.5639184082174476230545923348052
167,11156.7651279884725948989416382815925,11155.2,1.5651279884725948989416382815925
168,11290.7663303432738444459580656664942,11289.2,1.5663303432738444459580656664942
169,11425.5675255584549539481639536036433,11424.0,1.5675255584549539481639536036433
170,11561.1687137183290295239793103710754,11559.6,1.5687137183290295239793103710754
171,11697.5698949057242406073728776231106,11696.0,1.5698949057242406073728776231106
172,11834.7710692020184925257678617618307,11833.2,1.5710692020184925257678617618307
173,11972.7722366871730921769653603305119,11971.2,1.5722366871730921769653603305119
174,12111.5733974397654426485694262310618,12110.0,1.5733974397654426485694262310618
175,12251.1745515370208007648166982180721,12249.6,1.5745515370208007648166982180721
176,12391.5756990548431272671333567566575,12390.0,1.5756990548431272671333567566575
177,12532.7768400678450628889267544638497,12531.2,1.5768400678450628889267544638497
178,12674.7779746493770594789778057501591,12673.2,1.5779746493770594789778057501591
179,12817.5791028715556926183497615384868,12816.0,1.5791028715556926183497615384868
180,12961.1802248052911866771821705388576,12959.6,1.5802248052911866771821705388576
181,13105.5813405203141749599258759573355,13104.0,1.5813405203141749599258759573355
182,13250.7824500852017226343742595658979,13249.2,1.5824500852017226343742595658979
183,13396.7835535674026354937343157893768,13395.2,1.5835535674026354937343157893768
184,13543.5846510332620787932432890584642,13542.0,1.5846510332620787932432890584642
185,13691.1857425480455279694237235411120,13689.6,1.5857425480455279694237235411120
186,13839.5868281759620722105657979207555,13838.0,1.5868281759620722105657979207555
187,13988.7879079801870946789036748248620,13987.2,1.5879079801870946789036748248620
188,14138.7889820228843448207695928895120,14137.2,1.5889820228843448207695928895120
189,14289.5900503652274264957824758292342,14288.0,1.5900503652274264957824758292342
190,14441.1911130674207175761147743137139,14439.6,1.5911130674207175761147743137139
191,14593.5921701887197402383549748963645,14592.0,1.5921701887197402383549748963645
192,14746.7932217874509983301337047148990,14745.2,1.5932217874509983301337047148990
193,14900.7942679210313001153257269200160,14899.2,1.5942679210313001153257269200160
194,15055.5953086459865797385741513056980,15054.0,1.5953086459865797385741513056980
195,15211.1963440179702353414587518210662,15209.6,1.5963440179702353414587518210662
196,15367.5973740917809975221708567048698,15366.0,1.5973740917809975221708567048698
197,15524.7983989213803425139779429110242,15523.2,1.5983989213803425139779429110242
198,15682.7994185599094642444188071906133,15681.2,1.5994185599094642444188071906133
199,15841.6004330597058181090446525507109,15840.0,1.6004330597058181090446525507109
200,16001.2014424723192503998668737263908,15999.6,1.6014424723192503998668737263908
201,16161.6024468485277243648901168726285,16160.0,1.6024468485277243648901168726285
202,16322.8034462383526562748417520791320,16321.2,1.6034462383526562748417520791320
203,16484.8044406910738721517795480530656,16483.2,1.6044406910738721517795480530656
204,16647.6054302552441967744388588437542,16646.0,1.6054302552441967744388588437542
205,16811.2064149787036849256311526431548,16809.6,1.6064149787036849256311526431548
206,16975.6073949085935079003905148793632,16974.0,1.6073949085935079003905148793632
207,17140.8083700913695011454934669606356,17139.2,1.6083700913695011454934669606356
208,17306.8093405728153872517564616966429,17305.2,1.6093405728153872517564616966429
209,17473.6103063980556800419383892364260,17472.0,1.6103063980556800419383892364260
210,17641.2112676115682812498469617734175,17639.6,1.6112676115682812498469617734175
211,17809.6122242571967771496050947586161,17808.0,1.6122242571967771496050947586161
212,17978.8131763781624453621991615679026,17977.2,1.6131763781624453621991615679026
213,18148.8141240170759762171968095127220,18147.2,1.6141240170759762171968095127220
214,18319.6150672159489236453176205482827,18318.0,1.6150672159489236453176205482827
215,18491.2160060162048848080810588194477,18489.6,1.6160060162048848080810588194477
216,18663.6169404586904224189819415657888,18662.0,1.6169404586904224189819415657888
217,18836.8178705836857337152285918545224,18835.2,1.6178705836857337152285918545224
218,19010.8187964309150750524863051444989,19009.2,1.6187964309150750524863051444989
219,19185.6197180395569453955547321303911,19184.0,1.6197180395569453955547321303911
220,19361.2206354482540412130994910069901,19359.6,1.6206354482540412130994910069901
221,19537.6215486951229806787202805661594,19536.0,1.6215486951229806787202805661594
222,19714.8224578177638143757132757378081,19713.2,1.6224578177638143757132757378081
223,19892.8233628532693160663512371972739,19891.2,1.6233628532693160663512371972739
224,20071.6242638382340685849715862725106,20070.0,1.6242638382340685849715862725106
225,20251.2251608087633474114070324284861,20249.6,1.6251608087633474114070324284861
226,20431.6260538004818054626914472582416,20430.0,1.6260538004818054626914472582416
227,20612.8269428485419677458793047096251,20611.2,1.6269428485419677458793047096251
228,20794.8278279876325376821697668002014,20793.2,1.6278279876325376821697668002014
229,20977.6287092519865222544704718939444,20976.0,1.6287092519865222544704718939444
230,21161.2295866753891806646290590548196,21159.6,1.6295866753891806646290590548196
231,21345.6304602911857982895865847988007,21344.0,1.6304602911857982895865847988007
232,21530.8313301322892963453570954637137,21529.2,1.6313301322892963453570954637137
233,21716.8321962311876722443212075842709,21715.2,1.6321962311876722443212075842709
234,21903.6330586199512867918828515192598,21902.0,1.6330586199512867918828515192598
235,22091.2339173302399913935722191059213,22089.6,1.6339173302399913935722191059213
236,22279.6347723933101049713461888926091,22278.0,1.6347723933101049713461888926091
237,22468.8356238400212442091957742367947,22467.2,1.6356238400212442091957742367947
238,22658.8364717008430088590539678171898,22657.2,1.6364717008430088590539678171898
