Eigenstate,Energy,Kinetic Energy,Potential Energy
1,0.500000000034160766518108373036428596,0.0,0.500000000034160766518108373036428596
2,1.84623093787409824591048025774483211,1.2,0.64623093787409824591048025774483211
3,3.93633761035997163426524169021129797,3.2,0.73633761035997163426524169021129797
4,6.79966527917851965789489458385720944,6.0,0.79966527917851965789489458385720944
5,10.4480465776488972697320420781854613,9.6,0.8480465776488972697320420781854613
6,14.8870660005271126080819905564755855,14.0,0.8870660005271126080819905564755855
7,20.1197208292519654475947455443223008,19.2,0.9197208292519654475947455443223008
8,26.1477838502007379161399986945665312,25.2,0.9477838502007379161399986945665312
9,32.9723835623799091477920258103794919,32.0,0.9723835623799091477920258103794919
10,40.5942802199381809563275804611014774,39.6,0.9942802199381809563275804611014774
11,49.0140093930166836067507148676087761,48.0,1.0140093930166836067507148676087761
12,58.2319621769201159347110551879562730,57.2,1.0319621769201159347110551879562730
13,68.2484327017143417655572664360193840,67.2,1.0484327017143417655572664360193840
14,79.0636476650825541016139437462815271,78.0,1.0636476650825541016139437462815271
15,90.6777854481394616108508123840788925,89.6,1.0777854481394616108508123840788925
16,103.090988920301734766283755428226648,102.0,1.090988920301734766283755428226648
17,116.303374272749510979435036385265532,115.2,1.103374272749510979435036385265532
18,130.315037269432594685833912665197967,129.2,1.115037269432594685833912665197967
19,145.126057770174435458825961379135236,144.0,1.126057770174435458825961379135236
20,160.736503068306064847614710792863374,159.6,1.136503068306064847614710792863374
21,177.146430396747793869862593786346440,176.0,1.146430396747793869862593786346440
22,194.355888839167953394648658242241566,193.2,1.155888839167953394648658242241566
23,212.364920807919418996821329087736846,211.2,1.164920807919418996821329087736846
24,231.173563201440033275978957446849842,230.0,1.173563201440033275978957446849842
25,250.781848321048532377458910944306181,249.6,1.181848321048532377458910944306181
26,271.189804604752133848713824761254223,270.0,1.189804604752133848713824761254223
27,292.397457220209112562140375990164542,291.2,1.197457220209112562140375990164542
28,314.404828548087840625515263759018401,313.2,1.204828548087840625515263759018401
29,337.211938579268739379130981341571284,336.0,1.211938579268739379130981341571284
30,360.818805243686104009027072746564087,359.6,1.218805243686104009027072746564087
31,385.225444684460822805346378402963411,384.0,1.225444684460822805346378402963411
32,410.431871487897113509915056251533560,409.2,1.231871487897113509915056251533560
33,436.438098877606751392871124312898814,435.2,1.238098877606751392871124312898814
34,463.244138879273717431913669359793957,462.0,1.244138879273717431913669359793957
35,490.850002461232999901985250405217674,489.6,1.250002461232999901985250405217674
36,519.255699655003803804616686242478713,518.0,1.255699655003803804616686242478713
37,548.461239659113338017630036797292874,547.2,1.261239659113338017630036797292874
38,578.466630928916931302747717165903005,577.2,1.266630928916931302747717165903005
39,609.271881254622379659136610355372338,608.0,1.271881254622379659136610355372338
40,640.876997829330606727372754714435874,639.6,1.276997829330606727372754714435874
41,673.281987308587968674594671929566888,672.0,1.281987308587968674594671929566888
42,706.486855862690542390112361570178867,705.2,1.286855862690542390112361570178867
43,740.491609222774249475827368248787250,739.2,1.291609222774249475827368248787250
44,775.296252721556574500320044307070255,774.0,1.296252721556574500320044307070255
45,810.900791329458066416467972477100999,809.6,1.300791329458066416467972477100999
46,847.305229686718675759870746551573853,846.0,1.305229686718675759870746551573853
47,884.509572132030503633029248607694681,883.2,1.309572132030503633029248607694681
48,922.513822728130952115983566447599562,921.2,1.313822728130952115983566447599562
49,961.317985284735603200220808948475607,960.0,1.317985284735603200220808948475607
50,1000.92206337913603062901408014893045,999.6,1.32206337913603062901408014893045
51,1041.32606037474228206488420026831198,1040.0,1.32606037474228206488420026831198
52,1082.52997943781142379057879334057882,1081.2,1.32997943781142379057879334057882
53,1124.53382355257109003141943023307452,1123.2,1.33382355257109003141943023307452
54,1167.33759553491941785541322537990258,1166.0,1.33759553491941785541322537990258
55,1210.94129804485927311501496419978835,1209.6,1.34129804485927311501496419978835
56,1255.34493359780459832430204207743484,1254.0,1.34493359780459832430204207743484
57,1300.54850457487951440020662004188608,1299.2,1.34850457487951440020662004188608
58,1346.55201323231601101015955154042727,1345.2,1.35201323231601101015955154042727
59,1393.35546171004330632122623391597620,1392.0,1.35546171004330632122623391597620
60,1440.95885203955093243811316612784938,1439.6,1.35885203955093243811316612784938
61,1489.36218615109803858991999958677768,1488.0,1.36218615109803858991999958677768
62,1538.56546588033310312039901550466776,1537.2,1.36546588033310312039901550466776
63,1588.56869297438100344746388260586831,1587.2,1.36869297438100344746388260586831
64,1639.37186909744808067776787723911768,1638.0,1.37186909744808067776787723911768
65,1690.97499583599030072219934047843325,1689.6,1.37499583599030072219934047843325
66,1743.37807470348476641908834446578465,1742.0,1.37807470348476641908834446578465
67,1796.58110714484057288059301617724510,1795.2,1.38110714484057288059301617724510
68,1850.58409454048124211692563724259976,1849.2,1.38409454048124211692563724259976
69,1905.38703821012766032235210745259949,1904.0,1.38703821012766032235210745259949
70,1960.98993941630751293863435405870059,1959.6,1.38993941630751293863435405870059
71,2017.39279936761461390785450812732882,2016.0,1.39279936761461390785450812732882
72,2074.59561922173922728417969239076042,2073.2,1.39561922173922728417969239076042
73,2132.59840008828842636772309702725917,2131.2,1.39840008828842636772309702725917
74,2191.40114303141371667510416404313920,2190.0,1.40114303141371667510416404313920
75,2251.00384907226151796020785791386522,2249.6,1.40384907226151796020785791386522
76,2311.40651919126065094188769472636455,2310.0,1.40651919126065094188769472636455
77,2372.60915433025967199693921018172866,2371.2,1.40915433025967199693921018172866
78,2434.61175539452573327849034192832464,2433.2,1.41175539452573327849034192832464
79,2497.41432325461559889996295936975955,2496.0,1.41432325461559889996295936975955
80,2561.01685874812850969911531267690850,2559.6,1.41685874812850969911531267690850
81,2625.41936268134973975519863962587099,2624.0,1.41936268134973975519863962587099
82,2690.62183583079292638170756448041305,2689.2,1.42183583079292638170756448041305
83,2756.62427894464856658341429012743815,2755.2,1.42427894464856658341429012743815
84,2823.42669274414544867466044695654526,2822.0,1.42669274414544867466044695654526
85,2891.02907792483122847970675468538336,2889.6,1.42907792483122847970675468538336
86,2959.43143515777784367055129061998652,2958.0,1.43143515777784367055129061998652
87,3028.63376509071700232682735152181014,3027.2,1.43376509071700232682735152181014
88,3098.63606834911055842465610332056862,3097.2,1.43606834911055842465610332056862
89,3169.43834553716020345916772132957992,3168.0,1.43834553716020345916772132957992
90,3241.04059723876056018867544848254430,3239.6,1.44059723876056018867544848254430
91,3313.44282401839944303643630317887992,3312.0,1.44282401839944303643630317887992
92,3386.64502642200876138839296797301376,3385.2,1.44502642200876138839296797301376
93,3460.64720497776927977023582369611457,3459.2,1.44720497776927977023582369611457
94,3535.44936019687220595838591566353034,3534.0,1.44936019687220595838591566353034
95,3611.05149257424035692547067365359341,3609.6,1.45149257424035692547067365359341
96,3687.45360258921145069874770044766839,3686.0,1.45360258921145069874770044766839
97,3764.65569070618588786782243462664983,3763.2,1.45569070618588786782243462664983
98,3842.65775737524121360371063539248990,3841.2,1.45775737524121360371063539248990
99,3921.45980303271529757910767120091152,3920.0,1.45980303271529757910767120091152
100,4001.06182810176012283931037688740826,3999.6,1.46182810176012283931037688740826
101,4081.46383299286794536908283933794837,4080.0,1.46383299286794536908283933794837
102,4162.66581810437146052603637656931168,4161.2,1.46581810437146052603637656931168
103,4244.66778382291950459748103769973745,4243.2,1.46778382291950459748103769973745
104,4327.46973052392971247299568397422060,4326.0,1.46973052392971247299568397422060
105,4411.07165857201945935120659075598240,4409.6,1.47165857201945935120659075598240
106,4495.47356832141632363502099343406929,4494.0,1.47356832141632363502099343406929
107,4580.67546011634923008760650537482101,4579.2,1.47546011634923008760650537482101
108,4666.67733429142135308185290560687475,4665.2,1.47733429142135308185290560687475
109,4753.47919117196579118251876360427264,4752.0,1.47919117196579118251876360427264
110,4841.08103107438496188014015817247884,4839.6,1.48103107438496188014015817247884
111,4929.48285430647459943458034789189564,4928.0,1.48285430647459943458034789189564
112,5018.68466116773318935246572031709260,5017.2,1.48466116773318935246572031709260
113,5108.68645194965761748695925922233668,5107.2,1.48645194965761748695925922233668
114,5199.48822693602576299056651835338550,5198.0,1.48822693602576299056651835338550
115,5291.08998640316672390316641759532065,5289.6,1.48998640316672390316641759532065
116,5383.49173062021931582581103373888741,5382.0,1.49173062021931582581103373888741
117,5476.69345984937945241783175576721529,5475.2,1.49345984937945241783175576721529
118,5570.69517434613697542368366161186730,5569.2,1.49517434613697542368366161186730
119,5665.49687435950246822224360384231884,5664.0,1.49687435950246822224360384231884
120,5761.09856013222456104904259209700911,5759.6,1.49856013222456104904259209700911
121,5857.50023190099819777466881933108119,5856.0,1.50023190099819777466881933108119
122,5954.70188989666431520944484351557994,5953.2,1.50188989666431520944484351557994
123,6052.70353434440135371155056825611997,6051.2,1.50353434440135371155056825611997
124,6151.50516546390900019595480073494502,6150.0,1.50516546390900019595480073494502
125,6251.10678346958453507525534953392612,6249.6,1.50678346958453507525534953392612
126,6351.50838857069213946622982209687874,6350.0,1.50838857069213946622982209687874
127,6452.70998097152549841801302194980128,6451.2,1.50998097152549841801302194980128
128,6554.71156087156401333062697976286210,6553.2,1.51156087156401333062697976286210
129,6657.51312846562292465935144241528661,6656.0,1.51312846562292465935144241528661
130,6761.11468394399762761855548255914938,6759.6,1.51468394399762761855548255914938
131,6865.51622749260244819449276201076348,6864.0,1.51622749260244819449276201076348
132,6970.71775929310413179936239554635263,6969.2,1.51775929310413179936239554635263
133,7076.71927952305028511735291635322062,7075.2,1.51927952305028511735291635322062
134,7183.52078835599300041742869118957091,7182.0,1.52078835599300041742869118957091
135,7291.12228596160787349927509290937625,7289.6,1.52228596160787349927509290937625
136,7399.52377250580862275128853791557586,7398.0,1.52377250580862275128853791557586
137,7508.72524815085750349155414823576248,7507.2,1.52524815085750349155414823576248
138,7618.72671305547169815076284516384736,7617.2,1.52671305547169815076284516384736
139,7729.52816737492586075011438687999854,7728.0,1.52816737492586075011438687999854
140,7841.12961126115097868128441178541325,7839.6,1.52961126115097868128441178541325
141,7953.53104486282971023804360775647230,7952.0,1.53104486282971023804360775647230
142,8066.73246832548834827585029265885872,8065.2,1.53246832548834827585029265885872
143,8180.73388179158555172556800900156910,8179.2,1.53388179158555172556800900156910
144,8295.53528540059797950782320675094166,8294.0,1.53528540059797950782320675094166
145,8411.13667928910295720675858734842306,8409.6,1.53667928910295720675858734842306
146,8527.53806359085829899318711144815185,8526.0,1.53806359085829899318711144815185
147,8644.73943843687939908418549463730004,8643.2,1.53943843687939908418549463730004
148,8762.74080395551370806813267184695241,8761.2,1.54080395551370806813267184695241
149,8881.54216027251269589612457817949658,8880.0,1.54216027251269589612457817949658
150,9001.14350751110140518061928436483946,8999.6,1.54350751110140518061928436483946
151,9121.54484579204569071554285277980989,9120.0,1.54484579204569071554285277980989
152,9242.74617523371723551700153284967110,9241.2,1.54617523371723551700153284967110
153,9364.74749595215643233426943902688562,9363.2,1.54749595215643233426943902688562
154,9487.54880806113321453026862349827724,9486.0,1.54880806113321453026862349827724
155,9611.15011167220591456750889947317127,9609.6,1.55011167220591456750889947317127
156,9735.55140689477822796582474828253432,9734.0,1.55140689477822796582474828253432
157,9860.75269383615435377848630307877215,9859.2,1.55269383615435377848630307877215
158,9986.75397260159238340475928981939568,9985.2,1.55397260159238340475928981939568
159,10113.5552432943560014117206885345439,10112.0,1.5552432943560014117206885345439
160,10241.1565060157645647028411059289996,10239.6,1.5565060157645647028411059289996
161,10369.5577608652416185294262519720653,10368.0,1.5577608652416185294262519720653
162,10498.7590079403619088059902149448536,10497.2,1.5590079403619088059902149448536
163,10628.7602473368969455828311746525924,10627.2,1.5602473368969455828311746525924
164,10759.5614791488591723123760090103002,10758.0,1.5614791488591723123760090103002
165,10891.1627034685447895094828286376054,10889.6,1.5627034685447895094828286376054
166,11023.5639203865752833212614322002959,11022.0,1.5639203865752833212614322002959
167,11156.7651299919377062387026616812678,11155.2,1.5651299919377062387026616812678
168,11290.7663323720237526390015817009252,11289.2,1.5663323720237526390015817009252
169,11425.5675276126676742206363534126057,11424.0,1.5675276126676742206363534126057
170,11561.1687157981830750742901244657097,11559.6,1.5687157981830750742901244657097
171,11697.5698970113986265840479428664887,11696.0,1.5698970113986265840479428664887
172,11834.7710713336927400254982046471379,11833.2,1.5710713336927400254982046471379
173,11972.7722388450272322630407004737910,11971.2,1.5722388450272322630407004737910
174,12111.5733996239800203898867101061098,12110.0,1.5733996239800203898867101061098
175,12251.1745537477768792956556372976970,12249.6,1.5745537477768792956556372976970
176,12391.5757012923222918678922983568392,12390.0,1.5757012923222918678922983568392
177,12532.7768423322294250880138715721636,12531.2,1.5768423322294250880138715721636
178,12674.7779769408492611760540073337418,12673.2,1.5779769408492611760540073337418
179,12817.5791051902989102291213640349301,12816.0,1.5791051902989102291213640349301
180,12961.1802271514891352999428681878553,12959.6,1.5802271514891352999428681878553
181,13105.5813428941511125640491977168630,13104.0,1.5813428941511125640491977168630
182,13250.7824524868624542709592040400360,13249.2,1.5824524868624542709592040400360
183,13396.7835559970725175286086043649426,13395.2,1.5835559970725175286086043649426
184,13543.5846534911270231625301485547497,13542.0,1.5846534911270231625301485547497
185,13691.1857450342920064578800097698896,13689.6,1.5857450342920064578800097698896
186,13839.5868306907771207529005954082669,13838.0,1.5868306907771207529005954082669
187,13988.7879105237583176842885641616569,13987.2,1.5879105237583176842885641616569
188,14138.7889845953999195207531706007088,14137.2,1.5889845953999195207531706007088
189,14289.5900529668761073158236970686866,14288.0,1.5900529668761073158236970686866
190,14441.1911156983918405309512520749145,14439.6,1.5911156983918405309512520749145
191,14593.5921728492032273514242017873740,14592.0,1.5921728492032273514242017873740
192,14746.7932244776373620772670024946543,14745.2,1.5932244776373620772670024946543
193,14900.7942706411116478929363963955478,14899.2,1.5942706411116478929363963955478
194,15055.5953113961526183565632943520636,15054.0,1.5953113961526183565632943520636
195,15211.1963467984142755410639014576007,15209.6,1.5963467984142755410639014576007
196,15367.5973769026959585189845740363036,15366.0,1.5973769026959585189845740363036
197,15524.7984017629597565663652891276340,15523.2,1.5984017629597565663652891276340
198,15682.7994214323474812475645910225659,15681.2,1.5994214323474812475645910225659
199,15841.6004359631972102148632830287948,15840.0,1.6004359631972102148632830287948
200,16001.2014454070594166630095693135942,15999.6,1.6014454070594166630095693135942
201,16161.6024498147126954150860912017629,16160.0,1.6024498147126954150860912017629
202,16322.8034492361790990158122441923227,16321.2,1.6034492361790990158122441923227
203,16484.8044437207390944869652945102711,16483.2,1.6044437207390944869652945102711
204,16647.6054333169461523597838679323366,16646.0,1.6054333169461523597838679323366
205,16811.2064180726409779496674235224792,16809.6,1.6064180726409779496674235224792
206,16975.6073980349653978918708236254006,16974.0,1.6073980349653978918708236254006
207,17140.8083732503759078088210302552956,17139.2,1.6083732503759078088210302552956
208,17306.8093437646568953304626637303597,17305.2,1.6093437646568953304626637303597
209,17473.6103096229335442104618834392634,17472.0,1.6103096229335442104618834392634
210,17641.2112708696844310338695242462231,17639.6,1.6112708696844310338695242462231
211,17809.6122275487538218752019358360927,17808.0,1.6122275487538218752019358360927
212,17978.8131797033636791340634310760592,17977.2,1.6131797033636791340634310760592
213,18148.8141273761253829262005599007296,18147.2,1.6141273761253829262005599007296
214,18319.6150706090511820056734879787403,18318.0,1.6150706090511820056734879787403
215,18491.2160094435653734243713965102718,18489.6,1.6160094435653734243713965102718
216,18663.6169439205152248833243474635719,18662.0,1.6169439205152248833243474635719
217,18836.8178740801816437348492246155777,18835.2,1.6178740801816437348492246155777
218,19010.8187999622896016079746300715925,19009.2,1.6187999622896016079746300715925
219,19185.6197216060183179300758351853525,19184.0,1.6197216060183179300758351853525
220,19361.2206390500112148528425399040601,19359.6,1.6206390500112148528425399040601
221,19537.6215523323856414848639898983962,19536.0,1.6215523323856414848639898983962
222,19714.8224614907423846281920187160611,19713.2,1.6224614907423846281920187160611
223,19892.8233665621749595797075909249034,19891.2,1.6233665621749595797075909249034
224,20071.6242675832786960565839283271952,20070.0,1.6242675832786960565839283271952
225,20251.2251645901596218023832185103104,20249.6,1.6251645901596218023832185103104
226,20431.6260576184431474117222228862032,20430.0,1.6260576184431474117222228862032
227,20612.8269467032825610163477225671344,20611.2,1.6269467032825610163477225671344
228,20794.8278318793673346428155621278241,20793.2,1.6278318793673346428155621278241
229,20977.6287131809312493939109242992978,20976.0,1.6287131809312493939109242992978
230,21161.2295906417603441400407433234473,21159.6,1.6295906417603441400407433234473
231,21345.6304642952006895098549809796812,21344.0,1.6304642952006895098549809796812
232,21530.8313341741659975890039116697608,21529.2,1.6313341741659975890039116697608
233,21716.8322003111450623125220135436790,21715.2,1.6322003111450623125220135436790
234,21903.6330627382090466968905015238892,21902.0,1.6330627382090466968905015238892
235,22091.2339214870186100828643288365539,22089.6,1.6339214870186100828643288365539
236,22279.6347765888308850878178463045934,22278.0,1.6347765888308850878178463045934
237,22468.8356280745063078877216963766595,22467.2,1.6356280745063078877216963766595
238,22658.8364759745153035597471632883351,22657.2,1.6364759745153035597471632883351
