Eigenstate,Energy,Kinetic Energy,Potential Energy
1,0.500000000032516812587130527712516892,0.0,0.500000000032516812587130527712516892
2,1.84623093786336736193119649841226261,1.2,0.64623093786336736193119649841226261
3,3.93633761032845048537974682406650442,3.2,0.73633761032845048537974682406650442
4,6.79966527911286458106225831304104002,6.0,0.79966527911286458106225831304104002
5,10.4480465775351689699017730714998832,9.6,0.8480465775351689699017730714998832
6,14.8870660003511276641223812264823223,14.0,0.8870660003511276641223812264823223
7,20.1197208289994258207023466090698708,19.2,0.9197208289994258207023466090698708
8,26.1477838498572849554848576500331500,25.2,0.9477838498572849554848576500331500
9,32.9723835619311486988635444021267553,32.0,0.9723835619311486988635444021267553
10,40.5942802193696961005394717374334870,39.6,0.9942802193696961005394717374334870
11,49.0140093923140415783962953508903034,48.0,1.0140093923140415783962953508903034
12,58.2319621760688720707734440685546082,57.2,1.0319621760688720707734440685546082
13,68.2484327007000418401833958054982041,67.2,1.0484327007000418401833958054982041
14,79.0636476638907357309484923523541770,78.0,1.0636476638907357309484923523541770
15,90.6777854467556550970238141755055434,89.6,1.0777854467556550970238141755055434
16,103.090988918711463589089372649614892,102.0,1.090988918711463589089372649614892
17,116.303374270938292058824288519444041,115.2,1.103374270938292058824288519444041
18,130.315037267385938490695076433838647,129.2,1.115037267385938490695076433838647
19,145.126057767877846009864150282645654,144.0,1.126057767877846009864150282645654
20,160.736503065745039645509623381550355,159.6,1.136503065745039645509623381550355
21,177.146430393907823769566893386883563,176.0,1.146430393907823769566893386883563
22,194.355888836034522440110624227807223,193.2,1.155888836034522440110624227807223
23,212.364920804478004226114542642431930,211.2,1.164920804478004226114542642431930
24,231.173563197676104503946432723094596,230.0,1.173563197676104503946432723094596
25,250.781848316947551961017392818917981,249.6,1.181848316947551961017392818917981
26,271.189804600299556438600733356275774,270.0,1.189804600299556438600733356275774
27,292.397457215390384843922440444461987,291.2,1.197457215390384843922440444461987
28,314.404828542888401051986432044431991,313.2,1.204828542888401051986432044431991
29,337.211938573674017895723858967759549,336.0,1.211938573674017895723858967759549
30,360.818805237681521773490927518997211,359.6,1.218805237681521773490927518997211
31,385.225444678031791902667654101448654,384.0,1.225444678031791902667654101448654
32,410.431871481029036663247163116199287,409.2,1.231871481029036663247163116199287
33,436.438098870285021671080724670654903,435.2,1.238098870285021671080724670654903
34,463.244138871483717954227788827759393,462.0,1.244138871483717954227788827759393
35,490.850002452960103540128033539636664,489.6,1.250002452960103540128033539636664
36,519.255699646233372882749757419466673,518.0,1.255699646233372882749757419466673
37,548.461239649830724010351267384098318,547.2,1.261239649830724010351267384098318
38,578.466630919107474531356120710035246,577.2,1.266630919107474531356120710035246
39,609.271881244271408986333336646308850,608.0,1.271881244271408986333336646308850
40,640.876997818423439250537693095039033,639.6,1.276997818423439250537693095039033
41,673.281987297109909417753435253255663,672.0,1.281987297109909417753435253255663
42,706.486855850626883994688207734023390,705.2,1.286855850626883994688207734023390
43,740.491609210110271890256015035928845,739.2,1.291609210110271890256015035928845
44,775.296252708277544668591616901731687,774.0,1.296252708277544668591616901731687
45,810.900791315549237965648930978290915,809.6,1.300791315549237965648930978290915
46,847.305229672165288686649143191872133,846.0,1.305229672165288686649143191872133
47,884.509572116817783989318695075927193,883.2,1.309572116817783989318695075927193
48,922.513822712244111693614588794200256,921.2,1.313822712244111693614588794200256
49,961.317985268159839214742590338857095,960.0,1.317985268159839214742590338857095
50,1000.92206336185652540262477892760405,999.6,1.32206336185652540262477892760405
51,1041.32606035674420270850392200958879,1040.0,1.32606035674420270850392200958879
52,1082.52997941907992188507577725073854,1081.2,1.32997941907992188507577725073854
53,1124.53382353309130130799699400383275,1123.2,1.33382353309130130799699400383275
54,1167.33759551467646187516240435027877,1166.0,1.33759551467646187516240435027877
55,1210.94129802383825294763552283879218,1209.6,1.34129802383825294763552283879218
56,1255.34493357599060022599258368626450,1254.0,1.34493357599060022599258368626450
57,1300.54850455225760749072280793596263,1299.2,1.34850455225760749072280793596263
58,1346.55201320887124694903795953970144,1345.2,1.35201320887124694903795953970144
59,1393.35546168576071898317004558036837,1392.0,1.35546168576071898317004558036837
60,1440.95885201441553758753476911681817,1439.6,1.35885201441553758753476911681817
61,1489.36218612509483355463451457738256,1488.0,1.36218612509483355463451457738256
62,1538.56546585344706646446189974697096,1537.2,1.36546585344706646446189974697096
63,1588.56869294659709464314491905962927,1587.2,1.36869294659709464314491905962927
64,1639.37186906875123977665317721375937,1638.0,1.37186906875123977665317721375937
65,1690.97499580636544802541230817445350,1689.6,1.37499580636544802541230817445350
66,1743.37807467291680214662000305410094,1742.0,1.37807467291680214662000305410094
67,1796.58110711331437683973155297991694,1795.2,1.38110711331437683973155297991694
68,1850.58409450798167336977457423423433,1849.2,1.38409450798167336977457423423433
69,1905.38703817663955685242604415364877,1904.0,1.38703817663955685242604415364877
70,1960.98993938181569131652087397535350,1959.6,1.38993938181569131652087397535350
71,2017.39279933210386895593044830838459,2016.0,1.39279933210386895593044830838459
72,2074.59561918519433174036967092694365,2073.2,1.39561918519433174036967092694365
73,2132.59840005069413054828787847553421,2131.2,1.39840005069413054828787847553421
74,2191.40114299275474813644617021184080,2190.0,1.40114299275474813644617021184080
75,2251.00384903252258115968084960485531,2249.6,1.40384903252258115968084960485531
76,2311.40651915042642689759743142288618,2310.0,1.40651915042642689759743142288618
77,2372.60915428831481794652166517937143,2371.2,1.40915428831481794652166517937143
78,2434.61175535145488233685380517840233,2433.2,1.41175535145488233685380517840233
79,2497.41432321040335971598019617440862,2496.0,1.41432321040335971598019617440862
80,2561.01685870275946611125173304861025,2559.6,1.41685870275946611125173304861025
81,2625.41936263480845044606225466046026,2624.0,1.41936263480845044606225466046026
82,2690.62183578306392453150633221670211,2689.2,1.42183578306392453150633221670211
83,2756.62427889571635952230629085948130,2755.2,1.42427889571635952230629085948130
84,2823.42669269399451753398215397919163,2822.0,1.42669269399451753398215397919163
85,2891.02907787344602784206453492266136,2889.6,1.42907787344602784206453492266136
86,2959.43143510514280121876109313882700,2958.0,1.43143510514280121876109313882700
87,3028.63376503681651849168742597096136,3027.2,1.43376503681651849168742597096136
88,3098.63606829392900603153741633319406,3097.2,1.43606829392900603153741633319406
89,3169.43834548068192737340663057360451,3168.0,1.43834548068192737340663057360451
90,3241.04059718096987695975303565058613,3239.6,1.44059718096987695975303565058613
91,3313.44282395928064054092865287036590,3312.0,1.44282395928064054092865287036590
92,3386.64502636154609847167654160447112,3385.2,1.44502636154609847167654160447112
93,3460.64720491594698588693193732771601,3459.2,1.44720491594698588693193732771601
94,3535.44936013367448081152823178944704,3534.0,1.44936013367448081152823178944704
95,3611.05149250965137010437946221789031,3609.6,1.45149250965137010437946221789031
96,3687.45360252321534131559451216322866,3686.0,1.45360252321534131559451216322866
97,3764.65569063876676419286870901235272,3763.2,1.45569063876676419286870901235272
98,3842.65775730638315269920363962529519,3841.2,1.45775730638315269920363962529519
99,3921.45980296240234493181704472006473,3920.0,1.45980296240234493181704472006473
100,4001.06182802997629199168842365646105,3999.6,1.46182802997629199168842365646105
101,4081.46383291959721754903160456688774,4080.0,1.46383291959721754903160456688774
102,4162.66581802959778427526441291201995,4161.2,1.46581802959778427526441291201995
103,4244.66778374662679539843263185840534,4243.2,1.46778374662679539843263185840534
104,4327.46973044610185237433522117827543,4326.0,1.46973044610185237433522117827543
105,4411.07165849264029659184058550739536,4409.6,1.47165849264029659184058550739536
106,4495.47356824046967226664020665196690,4494.0,1.47356824046967226664020665196690
107,4580.67546003381886959573042839688091,4579.2,1.47546003381886959573042839688091
108,4666.67733420729102800535878753282290,4665.2,1.47733420729102800535878753282290
109,4753.47919108621921073163721664390880,4752.0,1.47919108621921073163721664390880
110,4841.08103098700579955289925588657566,4839.6,1.48103098700579955289925588657566
111,4929.48285421744649263167999556850505,4928.0,1.48285421744649263167999556850505
112,5018.68466107703973899056397447673785,5017.2,1.48466107703973899056397447673785
113,5108.68645185728238761035211802758903,5107.2,1.48645185728238761035211802758903
114,5199.48822684195228038124257363997040,5198.0,1.48822684195228038124257363997040
115,5291.08998630737847768921764942734311,5289.6,1.48998630737847768921764942734311
116,5383.49173052269975708818088742663695,5382.0,1.49173052269975708818088742663695
117,5476.69345975011199379538149420392062,5475.2,1.49345975011199379538149420392062
118,5570.69517424510499071655787008495712,5569.2,1.49517424510499071655787008495712
119,5665.49687425668929199351558602943781,5664.0,1.49687425668929199351558602943781
120,5761.09856002761348822462025311333959,5759.6,1.49856002761348822462025311333959
121,5857.50023179457248324144148084326007,5856.0,1.50023179457248324144148084326007
122,5954.70188978840717341165133264620879,5953.2,1.50188978840717341165133264620879
123,6052.70353423429595824534871613508604,6051.2,1.50353423429595824534871613508604
124,6151.50516535193848340217245130319506,6150.0,1.50516535193848340217245130319506
125,6251.10678335573198763030271668138264,6249.6,1.50678335573198763030271668138264
126,6351.50838845494060997115295292014296,6350.0,1.50838845494060997115295292014296
127,6452.70998085385799298566798797331610,6451.2,1.50998085385799298566798797331610
128,6554.71156075196349517095421089805164,6553.2,1.51156075196349517095421089805164
129,6657.51312834407231366272951803576958,6656.0,1.51312834407231366272951803576958
130,6761.11468382047979993721352594106754,6759.6,1.51468382047979993721352594106754
131,6865.51622736710023582196044195931649,6864.0,1.51622736710023582196044195931649
132,6970.71775916560032214793634174817870,6969.2,1.51775916560032214793634174817870
133,7076.71927939352762059355828317090439,7075.2,1.51927939352762059355828317090439
134,7183.52078822443417799545433423176666,7182.0,1.52078822443417799545433423176666
135,7291.12228582799554429236075068708609,7289.6,1.52228582799554429236075068708609
136,7399.52377237012539158104220040598224,7398.0,1.52377237012539158104220040598224
137,7508.72524801308592845517765596503452,7507.2,1.52524801308592845517765596503452
138,7618.72671291559429018616360189109829,7617.2,1.52671291559429018616360189109829
139,7729.52816723292508319888085083169353,7728.0,1.52816723292508319888085083169353
140,7841.12961111700924684950291417902690,7839.6,1.52961111700924684950291417902690
141,7953.53104471652939095493387018817763,7952.0,1.53104471652939095493387018817763
142,8066.73246817701175945019678566179738,8065.2,1.53246817701175945019678566179738
143,8180.73388164091496189992419880634571,8179.2,1.53388164091496189992419880634571
144,8295.53528524771560741046548759201429,8294.0,1.53528524771560741046548759201429
145,8411.13667913399097130136658483602310,8409.6,1.53667913399097130136658483602310
146,8527.53806343349881702622680194341657,8526.0,1.53806343349881702622680194341657
147,8644.73943827725448762997140656788054,8643.2,1.53943827725448762997140656788054
148,8762.74080379360538207154530585562187,8761.2,1.54080379360538207154530585562187
149,8881.54216010830291821295890407316286,8880.0,1.54216010830291821295890407316286
150,9001.14350734457208611554006392679649,8999.6,1.54350734457208611554006392679649
151,9121.54484562317868755762232111945813,9120.0,1.54484562317868755762232111945813
152,9242.74617506249435207281473653370085,9241.2,1.54617506249435207281473653370085
153,9364.74749577855941845852239494116880,9363.2,1.54749577855941845852239494116880
154,9487.54880788514376565393418062382781,9486.0,1.54880788514376565393418062382781
155,9611.15011149380567122344509051662748,9609.6,1.55011149380567122344509051662748
156,9735.55140671394877531185011640551320,9734.0,1.55140671394877531185011640551320
157,9860.75269365287722111788650626874150,9859.2,1.55269365287722111788650626874150
158,9986.75397241584904370419917298464143,9985.2,1.55397241584904370419917298464143
159,10113.5552431061278708165356235361227,10112.0,1.5552431061278708165356235361227
160,10241.1565058250330020496813436142211,10239.6,1.5565058250330020496813436142211
161,10369.5577606719879248562277201766931,10368.0,1.5577606719879248562277201766931
162,10498.7590077445673268592450182523288,10497.2,1.5590077445673268592450182523288
163,10628.7602471385426593221308196054551,10627.2,1.5602471385426593221308196054551
164,10759.5614789479263064122001790447312,10758.0,1.5614789479263064122001790447312
165,10891.1627032650144088582062435818140,10889.6,1.5627032650144088582062435818140
166,11023.5639201804283925173511644851468,11022.0,1.5639201804283925173511644851468
167,11156.7651297831552490840780105979891,11155.2,1.5651297831552490840780105979891
168,11290.7663321605866116295283770511646,11289.2,1.5663321605866116295283770511646
169,11425.5675273985566700337273293210542,11424.0,1.5675273985566700337273293210542
170,11561.1687155813789660535827954095455,11559.6,1.5687155813789660535827954095455
171,11697.5698967918821082211310859155486,11696.0,1.5698967918821082211310859155486
172,11834.7710711114444444386578911061155,11833.2,1.5710711114444444386578911061155
173,11972.7722386200277276729965248638954,11971.2,1.5722386200277276729965248638954
174,12111.5733993962098105924886345021639,12110.0,1.5733993962098105924886345021639
175,12251.1745535172164031315115867071254,12249.6,1.5745535172164031315115867071254
176,12391.5757010589519226888964370416052,12390.0,1.5757010589519226888964370416052
177,12532.7768420960294702207451532513227,12531.2,1.5768420960294702207451532513227
178,12674.7779767017999613820144046458431,12673.2,1.5779767017999613820144046458431
179,12817.5791049483804391617828863985310,12816.0,1.5791049483804391617828863985310
180,12961.1802269066815989585721534006225,12959.6,1.5802269066815989585721534006225
181,13105.5813426464345487442782940473047,13104.0,1.5813426464345487442782940473047
182,13250.7824522362168320120708312661288,13249.2,1.5824522362168320120708312661288
183,13396.7835557434777365575038362076939,13395.2,1.5835557434777365575038362076939
184,13543.5846532345629133343463179818795,13542.0,1.5846532345629133343463179818795
185,13691.1857447747383271932262373418761,13689.6,1.5857447747383271932262373418761
186,13839.5868304282135604716780544502135,13838.0,1.5868304282135604716780544502135
187,13988.7879102581644932360624020616817,13987.2,1.5879102581644932360624020616817
188,14138.7889843267553756116426266403124,14137.2,1.5889843267553756116426266403124
189,14289.5900526951603159318766585912839,14288.0,1.5900526951603159318766585912839
190,14441.1911154235842003579692081198902,14439.6,1.5911154235842003579692081198902
191,14593.5921725712830631912032841029906,14592.0,1.5921725712830631912032841029906
192,14746.7932241965839242602203729471839,14745.2,1.5932241965839242602203729471839
193,14900.7942703569041116870631091695323,14899.2,1.5942703569041116870631091695323
194,15055.5953111087700833727282555092153,15054.0,1.5953111087700833727282555092153
195,15211.1963465078357651345533572771833,15209.6,1.5963465078357651345533572771833
196,15367.5973766089004191873011796202375,15366.0,1.5973766089004191873011796202375
197,15524.7984014659260573432265048591066,15523.2,1.5984014659260573432265048591066
198,15682.7994211320544130930677671949762,15681.2,1.5994211320544130930677671949762
199,15841.6004356596234854017805749661747,15840.0,1.6004356596234854017805749661747
200,16001.2014451001836681591752946316738,15999.6,1.6014451001836681591752946316738
201,16161.6024495045134762618390189183358,16160.0,1.6024495045134762618390189183358
202,16322.8034489226348817024548030608405,16321.2,1.6034489226348817024548030608405
203,16484.8044434038282703212013607425998,16483.2,1.6044434038282703212013607425998
204,16647.6054329966470308340964562371230,16646.0,1.6054329966470308340964562371230
205,16811.2064177489317861035973188074529,16809.6,1.6064177489317861035973188074529
206,16975.6073977078242796701566299549334,16974.0,1.6073977078242796701566299549334
207,17140.8083729197809234153609394894863,17139.2,1.6083729197809234153609394894863
208,17306.8093434305860205780578150689899,17305.2,1.6093434305860205780578150689899
209,17473.6103092853646698663007137518209,17472.0,1.6103092853646698663007137518209
210,17641.2112705285953621607122860367043,17639.6,1.6112705285953621607122860367043
211,17809.6122272041222771682240051584327,17808.0,1.6122272041222771682240051584327
212,17978.8131793551672902533158214955725,17977.2,1.6131793551672902533158214955725
213,18148.8141270243416938246454523997023,18147.2,1.6141270243416938246454523997023
214,18319.6150702536576482527523790982708,18318.0,1.6150702536576482527523790982708
215,18491.2160090845393615250628886637749,18489.6,1.6160090845393615250628886637749
216,18663.6169435578340115926484184425981,18662.0,1.6169435578340115926484184425981
217,18836.8178737138224153677741157958505,18835.2,1.6178737138224153677741157958505
218,19010.8187995922294533446822954744350,19009.2,1.6187995922294533446822954744350
219,19185.6197212322342531165414277521133,19184.0,1.6197212322342531165414277521133
220,19361.2206386724801442966828393292345,19359.6,1.6206386724801442966828393292345
221,19537.6215519510843827464094464114330,19536.0,1.6215519510843827464094464114330
222,19714.8224611056476613067365047084018,19713.2,1.6224611056476613067365047084018
223,19892.8233661732634005948895669302876,19891.2,1.6233661732634005948895669302876
224,20071.6242671905268349248522175976482,20070.0,1.6242671905268349248522175976482
225,20251.2251641935438959085002611077780,20249.6,1.6251641935438959085002611077780
226,20431.6260572179398972752570289827047,20430.0,1.6260572179398972752570289827047
227,20612.8269462988680295531104663929838,20611.2,1.6269462988680295531104663929838
228,20794.8278314710176664211851280164593,20793.2,1.6278314710176664211851280164593
229,20977.6287127686224898860063750765902,20976.0,1.6287127686224898860063750765902
230,21161.2295902254684389676870710170693,21159.6,1.6295902254684389676870710170693
231,21345.6304638749014836852931212988760,21344.0,1.6304638749014836852931212988760
232,21530.8313337498352347502944058305321,21529.2,1.6313337498352347502944058305321
233,21716.8321998827583839535912910549675,21715.2,1.6321998827583839535912910549675
234,21903.6330623057419913921681994292193,21902.0,1.6330623057419913921681994292193
235,22091.2339210504466127064595313003441,22089.6,1.6339210504466127064595313003441
236,22279.6347761481292760271816937809335,22278.0,1.6347761481292760271816937809335
237,22468.8356276296503122517431591009334,22467.2,1.6356276296503122517431591009334
238,22658.8364755254800403812283345213736,22657.2,1.6364755254800403812283345213736
