Eigenstate,Energy,Kinetic Energy,Potential Energy
1,0.500000000014007727128623295801597079,0.0,0.500000000014007727128623295801597079
2,1.84623093774254974748729292639923766,1.2,0.64623093774254974748729292639923766
3,3.93633760997355871816430434897499263,3.2,0.73633760997355871816430434897499263
4,6.79966527837366619896050978639022075,6.0,0.79966527837366619896050978639022075
5,10.4480465762547275306981053068820031,9.6,0.8480465762547275306981053068820031
6,14.8870659983697610572403799620805744,14.0,0.8870659983697610572403799620805744
7,20.1197208261561651354494582339965063,19.2,0.9197208261561651354494582339965063
8,26.1477838459904832731572902216081974,25.2,0.9477838459904832731572902216081974
9,32.9723835568787645341708748079448359,32.0,0.9723835568787645341708748079448359
10,40.5942802129694375854307227768245387,39.6,0.9942802129694375854307227768245387
11,49.0140093844034450899550221052376016,48.0,1.0140093844034450899550221052376016
12,58.2319621664853474529830261904188247,57.2,1.0319621664853474529830261904188247
13,68.2484326892808994394430744490829605,67.2,1.0484326892808994394430744490829605
14,79.0636476504732029655437504520930595,78.0,1.0636476504732029655437504520930595
15,90.6777854311768867127943215111172770,89.6,1.0777854311768867127943215111172770
16,103.090988900808547949235539623587115,102.0,1.090988900808547949235539623587115
17,116.303374250548254854122406212675739,115.2,1.103374250548254854122406212675739
18,130.315037244345744719917834763099754,129.2,1.115037244345744719917834763099754
19,145.126057742024400768759380700661524,144.0,1.126057742024400768759380700661524
20,160.736503036915188075427703256207919,159.6,1.136503036915188075427703256207919
21,177.146430361938350400675622602421053,176.0,1.146430361938350400675622602421053
22,194.355888800762150090066892928599608,193.2,1.155888800762150090066892928599608
23,212.364920765739392566639617316775911,211.2,1.164920765739392566639617316775911
24,231.173563155307848375378916800473246,230.0,1.173563155307848375378916800473246
25,250.781848270786179492831878162276172,249.6,1.181848270786179492831878162276172
26,271.189804550181527018531917332726112,270.0,1.189804550181527018531917332726112
27,292.397457161152086967487571585669007,291.2,1.197457161152086967487571585669007
28,314.404828484366150076414194992782137,313.2,1.204828484366150076414194992782137
29,337.211938510704053716631056515772239,336.0,1.211938510704053716631056515772239
30,360.818805170100006438469116534584233,359.6,1.218805170100006438469116534584233
31,385.225444605674807172822294060681614,384.0,1.225444605674807172822294060681614
32,410.431871403732581531377000750177698,409.2,1.231871403732581531377000750177698
33,436.438098787885009843388976342505749,435.2,1.238098787885009843388976342505749
34,463.244138783815975301073308344312306,462.0,1.244138783815975301073308344312306
35,490.850002359860365520249511648320152,489.6,1.250002359860365520249511648320152
36,519.255699547537281944553318591050854,518.0,1.255699547537281944553318591050854
37,548.461239545373826973186038314751919,547.2,1.261239545373826973186038314751919
38,578.466630808725219949172410565513867,577.2,1.266630808725219949172410565513867
39,609.271881127799144495693292680571757,608.0,1.271881127799144495693292680571757
40,640.876997695696408904605488752491953,639.6,1.276997695696408904605488752491953
41,673.281987167963251007613751802081677,672.0,1.281987167963251007613751802081677
42,706.486855714895626359114412363880749,705.2,1.286855714895626359114412363880749
43,740.491609067629332214862680327387721,739.2,1.291609067629332214862680327387721
44,775.296252558881725775151833808687260,774.0,1.296252558881725775151833808687260
45,810.900791159073225592228859614477624,809.6,1.300791159073225592228859614477624
46,847.305229508443648759105468229301840,846.0,1.305229508443648759105468229301840
47,884.509571945684959884615234813592035,883.2,1.309571945684959884615234813592035
48,922.513822533534421495338982913616572,921.2,1.313822533534421495338982913616572
49,961.317985081707472961140398010814951,960.0,1.317985081707472961140398010814951
50,1000.92206316749554232741431856827033,999.6,1.32206316749554232741431856827033
51,1041.32606015430852847468917197528665,1040.0,1.32606015430852847468917197528665
52,1082.52997920840334581193533434877979,1081.2,1.32997920840334581193533434877979
53,1124.53382331400747359139334138194273,1123.2,1.33382331400747359139334138194273
54,1167.33759528701889080128664718519466,1166.0,1.33759528701889080128664718519466
55,1210.94129778744030210027764499310055,1209.6,1.34129778744030210027764499310055
56,1255.34493333068548568740548506168922,1254.0,1.34493333068548568740548506168922
57,1300.54850429787839503612946983460276,1299.2,1.34850429787839503612946983460276
58,1346.55201294525084923481448434437876,1345.2,1.35201294525084923481448434437876
59,1393.35546141273189272872293113289845,1392.0,1.35546141273189272872293113289845
60,1440.95885173181088075087803109329328,1439.6,1.35885173181088075087803109329328
61,1489.36218583274678250166110801915646,1488.0,1.36218583274678250166110801915646
62,1538.56546555118789313189398415633286,1537.2,1.36546555118789313189398415633286
63,1588.56869263425890369513880692681813,1587.2,1.36869263425890369513880692681813
64,1639.37186874616596575502702767929694,1638.0,1.37186874616596575502702767929694
65,1690.97499547336485249345769090973324,1689.6,1.37499547336485249345769090973324
66,1743.37807432933247082645229269102247,1742.0,1.37807432933247082645229269102247
67,1796.58110675897771674312858305675472,1795.2,1.38110675897771674312858305675472
68,1850.58409414272390992244800479969376,1849.2,1.38409414272390992244800479969376
69,1905.38703780029173101166536429290170,1904.0,1.38703780029173101166536429290170
70,1960.98993899420865668214604280960347,1959.6,1.38993899420865668214604280960347
71,2017.39279893306828887448532118676093,2016.0,1.39279893306828887448532118676093
72,2074.59561877456067640248521023541941,2073.2,1.39561877456067640248521023541941
73,2132.59839962829267407914095661890599,2131.2,1.39839962829267407914095661890599
74,2191.40114255841556567923708221148187,2190.0,1.40114255841556567923708221148187
75,2251.00384858607554595205004628469450,2249.6,1.40384858607554595205004628469450
76,2311.40651869170120734089968314186884,2310.0,1.40651869170120734089968314186884
77,2372.60915381714087466787365622125547,2371.2,1.40915381714087466787365622125547
78,2434.61175486766146524386918214261966,2433.2,1.41175486766146524386918214261966
79,2497.41432271381950504410418232015028,2496.0,1.41432271381950504410418232015028
80,2561.01685819321399346360575917217536,2559.6,1.41685819321399346360575917217536
81,2625.41936211212995982570735133578097,2624.0,1.41936211212995982570735133578097
82,2690.62183524708079336603254007848875,2689.2,1.42183524708079336603254007848875
83,2756.62427834625673968065391113042496,2755.2,1.42427834625673968065391113042496
84,2823.42669213088633233539930868222358,2822.0,1.42669213088633233539930868222358
85,2891.02907729651696905710418068380391,2889.6,1.42907729651696905710418068380391
86,2959.43143451422032606221949398835088,2958.0,1.43143451422032606221949398835088
87,3028.63376443172784660738481953319484,3027.2,1.43376443172784660738481953319484
88,3098.63606767450111646884056843189166,3097.2,1.43606767450111646884056843189166
89,3169.43834484674155555539189054198066,3168.0,1.43834484674155555539189054198066
90,3241.04059653234351164290747480962698,3239.6,1.44059653234351164290747480962698
91,3313.44282329579452076628584631501592,3312.0,1.44282329579452076628584631501592
92,3386.64502568302621050728263811076531,3385.2,1.44502568302621050728263811076531
93,3460.64720422221906016153670509383771,3459.2,1.44720422221906016153670509383771
94,3535.44935942456398883939485755898540,3534.0,1.44935942456398883939485755898540
95,3611.05149178498352140110599678079240,3609.6,1.45149178498352140110599678079240
96,3687.45360178281508030483903137024325,3686.0,1.45360178281508030483903137024325
97,3764.65568988245876710386932100451971,3763.2,1.45568988245876710386932100451971
98,3842.65775653399182445498375519624111,3841.2,1.45775653399182445498375519624111
99,3921.45980217375181602796538174656596,3920.0,1.45980217375181602796538174656596
100,4001.06182722489041536560251887607971,3999.6,1.46182722489041536560251887607971
101,4081.46383209789956543951273354804527,4080.0,1.46383209789956543951273354804527
102,4162.66581719111164507235105195572827,4161.2,1.46581719111164507235105195572827
103,4244.66778289117517048335887336706200,4243.2,1.46778289117517048335887336706200
104,4327.46972957350745294949961974961237,4326.0,1.46972957350745294949961974961237
105,4411.07165760272554050067031829657513,4409.6,1.47165760272554050067031829657513
106,4495.47356733305668080323455224389825,4494.0,1.47356733305668080323455224389825
107,4580.67545910872946430416682765624044,4579.2,1.47545910872946430416682765624044
108,4666.67733326434672746854402311042975,4665.2,1.47733326434672746854402311042975
109,4753.47919012524122734958540012866989,4752.0,1.47919012524122734958540012866989
110,4841.08103000781503631031764134198381,4839.6,1.48103000781503631031764134198381
111,4929.48285321986353985474281941383460,4928.0,1.48285321986353985474281941383460
112,5018.68466006088487109275374725752124,5017.2,1.48466006088487109275374725752124
113,5108.68645082237555982724708742288830,5107.2,1.48645082237555982724708742288830
114,5199.48822578811312549412824841534352,5198.0,1.48822578811312549412824841534352
115,5291.08998523442630273739952479442805,5289.6,1.48998523442630273739952479442805
116,5383.49172943045354006987473483137073,5382.0,1.49172943045354006987473483137073
117,5476.69345863839038035705682619959126,5475.2,1.49345863839038035705682619959126
118,5570.69517311372629083060934933495411,5569.2,1.49517311372629083060934933495411
119,5665.49687310547147662413642520849123,5664.0,1.49687310547147662413642520849123
120,5761.09855885637418598175081858134502,5759.6,1.49855885637418598175081858134502
121,5857.50023060312897702266553475937608,5856.0,1.50023060312897702266553475937608
122,5954.70188857657639703191153468706311,5953.2,1.50188857657639703191153468706311
123,6052.70353300189449305435220315783446,6051.2,1.50353300189449305435220315783446
124,6151.50516409878255488935651132790563,6150.0,1.50516409878255488935651132790563
125,6251.10678208163746201722972880307820,6249.6,1.50678208163746201722972880307820
126,6351.50838715972299079120297054922218,6350.0,1.50838715972299079120297054922218
127,6452.70997953733241765089647068493218,6451.2,1.50997953733241765089647068493218
128,6554.71155941394473152598157545890452,6553.2,1.51155941394473152598157545890452
129,6657.51312698437475652552836604738479,6656.0,1.51312698437475652552836604738479
130,6761.11468243891746762665852455664139,6759.6,1.51468243891746762665852455664139
131,6865.51622596348676667200500385814857,6864.0,1.51622596348676667200500385814857
132,6970.71775773974897100827922293915794,6969.2,1.51775773974897100827922293915794
133,7076.71927794525125531666265131420161,7075.2,1.51927794525125531666265131420161
134,7183.52078675354527590978064268007425,7182.0,1.52078675354527590978064268007425
135,7291.12228433430618866167399947192389,7289.6,1.52228433430618866167399947192389
136,7399.52377085344726804965339303465749,7398.0,1.52377085344726804965339303465749
137,7508.72524647323032147897806485067436,7507.2,1.52524647323032147897806485067436
138,7618.72671135237207944930975947980168,7617.2,1.52671135237207944930975947980168
139,7729.52816564614674001598715195662823,7728.0,1.52816564614674001598715195662823
140,7841.12960950648483055319777471774632,7839.6,1.52960950648483055319777471774632
141,7953.53104308206854526863453356966025,7952.0,1.53104308206854526863453356966025
142,8066.73246651842370884595673177316308,8065.2,1.53246651842370884595673177316308
143,8180.73387995800850794120634298858747,8179.2,1.53387995800850794120634298858747
144,8295.53528354029912507969316591832478,8294.0,1.53528354029912507969316591832478
145,8411.13667740187240531210353522214000,8409.6,1.53667740187240531210353522214000
146,8527.53806167648567811983620301323137,8526.0,1.53806167648567811983620301323137
147,8644.73943649515384885660308000095770,8643.2,1.53943649515384885660308000095770
148,8762.74080198622387505529919465804845,8761.2,1.54080198622387505529919465804845
149,8881.54215827544672940107186279167680,8880.0,1.54215827544672940107186279167680
150,9001.14350548604695301144199382862508,8999.6,1.54350548604695301144199382862508
151,9121.54484373878989493770653639062556,9120.0,1.54484373878989493770653639062556
152,9242.74617315204672818676654763372599,9241.2,1.54617315204672818676654763372599
153,9364.74749384185733121304859977487800,9363.2,1.54749384185733121304859977487800
154,9487.54880592199111877973535764671340,9486.0,1.54880592199111877973535764671340
155,9611.15010950400590042527122435890739,9609.6,1.55010950400590042527122435890739
156,9735.55140469730484440147901966173608,9734.0,1.55140469730484440147901966173608
157,9860.75269160919161812986357496251522,9859.2,1.55269160919161812986357496251522
158,9986.75397034492377699417562178336020,9985.2,1.55397034492377699417562178336020
159,10113.5552410077644651420413884399090,10112.0,1.5552410077644651420413884399090
160,10241.1565036990324946331676038199862,10239.6,1.5565036990324946331676038199862
161,10369.5577585181508614302128130574476,10368.0,1.5577585181508614302128130574476
162,10498.7590055626937576933963228207637,10497.2,1.5590055626937576933963228207637
163,10628.7602449284321352321141348763378,10627.2,1.5602449284321352321141348763378
164,10759.5614767093778747501266950818274,10758.0,1.5614767093778747501266950818274
165,10891.1627009978266094845060928783483,10889.6,1.5627009978266094845060928783483
166,11023.5639178843992537539013732313542,11022.0,1.5639178843992537539013732313542
167,11156.7651274580822836484113370234813,11155.2,1.5651274580822836484113370234813
168,11290.7663298062668125499482153025590,11289.2,1.5663298062668125499482153025590
169,11425.5675250147865065451527765880375,11424.0,1.5675250147865065451527765880375
170,11561.1687131679543794739463885944127,11559.6,1.5687131679543794739463885944127
171,11697.5698943485985078081507739472307,11696.0,1.5698943485985078081507739472307
172,11834.7710686380967032268031727595983,11833.2,1.5710686380967032268031727595983
173,11972.7722361164101782904675781593014,11971.2,1.5722361164101782904675781593014
174,12111.5733968621162410580258104067410,12110.0,1.5733968621162410580258104067410
175,12251.1745509524400526308512867984584,12249.6,1.5745509524400526308512867984584
176,12391.5756984632854773306880674871925,12390.0,1.5756984632854773306880674871925
177,12532.7768394692650587717424227068759,12531.2,1.5768394692650587717424227068759
178,12674.7779740437291509813528574212624,12673.2,1.5779740437291509813528574212624
179,12817.5791022587942310141541234866851,12816.0,1.5791022587942310141541234866851
180,12961.1802241853704240061038068501882,12959.6,1.5802241853704240061038068501882
181,13105.5813398931882633169272893745468,13104.0,1.5813398931882633169272893745468
182,13250.7824494508247134563361094798570,13249.2,1.5824494508247134563361094798570
183,13396.7835529257284788432631761230151,13395.2,1.5835529257284788432631761230151
184,13543.5846503842446226396204274888457,13542.0,1.5846503842446226396204274888457
185,13691.1857418916385174666716281142738,13689.6,1.5857418916385174666716281142738
186,13839.5868275121191489726090861024917,13838.0,1.5868275121191489726090861024917
187,13988.7879073088617960518008087057384,13987.2,1.5879073088617960518008087057384
188,14138.7889813440301031519917238605315,14137.2,1.5889813440301031519917238605315
189,14289.5900496787975684005155750457168,14288.0,1.5900496787975684005155750457168
190,14441.1911123733684632005610612621635,14439.6,1.5911123733684632005610612621635
191,14593.5921694869982025200095150987344,14592.0,1.5921694869982025200095150987344
192,14746.7932210780131822550118764912050,14745.2,1.5932210780131822550118764912050
193,14900.7942672038301019721171335986394,14899.2,1.5942672038301019721171335986394
194,15055.5953079209747863696983718887546,15054.0,1.5953079209747863696983718887546
195,15211.1963432851005233909981852390655,15209.6,1.5963432851005233909981852390655
196,15367.5973733510059326806557683984757,15366.0,1.5973733510059326806557683984757
197,15524.7983981726523787599986135139017,15523.2,1.5983981726523787599986135139017
198,15682.7994178031809430830395969459598,15681.2,1.5994178031809430830395969459598
199,15841.6004322949289678069945865475099,15840.0,1.6004322949289678069945865475099
200,16001.2014416994461852174811880866288,15999.6,1.6014416994461852174811880866288
201,16161.6024460675104437847770776261231,16160.0,1.6024460675104437847770776261231
202,16322.8034454491430442272488368122150,16321.2,1.6034454491430442272488368122150
203,16484.8044398936236962366329814845290,16483.2,1.6044398936236962366329814845290
204,16647.6054294495051074800302703971535,16646.0,1.6054294495051074800302703971535
205,16811.2064141646272148439249687061934,16809.6,1.6064141646272148439249687061934
206,16975.6073940861310709389255563718305,16974.0,1.6073940861310709389255563718305
207,17140.8083692604723917358520041909948,17139.2,1.6083692604723917358520041909948
208,17306.8093397334347795545738137335835,17305.2,1.6093397334347795545738137335835
209,17473.6103055501426271484260153368900,17472.0,1.6103055501426271484260153368900
210,17641.2112667550737143798017681019567,17639.6,1.6112667550737143798017681019567
211,17809.6122233920715048458775278938539,17808.0,1.6122233920715048458775278938539
212,17978.8131755043571526815924728234603,17977.2,1.6131755043571526815924728234603
213,18148.8141231345412239177696700730558,18147.2,1.6141231345412239177696700730558
214,18319.6150663246351473700621251095680,18318.0,1.6150663246351473700621251095680
215,18491.2160051160623942649479285875677,18489.6,1.6160051160623942649479285875677
216,18663.6169395496694005572245627387449,18662.0,1.6169395496694005572245627387449
217,18836.8178696657362358980373462305065,18835.2,1.6178696657362358980373462305065
218,19010.8187955039870282258844577177926,19009.2,1.6187955039870282258844577177926
219,19185.6197171036001472535269242049152,19184.0,1.6197171036001472535269242049152
220,19361.2206345032181593589237081228923,19359.6,1.6206345032181593589237081228923
221,19537.6215477409575517824739680875974,19536.0,1.6215477409575517824739680875974
222,19714.8224568544182433279240812889124,19713.2,1.6224568544182433279240812889124
223,19892.8233618806928751277626370135291,19891.2,1.6233618806928751277626370135291
224,20071.6242628563758965323934959328278,20070.0,1.6242628563758965323934959328278
225,20251.2251598175724486796212168613313,20249.6,1.6251598175724486796212168613313
226,20431.6260527999070492823814228302185,20430.0,1.6260527999070492823814228302185
227,20612.8269418385320872775541868360080,20611.2,1.6269418385320872775541868360080
228,20794.8278269681361291460512852525737,20793.2,1.6278269681361291460512852525737
229,20977.6287082229520440563121847313193,20976.0,1.6287082229520440563121847313193
230,21161.2295856367649525174365942494585,21159.6,1.6295856367649525174365942494585
231,21345.6304592429200003312074836558397,21344.0,1.6304592429200003312074836558397
232,21530.8313290743299682519086644016513,21529.2,1.6313290743299682519086644016513
233,21716.8321951634827123394245165717474,21715.2,1.6321951634827123394245165717474
234,21903.6330575424484511516708175563068,21902.0,1.6330575424484511516708175563068
235,22091.2339162428868929474395265904432,22089.6,1.6339162428868929474395265904432
236,22279.6347712960542125984084841008680,22278.0,1.6347712960542125984084841008680
237,22468.8356227328098818304254126553307,22467.2,1.6356227328098818304254126553307
238,22658.8364705836233545250593794476795,22657.2,1.6364705836233545250593794476795
