Eigenstate,Energy,Kinetic Energy,Potential Energy
1,0.500000023562147673386691754601211704,0.0,0.500000023562147673386691754601211704
2,1.84623109149506384742903887432484618,1.2,0.64623109149506384742903887432484618
3,3.93633806180328379658451999510017099,3.2,0.73633806180328379658451999510017099
4,6.79966622003790712880901742799313641,6.0,0.79966622003790712880901742799313641
5,10.4480482086354233255633130972936466,9.6,0.8480482086354233255633130972936466
6,14.8870685266448769845573466102710862,14.0,0.8870685266448769845573466102710862
7,20.1197244581531381057431926512089210,19.2,0.9197244581531381057431926512089210
8,26.1477887916238161748985678902756792,25.2,0.9477887916238161748985678902756792
9,32.9723900280046889573678278156033107,32.0,0.9723900280046889573678278156033107
10,40.5942884234214025608840392229391079,39.6,0.9942884234214025608840392229391079
11,49.0140195501152006421783131143879588,48.0,1.0140195501152006421783131143879588
12,58.2319745056612797671973603321381992,57.2,1.0319745056612797671973603321381992
13,68.2484474225948386706680030875042798,67.2,1.0484474225948386706680030875042798
14,79.0636650012864931126069908168470033,78.0,1.0636650012864931126069908168470033
15,90.6778056257710755369929451672291313,89.6,1.0778056257710755369929451672291313
16,103.091012168630382410738513884852665,102.0,1.091012168630382410738513884852665
17,116.303400824465926157121046336236468,115.2,1.103400824465926157121046336236468
18,130.315067360916048261370777390081249,129.2,1.115067360916048261370777390081249
19,145.126091641770915114925240213986014,144.0,1.126091641770915114925240213986014
20,160.736540964617862234664448123793260,159.6,1.136540964617862234664448123793260
21,177.146472566935088049524087896978661,176.0,1.146472566935088049524087896978661
22,194.355935537263130418876778320858473,193.2,1.155935537263130418876778320858473
23,212.364972293154991438868417964621655,211.2,1.164972293154991438868417964621655
24,231.173619738591133291714209556147849,230.0,1.173619738591133291714209556147849
25,250.781910180791055350030821416928081,249.6,1.181910180791055350030821416928081
26,271.189872064037712038242139712477402,270.0,1.189872064037712038242139712477402
27,292.397530562658203036086247749973672,291.2,1.197530562658203036086247749973672
28,314.404908064402321751714542772809899,313.2,1.204908064402321751714542772809899
29,337.212024567665527461315947966082497,336.0,1.212024567665527461315947966082497
30,360.818898010353428089189373798898506,359.6,1.218898010353428089189373798898506
31,385.225544544038932976474005814405836,384.0,1.225544544038932976474005814405836
32,410.431978763985347983505357338301317,409.2,1.231978763985347983505357338301317
33,436.438213903299051810782569722236434,435.2,1.238213903299051810782569722236434
34,463.244261997724862379624468036037652,462.0,1.244261997724862379624468036037652
35,490.850134026258025314961858947127251,489.6,1.250134026258025314961858947127251
36,519.255840031713298219987878467748374,518.0,1.255840031713298219987878467748374
37,548.461389224587542929655102891908229,547.2,1.261389224587542929655102891908229
38,578.466790072921845063531296775344754,577.2,1.266790072921845063531296775344754
39,609.272050380371360621727436500206125,608.0,1.272050380371360621727436500206125
40,640.877177354295301279165136795641789,639.6,1.277177354295301279165136795641789
41,673.282177665362756572756722681628694,672.0,1.282177665362756572756722681628694
42,706.487057499915100081898433733769694,705.2,1.287057499915100081898433733769694
43,740.491822606119287228608742977130566,739.2,1.291822606119287228608742977130566
44,775.296478334778311321240510549047552,774.0,1.296478334778311321240510549047552
45,810.901029675527574959291138572121482,809.6,1.301029675527574959291138572121482
46,847.305481289032865804290814005626280,846.0,1.305481289032865804290814005626280
47,884.509837535712226624335107148788462,883.2,1.309837535712226624335107148788462
48,922.514102501426511464724541744238647,921.2,1.314102501426511464724541744238647
49,961.318280020518858058583314181310608,960.0,1.318280020518858058583314181310608
50,1000.92237369652929918206231073763140,999.6,1.32237369652929918206231073763140
51,1041.32638692086540086332646717099844,1040.0,1.32638692086540086332646717099844
52,1082.53032288967162196542465078339235,1081.2,1.33032288967162196542465078339235
53,1124.53418461910781434390380460905254,1123.2,1.33418461910781434390380460905254
54,1167.33797495921992336571880991773757,1166.0,1.33797495921992336571880991773757
55,1210.94169660656270642231612053954914,1209.6,1.34169660656270642231612053954914
56,1255.34535211571448308736289982075346,1254.0,1.34535211571448308736289982075346
57,1300.54894390980704619355531253604246,1299.2,1.34894390980704619355531253604246
58,1346.55247429017943263550547755576223,1345.2,1.35247429017943263550547755576223
59,1393.35594544525192742357813144060333,1392.0,1.35594544525192742357813144060333
60,1440.95935945870615251438561477452896,1439.6,1.35935945870615251438561477452896
61,1489.36271831704811853587651490852173,1488.0,1.36271831704811853587651490852173
62,1538.56602391662351331053027305770791,1537.2,1.36602391662351331053027305770791
63,1588.56927807014808359099339315104559,1587.2,1.36927807014808359099339315104559
64,1639.37248251281063256999123052035100,1638.0,1.37248251281063256999123052035100
65,1690.97563890800178662018772190430428,1689.6,1.37563890800178662018772190430428
66,1743.37874885271823100798040312125804,1742.0,1.37874885271823100798040312125804
67,1796.58181388268952438044056832026409,1795.2,1.38181388268952438044056832026409
68,1850.58483547727286035715498520349877,1849.2,1.38483547727286035715498520349877
69,1905.38781506416026897441681154743386,1904.0,1.38781506416026897441681154743386
70,1960.99075402394278315143329711463489,1959.6,1.39075402394278315143329711463489
71,2017.39365369457710960095388265119595,2016.0,1.39365369457710960095388265119595
72,2074.59651537580247504434917972279592,2073.2,1.39651537580247504434917972279592
73,2132.59934033355872345145430917655756,2131.2,1.39934033355872345145430917655756
74,2191.40212980446168078061807868798941,2190.0,1.40212980446168078061807868798941
75,2251.00488500039859011106991414562912,2249.6,1.40488500039859011106991414562912
76,2311.40760711331551282170192205219149,2310.0,1.40760711331551282170192205219149
77,2372.61029732028057260418001479661371,2371.2,1.41029732028057260418001479661371
78,2434.61295678892259799606136231965755,2433.2,1.41295678892259799606136231965755
79,2497.41558668336517757695832526184668,2496.0,1.41558668336517757695832526184668
80,2561.01818817080285627827973124792819,2559.6,1.41818817080285627827973124792819
81,2625.42076242890117958652463256832841,2624.0,1.42076242890117958652463256832841
82,2690.62331065424832702252679203438111,2689.2,1.42331065424832702252679203438111
83,2756.62583407214703775751187213023623,2755.2,1.42583407214703775751187213023623
84,2823.42833394811687547530217178023478,2822.0,1.42833394811687547530217178023478
85,2891.03081160158637955125239281181525,2889.6,1.43081160158637955125239281181525
86,2959.43326842240347595533787648479070,2958.0,1.43326842240347595533787648479070
87,3028.63570589099701991220859680452755,3027.2,1.43570589099701991220859680452755
88,3098.63812560330665861585322585817134,3097.2,1.43812560330665861585322585817134
89,3169.44052930199866546473586009175569,3168.0,1.44052930199866546473586009175569
90,3241.04291891605751068426325816394199,3239.6,1.44291891605751068426325816394199
91,3313.44529661167303220501056361234252,3312.0,1.44529661167303220501056361234252
92,3386.64766485856819138306571090194872,3385.2,1.44766485856819138306571090194872
93,3460.65002651775470300670871310081525,3459.2,1.45002651775470300670871310081525
94,3535.45238495953218823593700708482631,3534.0,1.45238495953218823593700708482631
95,3611.05474422498967708774130309852824,3609.6,1.45474422498967708774130309852824
96,3687.45710925142981226168606963953768,3686.0,1.45710925142981226168606963953768
97,3764.65948619401721401635978000472081,3763.2,1.45948619401721401635978000472081
98,3842.66188289631890003308172540619649,3841.2,1.46188289631890003308172540619649
99,3921.46430959864657975049072571394410,3920.0,1.46430959864657975049072571394410
100,4001.06678004044846160642975771578828,3999.6,1.46678004044846160642975771578828
101,4081.46931324458921618149202943059956,4080.0,1.46931324458921618149202943059956
102,4162.67193654437532921557473490575564,4161.2,1.47193654437532921557473490575564
103,4244.67469102309327792539897852667511,4243.2,1.47469102309327792539897852667511
104,4327.47764202070455605863614563809012,4326.0,1.47764202070455605863614563809012
105,4411.08090141885057361881963114393576,4409.6,1.48090141885057361881963114393576
106,4495.48468129631130590130066181641121,4494.0,1.48468129631130590130066181641121
107,4580.68944908560235253003870194191774,4579.2,1.48944908560235253003870194191774
108,4666.69652981995368879710898905766892,4665.2,1.49652981995368879710898905766892
109,4753.51232307659126145352387349444704,4752.0,1.51232307659126145352387349444704
