Eigenstate,Energy,Kinetic Energy,Potential Energy
1,0.500000000075127235873396407820312875,0.0,0.500000000075127235873396407820312875
2,1.84623093814150685009821994041918182,1.2,0.64623093814150685009821994041918182
3,3.93633761114546666931772949051254893,3.2,0.73633761114546666931772949051254893
4,6.79966528081462707560492332971260351,6.0,0.79966528081462707560492332971260351
5,10.4480465804829942959085650812161417,9.6,0.8480465804829942959085650812161417
6,14.8870660049126713044404120454371572,14.0,0.8870660049126713044404120454371572
7,20.1197208355453283382863652009080676,19.2,0.9197208355453283382863652009080676
8,26.1477838587597751066326757500553057,25.2,0.9477838587597751066326757500553057
9,32.9723835735633955523481396787697831,32.0,0.9723835735633955523481396787697831
10,40.5942802341054817510549807826765672,39.6,0.9942802341054817510549807826765672
11,49.0140094105275847831240893052723165,48.0,1.0140094105275847831240893052723165
12,58.2319621981347287960151684373846618,57.2,1.0319621981347287960151684373846618
13,68.2484327269930476800627124133849511,67.2,1.0484327269930476800627124133849511
14,79.0636476947859724255134296144770354,78.0,1.0636476947859724255134296144770354
15,90.6777854826284315910493538660004300,89.6,1.0777854826284315910493538660004300
16,103.090988959937306226655321004464697,102.0,1.090988959937306226655321004464697
17,116.303374317892940722659847213278013,115.2,1.103374317892940722659847213278013
18,130.315037320445346730329393579695876,129.2,1.115037320445346730329393579695876
19,145.126057827418183919618568272430950,144.0,1.126057827418183919618568272430950
20,160.736503132142698684478570959054742,159.6,1.136503132142698684478570959054742
21,177.146430467539422983137215922554969,176.0,1.146430467539422983137215922554969
22,194.355888917276915713092015403624554,193.2,1.155888917276915713092015403624554
23,212.364920893708288309032857484984267,211.2,1.164920893708288309032857484984267
24,231.173563295271627628581550360639542,230.0,1.173563295271627628581550360639542
25,250.781848423285922912115278309291315,249.6,1.181848423285922912115278309291315
26,271.189804715758653984025676433758346,270.0,1.189804715758653984025676433758346
27,292.397457340348367450488890120980513,291.2,1.197457340348367450488890120980513
28,314.404828677723716832133590157628094,313.2,1.204828677723716832133590157628094
29,337.211938718765414743243916839347724,336.0,1.211938718765414743243916839347724
30,360.818805393408057656144921800968227,359.6,1.218805393408057656144921800968227
31,385.225444844772845286706595266623588,384.0,1.225444844772845286706595266623588
32,410.431871659164317050279151695164452,409.2,1.231871659164317050279151695164452
33,436.438099060194580231861704086462706,435.2,1.238099060194580231861704086462706
34,463.244139073547958247140169086954405,462.0,1.244139073547958247140169086954405
35,490.850002667559792304588473894806326,489.6,1.250002667559792304588473894806326
36,519.255699873749650899729269430558675,518.0,1.255699873749650899729269430558675
37,548.461239890645117023725517953866205,547.2,1.261239890645117023725517953866205
38,578.466631173601904225025746180746749,577.2,1.266631173601904225025746180746749
39,609.271881512828204013034030927128068,608.0,1.271881512828204013034030927128068
40,640.876998101425346309051037589940071,639.6,1.276998101425346309051037589940071
41,673.281987594940104375872235278854486,672.0,1.281987594940104375872235278854486
42,706.486856163668983055815651705310969,705.2,1.286856163668983055815651705310969
43,740.491609538748342801950094350971040,739.2,1.291609538748342801950094350971040
44,775.296253052896117971723468132089623,774.0,1.296253052896117971723468132089623
45,810.900791676533318283140733481928161,809.6,1.300791676533318283140733481928161
46,847.305230049900366051005369599670620,846.0,1.305230049900366051005369599670620
47,884.509572511689845208372771361560723,883.2,1.309572511689845208372771361560723
48,922.513823124639651754088844019129267,921.2,1.313823124639651754088844019129267
49,961.317985698465872723368339234533005,960.0,1.317985698465872723368339234533005
50,1000.92206381046059806469618662950187,999.6,1.32206381046059806469618662950187
51,1041.32606082403440284384792997381748,1040.0,1.32606082403440284384792997381748
52,1082.52997990544489198151351730529088,1081.2,1.32997990544489198151351730529088
53,1124.53382403892024961245255760175578,1123.2,1.33382403892024961245255760175578
54,1167.33759604035917402264462904006053,1166.0,1.33759604035917402264462904006053
55,1210.94129856976510362837909828340450,1209.6,1.34129856976510362837909828340450
56,1255.34493414255256489109789478693251,1254.0,1.34493414255256489109789478693251
57,1300.54850513984627409668043260208843,1299.2,1.34850513984627409668043260208843
58,1346.55201381787882774156504400127600,1345.2,1.35201381787882774156504400127600
59,1393.35546231658006232082196214416886,1392.0,1.35546231658006232082196214416886
60,1440.95885266744013980558804991057062,1439.6,1.35885266744013980558804991057062
61,1489.36218680071885086976595568254183,1488.0,1.36218680071885086976595568254183
62,1538.56546655206532692077485528473451,1537.2,1.36546655206532692077485528473451
63,1588.56869366860511010011724582137893,1587.2,1.36869366860511010011724582137893
64,1639.37186981454521793960258490854291,1638.0,1.37186981454521793960258490854291
65,1690.97499657634230451909447606929770,1689.6,1.37499657634230451909447606929770
66,1743.37807546747417263259245008478510,1742.0,1.37807546747417263259245008478510
67,1796.58110793285062917813275170889306,1795.2,1.38110793285062917813275170889306
68,1850.58409535289591982618291608817672,1849.2,1.38409535289591982618291608817672
69,1905.38703904733166635047750954840403,1904.0,1.38703904733166635047750954840403
70,1960.98994027868630173697721232913737,1959.6,1.38994027868630173697721232913737
71,2017.39280025555439948290235554862839,2016.0,1.39280025555439948290235554862839
72,2074.59562013562699525541086433435390,2073.2,1.39562013562699525541086433435390
73,2132.59840102851194607308729270125680,2131.2,1.39840102851194607308729270125680
74,2191.40114399836155332485591579415499,2190.0,1.40114399836155332485591579415499
75,2251.00385006632304483982782799800662,2249.6,1.40385006632304483982782799800662
76,2311.40652021282606166483603875495233,2310.0,1.40652021282606166483603875495233
77,2372.60915537971999280799456051907453,2371.2,1.40915537971999280799456051907453
78,2434.61175647227283540843677709349915,2433.2,1.41175647227283540843677709349915
79,2497.41432436104221097239601763488804,2496.0,1.41432436104221097239601763488804
80,2561.01685988362823019014641863272250,2559.6,1.41685988362823019014641863272250
81,2625.41936384631704950684576221736594,2624.0,1.41936384631704950684576221736594
82,2690.62183702562320116976797202199315,2689.2,1.42183702562320116976797202199315
83,2756.62428016973808974062324086177905,2755.2,1.42428016973808974062324086177905
84,2823.42669399989142376994767123490566,2822.0,1.42669399989142376994767123490566
85,2891.02907921163179205437040208919608,2889.6,1.42907921163179205437040208919608
86,2959.43143647603207803217671336827379,2958.0,1.43143647603207803217671336827379
87,3028.63376644082494840178604886751639,3027.2,1.43376644082494840178604886751639
88,3098.63606973147322867002768698440773,3097.2,1.43606973147322867002768698440773
89,3169.43834695217959483493559042838662,3168.0,1.43834695217959483493559042838662
90,3241.04059868683966719105449729101494,3239.6,1.44059868683966719105449729101494
91,3313.44282549994227079319882436240939,3312.0,1.44282549994227079319882436240939
92,3386.64502793742033881706653482519442,3385.2,1.44502793742033881706653482519442
93,3460.64720652745567280005480328898673,3459.2,1.44720652745567280005480328898673
94,3535.44936178124053081688600331522182,3534.0,1.44936178124053081688600331522182
95,3611.05149419369879349062378471450358,3609.6,1.45149419369879349062378471450358
96,3687.45360424416925591754236011956376,3686.0,1.45360424416925591754236011956376
97,3764.65569239705340924220291083294369,3763.2,1.45569239705340924220291083294369
98,3842.65775910242990274479587469552794,3841.2,1.45775910242990274479587469552794
99,3921.45980479663772383061949274216458,3920.0,1.45980479663772383061949274216458
100,4001.06182990282998697114825087233761,3999.6,1.46182990282998697114825087233761
101,4081.46383483150009334199109624871013,4080.0,1.46383483150009334199109624871013
102,4162.66581998098189732831783005076906,4161.2,1.46581998098189732831783005076906
103,4244.66778573792540815471944374201688,4243.2,1.46778573792540815471944374201688
104,4327.46973247774944763175827340971130,4326.0,1.46973247774944763175827340971130
105,4411.07166056507259193770607551115923,4409.6,1.47166056507259193770607551115923
106,4495.47357035412363458972550785895720,4494.0,1.47357035412363458972550785895720
107,4580.67546218913272967679456893806048,4579.2,1.47546218913272967679456893806048
108,4666.67733640470429518711954159854541,4665.2,1.47733640470429518711954159854541
109,4753.47919332617268766924786248269256,4752.0,1.47919332617268766924786248269256
110,4841.08103326994159704596738498814611,4839.6,1.48103326994159704596738498814611
111,4929.48285654380804453888005819148183,4928.0,1.48285654380804453888005819148183
112,5018.68466344727181722790481675410962,5017.2,1.48466344727181722790481675410962
113,5108.68645427183111723417044933115240,5107.2,1.48645427183111723417044933115240
114,5199.48822930126515475700289538963106,5198.0,1.48822930126515475700289538963106
115,5291.08998881190437374720925863111052,5289.6,1.48998881190437374720925863111052
116,5383.49173307288895066721241167803354,5382.0,1.49173307288895066721241167803354
117,5476.69346234641617507558370659456788,5475.2,1.49346234641617507558370659456788
118,5570.69517688797727974241572806592479,5569.2,1.49517688797727974241572806592479
119,5665.49687694658425428826075875322879,5664.0,1.49687694658425428826075875322879
120,5761.09856276498715049712629751243456,5759.6,1.49856276498715049712629751243456
121,5857.50023457988234918677417809321844,5856.0,1.50023457988234918677417809321844
122,5954.70189262211223960643770572688273,5953.2,1.50189262211223960643770572688273
123,6052.70353711685673013913928546827246,6051.2,1.50353711685673013913928546827246
124,6151.50516828381699140598229548897174,6150.0,1.50516828381699140598229548897174
125,6251.10678633739180330352842855322280,6249.6,1.50678633739180330352842855322280
126,6351.50839148684686230807380033217523,6350.0,1.50839148684686230807380033217523
127,6452.70998393647738480275136340178340,6451.2,1.50998393647738480275136340178340
128,6554.71156388576431959619719410162502,6553.2,1.51156388576431959619719410162502
129,6657.51313152952447072828034998609573,6656.0,1.51313152952447072828034998609573
130,6761.11468705805481327652882416561710,6759.6,1.51468705805481327652882416561710
131,6865.51623065727126947276623994966119,6864.0,1.51623065727126947276623994966119
132,6970.71776250884219746227381901794066,6969.2,1.51776250884219746227381901794066
133,7076.71928279031683325620705923815270,7075.2,1.51928279031683325620705923815270
134,7183.52079167524891515203958558830794,7182.0,1.52079167524891515203958558830794
135,7291.12228933331570178846314331881137,7289.6,1.52228933331570178846314331881137
136,7399.52377593043259131364272361533837,7398.0,1.52377593043259131364272361533837
137,7508.72525162886353583778286244936428,7507.2,1.52525162886353583778286244936428
138,7618.72671658732743172897030049354394,7617.2,1.52671658732743172897030049354394
139,7729.52817096110066420535310669152833,7728.0,1.52817096110066420535310669152833
140,7841.12961490211596923074795088348593,7839.6,1.52961490211596923074795088348593
141,7953.53104855905777116327756024054482,7952.0,1.53104855905777116327756024054482
142,8066.73247207745414653337397434879133,8065.2,1.53247207745414653337397434879133
143,8180.73388559976555567731339935312599,8179.2,1.53388559976555567731339935312599
144,8295.53528926547047677281222393012247,8294.0,1.53528926547047677281222393012247
145,8411.13668321114807263545461982146923,8409.6,1.53668321114807263545461982146923
146,8527.53806757055801276597158184832391,8526.0,1.53806757055801276597158184832391
147,8644.73944247471756493542549211020123,8643.2,1.53944247471756493542549211020123
148,8762.74080805197607163732089012463553,8761.2,1.54080805197607163732089012463553
149,8881.54216442808691320758868849914119,8880.0,1.54216442808691320758868849914119
150,9001.14351172627706125331314100575598,8999.6,1.54351172627706125331314100575598
151,9121.54485006731431830444870430943510,9120.0,1.54485006731431830444870430943510
152,9242.74617956957233398768804148519265,9241.2,1.54617956957233398768804148519265
153,9364.74750034909348667216703092150268,9363.2,1.54750034909348667216703092150268
154,9487.54881251964971448624041807575513,9486.0,1.54881251964971448624041807575513
155,9611.15011619280137394131239185310367,9609.6,1.55011619280137394131239185310367
156,9735.55141147795420402907685794937267,9734.0,1.55141147795420402907685794937267
157,9860.75269848241446683876123161571986,9859.2,1.55269848241446683876123161571986
158,9986.75397731144233651246707391251424,9985.2,1.55397731144233651246707391251424
159,10113.5552480683036002114316627401511,10112.0,1.5552480683036002114316627401511
160,10241.1565108543197374307400471415437,10239.6,1.5565108543197374307400471415437
161,10369.5577657689164361585983114684776,10368.0,1.5577657689164361585983114684776
162,10498.7590129096706053412594851080051,10497.2,1.5590129096706053412594851080051
163,10628.7602523723559385068915220291770,10627.2,1.5602523723559385068915220291770
164,10759.5614842509870831849733980486302,10758.0,1.5614842509870831849733980486302
165,10891.1627086378624647214277621730359,10889.6,1.5627086378624647214277621730359
166,11023.5639256236058150050696891882996,11022.0,1.5639256236058150050696891882996
167,11156.7651352972064533376828875963041,11155.2,1.5651352972064533376828875963041
168,11290.7663377460583621366286875627688,11289.2,1.5663377460583621366286875627688
169,11425.5675330559981025320699486300500,11424.0,1.5675330559981025320699486300500
170,11561.1687213113416096019187134446934,11559.6,1.5687213113416096019187134446934
171,11697.5699025949199074389603904339901,11696.0,1.5699025949199074389603904339901
172,11834.7710769881137819168059307193772,11833.2,1.5710769881137819168059307193772
173,11972.7722445708874465569954621280354,11971.2,1.5722445708874465569954621280354
174,12111.5734054218212373407615129194248,12110.0,1.5734054218212373407615129194248
175,12251.1745596181433704503785107075372,12249.6,1.5745596181433704503785107075372
176,12391.5757072357607926464455788777034,12390.0,1.5757072357607926464455788777034
177,12532.7768483492891575416347671036665,12531.2,1.5768483492891575416347671036665
178,12674.7779830320819569252957096979268,12673.2,1.5779830320819569252957096979268
179,12817.5791113562588335838577246191230,12816.0,1.5791113562588335838577246191230
180,12961.1802333927331065634240353637148,12959.6,1.5802333927331065634240353637148
181,13105.5813492112385315231398096132635,13104.0,1.5813492112385315231398096132635
182,13250.7824588803553238747158468740875,13249.2,1.5824588803553238747158468740875
183,13396.7835624675354677573782860399621,13395.2,1.5835624675354677573782860399621
184,13543.5846600391273350897772672429328,13542.0,1.5846600391273350897772672429328
185,13691.1857516603996365069754255730647,13689.6,1.5857516603996365069754255730647
186,13839.5868373955647251511319775800225,13838.0,1.5868373955647251511319775800225
187,13988.7879173078012771163787968585301,13987.2,1.5879173078012771163787968585301
188,14138.7889914592763639842004640015877,14137.2,1.5889914592763639842004640015877
189,14289.5900599111669411804041051493019,14288.0,1.5900599111669411804041051493019
190,14441.1911227236807678047525152807728,14439.6,1.5911227236807678047525152807728
191,14593.5921799560767771558084893362245,14592.0,1.5921799560767771558084893362245
192,14746.7932316666849143331880355554472,14745.2,1.5932316666849143331880355554472
193,14900.7942779129254592210663986136153,14899.2,1.5942779129254592210663986136153
194,15055.5953187513278481937138456885003,15054.0,1.5953187513278481937138456885003
195,15211.1963542375490124754159056316926,15209.6,1.5963542375490124754159056316926
196,15367.5973844263912468466718711215162,15366.0,1.5973844263912468466718711215162
197,15524.7984093718196230719880606279091,15523.2,1.5984093718196230719880606279091
198,15682.7994291269789622112394968365051,15681.2,1.5994291269789622112394968365051
199,15841.6004437442103786484497477138652,15840.0,1.6004437442103786484497477138652
200,16001.2014532750674097781829445577561,15999.6,1.6014532750674097781829445577561
201,16161.6024577703317423259620018160776,16160.0,1.6024577703317423259620018160776
202,16322.8034572800285486788592748883184,16321.2,1.6034572800285486788592748883184
203,16484.8044518534414438809767190906442,16483.2,1.6044518534414438809767190906442
204,16647.6054415391270749087135945961119,16646.0,1.6054415391270749087135945961119
205,16811.2064263849293521911699415662160,16809.6,1.6064263849293521911699415662160
206,16975.6074064379933363944198934146181,16974.0,1.6074064379933363944198934146181
207,17140.8083817447787863403182263097443,17139.2,1.6083817447787863403182263097443
208,17306.8093523510733822812823576526861,17305.2,1.6093523510733822812823576526861
209,17473.6103183020056302739167880940179,17472.0,1.6103183020056302739167880940179
210,17641.2112796420574591471177363121058,17639.6,1.6112796420574591471177363121058
211,17809.6122364150765174236543015711119,17808.0,1.6122364150765174236543015711119
212,17978.8131886642881804223893586661204,17977.2,1.6131886642881804223893586661204
213,18148.8141364323072719190684971501252,18147.2,1.6141364323072719190684971501252
214,18319.6150797611495153414020096589917,18318.0,1.6150797611495153414020096589917
215,18491.2160186922427137047080264227808,18489.6,1.6160186922427137047080264227808
216,18663.6169532664376722426087726324338,18662.0,1.6169532664376722426087726324338
217,18836.8178835240188676918600507625683,18835.2,1.6178835240188676918600507625683
218,19010.8188095047148732038000038137083,19009.2,1.6188095047148732038000038137083
219,19185.6197312477085421553921426729188,19184.0,1.6197312477085421553921426729188
220,19361.2206487916469633680275081863321,19359.6,1.6206487916469633680275081863321
221,19537.6215621746511856364151632618952,19536.0,1.6215621746511856364151632618952
222,19714.8224714343257287649663859391440,19713.2,1.6224714343257287649663859391440
223,19892.8233766077678746725429617891117,19891.2,1.6233766077678746725429617891117
224,20071.6242777315767536249092543089928,20070.0,1.6242777315767536249092543089928
225,20251.2251748418622281514713350957948,20249.6,1.6251748418622281514713350957948
226,20431.6260679742535781842865346872227,20430.0,1.6260679742535781842865346872227
227,20612.8269571639079960622315246793784,20611.2,1.6269571639079960622315246793784
228,20794.8278424455188932105728573545648,20793.2,1.6278424455188932105728573545648
229,20977.6287238533240256481263168687059,20976.0,1.6287238533240256481263168687059
230,21161.2296014211134430082868518585240,21159.6,1.6296014211134430082868518585240
231,21345.6304751822372628632368421693869,21344.0,1.6304751822372628632368421693869
232,21530.8313451696132807602919530190077,21529.2,1.6313451696132807602919530190077
233,21716.8322114157344109559277121986571,21715.2,1.6322114157344109559277121986571
234,21903.6330739526759739935931685749026,21902.0,1.6330739526759739935931685749026
235,22091.2339328121028242964506643890507,22089.6,1.6339328121028242964506643890507
236,22279.6347880252763274738523182628824,22278.0,1.6347880252763274738523182628824
237,22468.8356396230611909617215725398765,22467.2,1.6356396230611909617215725398765
238,22658.8364876359321497278926252066239,22657.2,1.6364876359321497278926252066239
