Eigenstate,Energy,Kinetic Energy,Potential Energy
1,0.500000000027529380582158064500816896,0.0,0.500000000027529380582158064500816896
2,1.84623093783081198933451861554265068,1.2,0.64623093783081198933451861554265068
3,3.93633761023282163409437641720802934,3.2,0.73633761023282163409437641720802934
4,6.79966527891368039998961214074805752,6.0,0.79966527891368039998961214074805752
5,10.4480465771901407594823907395979886,9.6,0.8480465771901407594823907395979886
6,14.8870659998172263385186838495131632,14.0,0.8870659998172263385186838495131632
7,20.1197208282332748733491987782498382,19.2,0.9197208282332748733491987782498382
8,26.1477838488153243642030149585521719,25.2,0.9477838488153243642030149585521719
9,32.9723835605697111623227893144594525,32.0,0.9723835605697111623227893144594525
10,40.5942802176450457504561843146491110,39.6,0.9942802176450457504561843146491110
11,49.0140093901823950270149656844161758,48.0,1.0140093901823950270149656844161758
12,58.2319621734864104566710779476196264,57.2,1.0319621734864104566710779476196264
13,68.2484326976229179735207898668407501,67.2,1.0484326976229179735207898668407501
14,79.0636476602750784184382899252031820,78.0,1.0636476602750784184382899252031820
15,90.6777854425575717654665185671418295,89.6,1.0777854425575717654665185671418295
16,103.090988913887041840142970777834638,102.0,1.090988913887041840142970777834638
17,116.303374265443600528542042901836883,115.2,1.103374265443600528542042901836883
18,130.315037261177027242808330914893351,129.2,1.115037261177027242808330914893351
19,145.126057760910746607865453305661973,144.0,1.126057760910746607865453305661973
20,160.736503057975764998131785439792161,159.6,1.136503057975764998131785439792161
21,177.146430385292367812955373433374807,176.0,1.146430385292367812955373433374807
22,194.355888826528859700027848373625536,193.2,1.155888826528859700027848373625536
23,212.364920794038089290466794041903078,211.2,1.164920794038089290466794041903078
24,231.173563186257871427200746634898692,230.0,1.173563186257871427200746634898692
25,250.781848304506913616124545258702098,249.6,1.181848304506913616124545258702098
26,271.189804586792403827904633473617002,270.0,1.189804586792403827904633473617002
27,292.397457200772586377613391057965683,291.2,1.197457200772586377613391057965683
28,314.404828527115801800558005803285364,313.2,1.204828527115801800558005803285364
29,337.211938556702438821366138383430612,336.0,1.211938556702438821366138383430612
30,360.818805219466758944226696704565180,359.6,1.218805219466758944226696704565180
31,385.225444658529615692197487728505253,384.0,1.225444658529615692197487728505253
32,410.431871460195190938834792233309048,409.2,1.231871460195190938834792233309048
33,436.438098848075222971326033734492975,435.2,1.238098848075222971326033734492975
34,463.244138847853654658202000478456452,462.0,1.244138847853654658202000478456452
35,490.850002427865435029055898926066318,489.6,1.250002427865435029055898926066318
36,519.255699619629728695196469504277175,518.0,1.255699619629728695196469504277175
37,548.461239621673702991692378059034188,547.2,1.261239621673702991692378059034188
38,578.466630889352643978165911719530721,577.2,1.266630889352643978165911719530721
39,609.271881212874303786212606414474034,608.0,1.271881212874303786212606414474034
40,640.876997785339561017809508356240629,639.6,1.276997785339561017809508356240629
41,673.281987262294725625380379579161713,672.0,1.281987262294725625380379579161713
42,706.486855814035827102703357352790596,705.2,1.286855814035827102703357352790596
43,740.491609171698738470949514128200947,739.2,1.291609171698738470949514128200947
44,775.296252668000894528653139420095889,774.0,1.296252668000894528653139420095889
45,810.900791273362793265431789675599996,809.6,1.300791273362793265431789675599996
46,847.305229628024333056692991418368791,846.0,1.305229628024333056692991418368791
47,884.509572070677561644243643187015466,883.2,1.309572070677561644243643187015466
48,922.513822664059826543479212616304120,921.2,1.313822664059826543479212616304120
49,961.317985217886653973941140673426224,960.0,1.317985217886653973941140673426224
50,1000.92206330944956069638430586310149,999.6,1.32206330944956069638430586310149
51,1041.32606030215853617702959324342484,1040.0,1.32606030215853617702959324342484
52,1082.52997936227058728538202493614279,1081.2,1.32997936227058728538202493614279
53,1124.53382347401328761345299627857830,1123.2,1.33382347401328761345299627857830
54,1167.33759545328471237277251874840331,1166.0,1.33759545328471237277251874840331
55,1210.94129796008766433306848649117748,1209.6,1.34129796008766433306848649117748
56,1255.34493350983602169636736888165175,1254.0,1.34493350983602169636736888165175
57,1300.54850448365383983515388732386367,1299.2,1.34850448365383983515388732386367
58,1346.55201313777304163693820852958142,1345.2,1.35201313777304163693820852958142
59,1393.35546161212277725030558886596518,1392.0,1.35546161212277725030558886596518
60,1440.95885193819250951982259677967267,1439.6,1.35885193819250951982259677967267
61,1489.36218604624131716967062555425528,1488.0,1.36218604624131716967062555425528
62,1538.56546577191760679076502352390046,1537.2,1.36546577191760679076502352390046
63,1588.56869286234618279709846049469638,1587.2,1.36869286234618279709846049469638
64,1639.37186898173331203712587408978513,1638.0,1.37186898173331203712587408978513
65,1690.97499571653488490603619735052480,1689.6,1.37499571653488490603619735052480
66,1743.37807458022792746570253397728946,1742.0,1.37807458022792746570253397728946
67,1796.58110701772145678777717204215538,1795.2,1.38110701772145678777717204215538
68,1850.58409440943891557458969520292387,1849.2,1.38409440943891557458969520292387
69,1905.38703807510110944178003929154735,1904.0,1.38703807510110944178003929154735
70,1960.98993927723564197833460753750299,1959.6,1.38993927723564197833460753750299
71,2017.39279922443624399596278151712142,2016.0,1.39279922443624399596278151712142
72,2074.59561907439309513737144735262545,2073.2,1.39561907439309513737144735262545
73,2132.59839993671318300659198370669520,2131.2,1.39839993671318300659198370669520
74,2191.40114287554792613596147186062143,2190.0,1.40114287554792613596147186062143
75,2251.00384891204365600325705403850106,2249.6,1.40384891204365600325705403850106
76,2311.40651902662910375572721617518267,2310.0,1.40651902662910375572721617518267
77,2372.60915416115273489934576793181246,2371.2,1.40915416115273489934576793181246
78,2434.61175522088160941343417200750196,2433.2,1.41175522088160941343417200750196
79,2497.41432307637239793080569002633704,2496.0,1.41432307637239793080569002633704
80,2561.01685856522424649794040148568761,2559.6,1.41685856522424649794040148568761
81,2625.41936249372233308822360679699942,2624.0,1.41936249372233308822360679699942
82,2690.62183563838019759072662654311396,2689.2,1.42183563838019759072662654311396
83,2756.62427874738823826321935076043968,2755.2,1.42427874738823826321935076043968
84,2823.42669254197514334638781592727380,2822.0,1.42669254197514334638781592727380
85,2891.02907771768846726005636810311520,2889.6,1.42907771768846726005636810311520
86,2959.43143494560004493682468687741966,2958.0,1.43143494560004493682468687741966
87,3028.63376487344148037773008385823571,3027.2,1.43376487344148037773008385823571
88,3098.63606812667452213680976269741357,3097.2,1.43606812667452213680976269741357
89,3169.43834530950075493927625008447803,3168.0,1.43834530950075493927625008447803
90,3241.04059700581469342128991958839726,3239.6,1.44059700581469342128991958839726
91,3313.44282378010404252726185221962235,3312.0,1.44282378010404252726185221962235
92,3386.64502617830060080308110889918037,3385.2,1.44502617830060080308110889918037
93,3460.64720472858502056860489746343033,3459.2,1.44720472858502056860489746343033
94,3535.44935994214839602401198005604800,3534.0,1.44935994214839602401198005604800
95,3611.05149231391342919059067642791401,3609.6,1.45149231391342919059067642791401
96,3687.45360232321772176441634117248543,3686.0,1.45360232321772176441634117248543
97,3764.65569043446155661926366704984830,3763.2,1.45569043446155661926366704984830
98,3842.65775709772235982080434999988628,3841.2,1.45775709772235982080434999988628
99,3921.45980274933788054195162823437744,3920.0,1.45980274933788054195162823437744
100,4001.06182781245997992879704199245626,3999.6,1.46182781245997992879704199245626
101,4081.46383269758079066243035150176086,4080.0,1.46383269758079066243035150176086
102,4162.66581780303288338721242609110966,4161.2,1.46581780303288338721242609110966
103,4244.66778351546496826245801844863127,4243.2,1.46778351546496826245801844863127
104,4327.46973021029455262977503369873546,4326.0,1.46973021029455262977503369873546
105,4411.07165825213888271454982552276551,4409.6,1.47165825213888271454982552276551
106,4495.47356799522540651582449797509655,4494.0,1.47356799522540651582449797509655
107,4580.67545978378291695685668893499621,4579.2,1.47545978378291695685668893499621
108,4666.67733395241445512909794357113651,4665.2,1.47733395241445512909794357113651
109,4753.47919082645298486879265476397315,4752.0,1.47919082645298486879265476397315
110,4841.08103072230078748527443041851500,4839.6,1.48103072230078748527443041851500
111,4929.48285394775345959883827526423041,4928.0,1.48285394775345959883827526423041
112,5018.68466080230934761243348208023817,5017.2,1.48466080230934761243348208023817
113,5108.68645157746519680562804213751567,5107.2,1.48645157746519680562804213751567
114,5199.48822655699874428153906095751795,5198.0,1.48822655699874428153906095751795
115,5291.08998601723894454892110486722439,5289.6,1.48998601723894454892110486722439
116,5383.49173022732446818995614680406921,5382.0,1.49173022732446818995614680406921
117,5476.69345944945108235128204142048022,5475.2,1.49345944945108235128204142048022
118,5570.69517393910848076469091707742538,5569.2,1.49517393910848076469091707742538
119,5665.49687394530709729021249859150402,5664.0,1.49687394530709729021249859150402
120,5761.09855971079541113206249817259948,5759.6,1.49855971079541113206249817259948
121,5857.50023147226821361069189510541088,5856.0,1.50023147226821361069189510541088
122,5954.70188946056628746104019963519686,5953.2,1.50188946056628746104019963519686
123,6052.70353390086791743416376815996740,6051.2,1.50353390086791743416376815996740
124,6151.50516501287263329960158628221028,6150.0,1.50516501287263329960158628221028
125,6251.10678301097755677957786277875087,6249.6,1.50678301097755677957786277875087
126,6351.50838810444670874884315600203901,6350.0,1.50838810444670874884315600203901
127,6452.70998049757361245606942462935124,6451.2,1.50998049757361245606942462935124
128,6554.71156038983750593552447709862987,6553.2,1.51156038983750593552447709862987
129,6657.51312797605346470451318945246305,6656.0,1.51312797605346470451318945246305
130,6761.11468344651671746020560825000328,6759.6,1.51468344651671746020560825000328
131,6865.51622698714142208535395450488073,6864.0,1.51622698714142208535395450488073
132,6970.71775877959415429519986509117006,6969.2,1.51775877959415429519986509117006
133,7076.71927900142234947628900845047584,7075.2,1.51927900142234947628900845047584
134,7183.52078782617792699195165757029955,7182.0,1.52078782617792699195165757029955
135,7291.12228542353630812086514024351526,7289.6,1.52228542353630812086514024351526
136,7399.52377195941103510758367267655589,7398.0,1.52377195941103510758367267655589
137,7508.72524759606418549597773211773007,7507.2,1.52524759606418549597773211773007
138,7618.72671249221276230453426915760455,7617.2,1.52671249221276230453426915760455
139,7729.52816680313123849656364872157885,7728.0,1.52816680313123849656364872157885
140,7841.12961068075041875239079989174539,7839.6,1.52961068075041875239079989174539
141,7953.53104427375277699311817823942219,7952.0,1.53104427375277699311817823942219
142,8066.73246772766442003228110427903769,8065.2,1.53246772766442003228110427903769
143,8180.73388118494381908154660554651772,8179.2,1.53388118494381908154660554651772
144,8295.53528478506744365697013824903680,8294.0,1.53528478506744365697013824903680
145,8411.13667866461242824456522448627871,8409.6,1.53667866461242824456522448627871
146,8527.53806295733639421519030055191247,8526.0,1.53806295733639421519030055191247
147,8644.73943779425454127579102475417441,8643.2,1.53943779425454127579102475417441
148,8762.74080330371412378600288615590351,8761.2,1.54080330371412378600288615590351
149,8881.54215961146641374104479243577087,8880.0,1.54215961146641374104479243577087
150,9001.14350684073625406175707481189240,8999.6,1.54350684073625406175707481189240
151,9121.54484511228929810601354584246996,9120.0,1.54484511228929810601354584246996
152,9242.74617454449702570065263153996756,9241.2,1.54617454449702570065263153996756
153,9364.74749525339962464359600023978714,9363.2,1.54749525339962464359600023978714
154,9487.54880735276682157537094758223442,9486.0,1.54880735276682157537094758223442
155,9611.15011095415674045600320660203547,9609.6,1.55011095415674045600320660203547
156,9735.55140616697286651361677661015959,9734.0,1.55140616697286651361677661015959
157,9860.75269309851918671131711545416384,9859.2,1.55269309851918671131711545416384
158,9986.75397185405357855043184098649643,9985.2,1.55397185405357855043184098649643
159,10113.5552425368395108829149756939223,10112.0,1.5552425368395108829149756939223
160,10241.1565052481961230704250216703384,10239.6,1.5565052481961230704250216703384
161,10369.5577600875467409861684771184279,10368.0,1.5577600875467409861684771184279
162,10498.7590071524658893205807756500967,10497.2,1.5590071524658893205807756500967
163,10628.7602465387248550441145535509448,10627.2,1.5602465387248550441145535509448
164,10759.5614783403358566637009120951764,10758.0,1.5614783403358566637009120951764
165,10891.1627026495948678730719048222418,10889.6,1.5627026495948678730719048222418
166,11023.5639195571231461125035487011189,11022.0,1.5639195571231461125035487011189
167,11156.7651291519075132702694740325684,11155.2,1.5651291519075132702694740325684
168,11290.7663315213394312146893716375086,11289.2,1.5663315213394312146893716375086
169,11425.5675267512529172188332936334248,11424.0,1.5675267512529172188332936334248
170,11561.1687149259613390209683307693450,11559.6,1.5687149259613390209683307693450
171,11697.5698961282931297151788092645630,11696.0,1.5698961282931297151788092645630
172,11834.7710704396264603387887379460025,11833.2,1.5710704396264603387887379460025
173,11972.7722379399229055588876587725599,11971.2,1.5722379399229055588876587725599
174,12111.5733987077601383014445888022940,12110.0,1.5733987077601383014445888022940
175,12251.1745528203636873079135814270001,12249.6,1.5745528203636873079135814270001
176,12391.5757003536377873256542391905802,12390.0,1.5757003536377873256542391905802
177,12532.7768413821953551926752012699890,12531.2,1.5768413821953551926752012699890
178,12674.7779759793871209710673107796215,12673.2,1.5779759793871209710673107796215
179,12817.5791042173299405740428004419657,12816.0,1.5791042173299405740428004419657
180,12961.1802261669343208329497985633684,12959.6,1.5802261669343208329497985633684
181,13105.5813418979311796528188522965492,13104.0,1.5813418979311796528188522965492
182,13250.7824514788978689517971930242175,13249.2,1.5824514788978689517971930242175
183,13396.7835549772834834337151047740180,13395.2,1.5835549772834834337151047740180
184,13543.5846524594334794352906890377334,13542.0,1.5846524594334794352906890377334
185,13691.1857439906136256560667640761410,13689.6,1.5857439906136256560667640761410
186,13839.5868296350333067396691773629006,13838.0,1.5868296350333067396691773629006
187,13988.7879094558682035068542673242980,13987.2,1.5879094558682035068542673242980
188,14138.7889835152823652766296691865708,14137.2,1.5889835152823652766296691865708
189,14289.5900518744496980065061012775910,14288.0,1.5900518744496980065061012775910
190,14441.1911145935748839029245191646391,14439.6,1.5911145935748839029245191646391
191,14593.5921717319137517243767768791023,14592.0,1.5921717319137517243767768791023
192,14746.7932233477931141593885160255580,14745.2,1.5932233477931141593885160255580
193,14900.7942694986300905831772938302161,14899.2,1.5942694986300905831772938302161
194,15055.5953102409509285337330501507456,15054.0,1.5953102409509285337330501507456
195,15211.1963456304093418396435045720280,15209.6,1.5963456304093418396435045720280
196,15367.5973757218043790915278143970867,15366.0,1.5973757218043790915278143970867
197,15524.7984005690978368323623319877491,15523.2,1.5984005690978368323623319877491
198,15682.7994202254312316286401232683384,15681.2,1.5994202254312316286401232683384
199,15841.6004347431423438561804388238368,15840.0,1.6004347431423438561804388238368
200,16001.2014441737813471407496473163789,15999.6,1.6014441737813471407496473163789
201,16161.6024485681265344298730409487074,16160.0,1.6024485681265344298730409487074
202,16322.8034479761996540719495480642667,16321.2,1.6034479761996540719495480642667
203,16484.8044424472808665573518030400536,16483.2,1.6044424472808665573518030400536
204,16647.6054320299233335363739407684341,16646.0,1.6054320299233335363739407684341
205,16811.2064167719674490793395089700811,16809.6,1.6064167719674490793395089700811
206,16975.6073967205547261975672960914907,16974.0,1.6073967205547261975672960914907
207,17140.8083719221413444958210259402272,17139.2,1.6083719221413444958210259402272
208,17306.8093424225113731776482803712014,17305.2,1.6093424225113731776482803712014
209,17473.6103082667896751464368671498867,17472.0,1.6103082667896751464368671498867
210,17641.2112694994545036977882976814938,17639.6,1.6112694994545036977882976814938
211,17809.6122261643497991621654862298247,17808.0,1.6122261643497991621654862298247
212,17978.8131783046971957249373922875850,17977.2,1.6131783046971957249373922875850
213,18148.8141259631077428017092628919644,18147.2,1.6141259631077428017092628919644
214,18319.6150691815933559446226626445407,18318.0,1.6150691815933559446226626445407
215,18491.2160080015779964858506434060486,18489.6,1.6160080015779964858506434060486
216,18663.6169424639085938727392783638808,18662.0,1.6169424639085938727392783638808
217,18836.8178726088657146536316565968161,18835.2,1.6178726088657146536316565968161
218,19010.8187984761739870868178982220726,19009.2,1.6187984761739870868178982220726
219,19185.6197201050122846455408666482098,19184.0,1.6197201050122846455408666482098
220,19361.2206375340236809271787817927645,19359.6,1.6206375340236809271787817927645
221,19537.6215508013251738688880292274201,19536.0,1.6215508013251738688880292274201
222,19714.8224599445171964670650109626954,19713.2,1.6224599445171964670650109626954
223,19892.8233650006929075614513664699334,19891.2,1.6233650006929075614513664699334
224,20071.6242660064472777431739387770866,20070.0,1.6242660064472777431739387770866
225,20251.2251629978859729432551299109208,20249.6,1.6251629978859729432551299109208
226,20431.6260560106340392395272985911554,20430.0,1.6260560106340392395272985911554
227,20612.8269450798443975247906237221885,20611.2,1.6269450798443975247906237221885
228,20794.8278302402061498464066187257000,20793.2,1.6278302402061498464066187257000
229,20977.6287115259527045694633985648631,20976.0,1.6287115259527045694633985648631
230,21161.2295889708697250497418092966191,21159.6,1.6295889708697250497418092966191
231,21345.6304626083029036057377165316121,21344.0,1.6304626083029036057377165316121
232,21530.8313324711655711986458322525601,21529.2,1.6313324711655711986458322525601
233,21716.8321985919461378057940384034521,21715.2,1.6321985919461378057940384034521
234,21903.6330610027153796335785379912963,21902.0,1.6330610027153796335785379912963
235,22091.2339197351335663409840095619612,22089.6,1.6339197351335663409840095619612
236,22279.6347748204574379724410966937782,22278.0,1.6347748204574379724410966937782
237,22468.8356262895470352201322120124937,22467.2,1.6356262895470352201322120124937
238,22658.8364741728723847467399616967278,22657.2,1.6364741728723847467399616967278
