Eigenstate,Energy,Kinetic Energy,Potential Energy
1,0.500000000035024419310321823165674411,0.0,0.500000000035024419310321823165674411
2,1.84623093787973572704988643681932773,1.2,0.64623093787973572704988643681932773
3,3.93633761037653130664754568827944894,3.2,0.73633761037653130664754568827944894
4,6.79966527921301164002337921357618579,6.0,0.79966527921301164002337921357618579
5,10.4480465777086446075501478573836267,9.6,0.8480465777086446075501478573836267
6,14.8870660006195666149821603932860370,14.0,0.8870660006195666149821603932860370
7,20.1197208293846376710428789601673759,19.2,0.9197208293846376710428789601673759
8,26.1477838503811717697541745706086293,25.2,0.9477838503811717697541745706086293
9,32.9723835626156667246492152168115316,32.0,0.9723835626156667246492152168115316
10,40.5942802202368363402040148310465337,39.6,0.9942802202368363402040148310465337
11,49.0140093933858192423005286382371756,48.0,1.0140093933858192423005286382371756
12,58.2319621773673205564412027485852010,57.2,1.0319621773673205564412027485852010
13,68.2484327022472091754247624271414146,67.2,1.0484327022472091754247624271414146
14,79.0636476657086824350145264110019437,78.0,1.0636476657086824350145264110019437
15,90.6777854488664528972531260695852638,89.6,1.0777854488664528972531260695852638
16,103.090988921137194674953953943577204,102.0,1.090988921137194674953953943577204
17,116.303374273701048685569421919371707,115.2,1.103374273701048685569421919371707
18,130.315037270507822817449722025544431,129.2,1.115037270507822817449722025544431
19,145.126057771380970099292789727919049,144.0,1.126057771380970099292789727919049
20,160.736503069651525577446978832970898,159.6,1.136503069651525577446978832970898
21,177.146430398239803836813266443690995,176.0,1.146430398239803836813266443690995
22,194.355888840814139404600618356099300,193.2,1.155888840814139404600618356099300
23,212.364920809727411620232282117162621,211.2,1.164920809727411620232282117162621
24,231.173563203417466966146316368360306,230.0,1.173563203417466966146316368360306
25,250.781848323203045597901685508175642,249.6,1.181848323203045597901685508175642
26,271.189804607091369207684724900157114,270.0,1.189804607091369207684724900157114
27,292.397457222740716952787482155716536,291.2,1.197457222740716952787482155716536
28,314.404828550819465370575873663884966,313.2,1.204828550819465370575873663884966
29,337.211938582208040379304676542934447,336.0,1.211938582208040379304676542934447
30,360.818805246840741894370061497323194,359.6,1.218805246840741894370061497323194
31,385.225444687838463089174751682247502,384.0,1.225444687838463089174751682247502
32,410.431871491505426744814477284671967,409.2,1.231871491505426744814477284671967
33,436.438098881453413328494302389925034,435.2,1.238098881453413328494302389925034
34,463.244138883366409174311521011597578,462.0,1.244138883366409174311521011597578
35,490.850002465579408074267832964431450,489.6,1.250002465579408074267832964431450
36,519.255699659611620708779319562504117,518.0,1.255699659611620708779319562504117
37,548.461239663990261797411103841489361,547.2,1.261239663990261797411103841489361
38,578.466630934070666107409374737372100,577.2,1.266630934070666107409374737372100
39,609.271881260060635808079468772139451,608.0,1.271881260060635808079468772139451
40,640.876997835061100875511598584325011,639.6,1.276997835061100875511598584325011
41,673.281987314618423978435280622290529,672.0,1.281987314618423978435280622290529
42,706.486855869028688674480120493493338,705.2,1.286855869028688674480120493493338
43,740.491609229427823401207072835118566,739.2,1.291609229427823401207072835118566
44,775.296252728533319730773520349590666,774.0,1.296252728533319730773520349590666
45,810.900791336765733788102110026719033,809.6,1.300791336765733788102110026719033
46,847.305229694365023449833541968417100,846.0,1.305229694365023449833541968417100
47,884.509572140023297329015640087495605,883.2,1.309572140023297329015640087495605
48,922.513822736477965186236363441385385,921.2,1.313822736477965186236363441385385
49,961.317985293444616864015009438619945,960.0,1.317985293444616864015009438619945
50,1000.92206338821483412761539181978245,999.6,1.32206338821483412761539181978245
51,1041.32606038419867283297474772208355,1040.0,1.32606038419867283297474772208355
52,1082.52997944765320762814483932719029,1081.2,1.32997944765320762814483932719029
53,1124.53382356280608127609753185150204,1123.2,1.33382356280608127609753185150204
54,1167.33759554555543955529260873887356,1166.0,1.33759554555543955529260873887356
55,1210.94129805590415720189509749048977,1209.6,1.34129805590415720189509749048977
56,1255.34493360926618578740541164859017,1254.0,1.34493360926618578740541164859017
57,1300.54850458676565546034761611822753,1299.2,1.34850458676565546034761611822753
58,1346.55201324463456529437115256352305,1345.2,1.35201324463456529437115256352305
59,1393.35546172280214303784687842199052,1392.0,1.35546172280214303784687842199052
60,1440.95885205275793055233679792042034,1439.6,1.35885205275793055233679792042034
61,1489.36218616476108699981281801102245,1488.0,1.36218616476108699981281801102245
62,1538.56546589446010083338693866636348,1537.2,1.36546589446010083338693866636348
63,1588.56869298897985975729515529535080,1587.2,1.36869298897985975729515529535080
64,1639.37186911252671534195563488876577,1638.0,1.37186911252671534195563488876577
65,1690.97499585155664413994927877446138,1689.6,1.37499585155664413994927877446138
66,1743.37807471954675980971695654530942,1742.0,1.37807471954675980971695654530942
67,1796.58110716140616846244212874991015,1795.2,1.38110716140616846244212874991015
68,1850.58409455755840328677923913696350,1849.2,1.38409455755840328677923913696350
69,1905.38703822772436183536166783230088,1904.0,1.38703822772436183536166783230088
70,1960.98993943443174108875907465218833,1959.6,1.38993943443174108875907465218833
71,2017.39279938627436670882310114571989,2016.0,1.39279938627436670882310114571989
72,2074.59561924094251465098048282844755,2073.2,1.39561924094251465098048282844755
73,2132.59840010804327029862939786854381,2131.2,1.39840010804327029862939786854381
74,2191.40114305172815143424202550628183,2190.0,1.40114305172815143424202550628183
75,2251.00384909314359026067343124900888,2249.6,1.40384909314359026067343124900888
76,2311.40651921271842012942158013128389,2310.0,1.40651921271842012942158013128389
77,2372.60915435230121023416529151670234,2371.2,1.40915435230121023416529151670234
78,2434.61175541715912572972670625662009,2433.2,1.41175541715912572972670625662009
79,2497.41432327784894391661262986305528,2496.0,1.41432327784894391661262986305528
80,2561.01685877196991900564461972180785,2559.6,1.41685877196991900564461972180785
81,2625.41936270580733863571114655051820,2624.0,1.41936270580733863571114655051820
82,2690.62183585587485386712157296410150,2689.2,1.42183585587485386712157296410150
83,2756.62427897036297563925202802221708,2755.2,1.42427897036297563925202802221708
84,2823.42669277050050638945713660236003,2822.0,1.42669277050050638945713660236003
85,2891.02907795183511625404784431226241,2889.6,1.42907795183511625404784431226241
86,2959.43143518543875740674620832348092,2958.0,1.43143518543875740674620832348092
87,3028.63376511904315261922822817823872,3027.2,1.43376511904315261922822817823872
88,3098.63606837811017075062998485844906,3097.2,1.43606837811017075062998485844906
89,3169.43834556684151837073086473888314,3168.0,1.43834556684151837073086473888314
90,3241.04059726913183350479837369288575,3239.6,1.44059726913183350479837369288575
91,3313.44282404946894603602834288826284,3312.0,1.44282404946894603602834288826284
92,3386.64502645378478100397514251258459,3385.2,1.44502645378478100397514251258459
93,3460.64720501026011878231091574961880,3459.2,1.44720501026011878231091574961880
94,3535.44936023008618319051471133920361,3534.0,1.44936023008618319051471133920361
95,3611.05149260818580744006340800773015,3609.6,1.45149260818580744006340800773015
96,3687.45360262389672599357978333314061,3686.0,1.45360262389672599357978333314061
97,3764.65569074161935607328364751949714,3763.2,1.45569074161935607328364751949714
98,3842.65775741143125968079701982209492,3841.2,1.45775741143125968079701982209492
99,3921.45980306967032351816543273005623,3920.0,1.45980306967032351816543273005623
100,4001.06182813948854785954115408524020,3999.6,1.46182813948854785954115408524020
101,4081.46383303137820611881980120675516,4080.0,1.46383303137820611881980120675516
102,4162.66581814367201128380065458642275,4161.2,1.46581814367201128380065458642275
103,4244.66778386301881747382806339398417,4243.2,1.46778386301881747382806339398417
104,4327.46973056483627761316109383491182,4326.0,1.46973056483627761316109383491182
105,4411.07165861374178513856140610224543,4409.6,1.47165861374178513856140610224543
106,4495.47356836396293689534587982132013,4494.0,1.47356836396293689534587982132013
107,4580.67546015972867629419494666496034,4579.2,1.47546015972867629419494666496034
108,4666.67733433564219656145323773865020,4665.2,1.47733433564219656145323773865020
109,4753.47919121703661532212506863431995,4752.0,1.47919121703661532212506863431995
110,4841.08103112031436933464207222727265,4839.6,1.48103112031436933464207222727265
111,4929.48285435327121233528194188938515,4928.0,1.48285435327121233528194188938515
112,5018.68466121540564951648365362991615,5017.2,1.48466121540564951648365362991615
113,5108.68645199821458662751051686016298,5107.2,1.48645199821458662751051686016298
114,5199.48822698547592292815605500493498,5198.0,1.48822698547592292815605500493498
115,5291.08998645351877677768518253509367,5289.6,1.48998645351877677768518253509367
116,5383.49173067148198430955485693892631,5382.0,1.49173067148198430955485693892631
117,5476.69345990156147992945169549410966,5475.2,1.49345990156147992945169549410966
118,5570.69517439924712634307847059728485,5569.2,1.49517439924712634307847059728485
119,5665.49687441354952810640504784303194,5664.0,1.49687441354952810640504784303194
120,5761.09856018721733684886445262623717,5759.6,1.49856018721733684886445262623717
121,5857.50023195694551805273044543884750,5856.0,1.50023195694551805273044543884750
122,5954.70188995357503035878026275403399,5953.2,1.50188995357503035878026275403399
123,6052.70353440228433617541417113400149,6051.2,1.50353440228433617541417113400149
124,6151.50516552277314468859478456262776,6150.0,1.50516552277314468859478456262776
125,6251.10678352943875880370607157712393,6249.6,1.50678352943875880370607157712393
126,6351.50838863154538235313441599127461,6350.0,1.50838863154538235313441599127461
127,6452.70998103338672332548764696029559,6451.2,1.50998103338672332548764696029559
128,6554.71156093444220628517815835100505,6553.2,1.51156093444220628517815835100505
129,6657.51312852952709507785805357280502,6656.0,1.51312852952709507785805357280502
130,6761.11468400893680853532702351043682,6759.6,1.51468400893680853532702351043682
131,6865.51622755858569648941565181201107,6864.0,1.51622755858569648941565181201107
132,6970.71775936014052842714608651978988,6969.2,1.51775936014052842714608651978988
133,7076.71927959114893533788774742937362,7075.2,1.51927959114893533788774742937362
134,7183.52078842516303402726748740811697,7182.0,1.52078842516303402726748740811697
135,7291.12228603185844506425056226018107,7289.6,1.52228603185844506425056226018107
136,7399.52377257714891184027867679437968,7398.0,1.52377257714891184027867679437968
137,7508.72524822329671491140790244284654,7507.2,1.52524822329671491140790244284654
138,7618.72671312901906218239842180911670,7617.2,1.52671312901906218239842180911670
139,7729.52816744959063338580265692974288,7728.0,1.52816744959063338580265692974288
140,7841.12961133694244186312998315546424,7839.6,1.52961133694244186312998315546424
141,7953.53104493975717209767621301252518,7952.0,1.53104493975717209767621301252518
142,8066.73246840356114337533924821109361,8065.2,1.53246840356114337533924821109361
143,8180.73388187081304129957261469021125,8179.2,1.53388187081304129957261469021125
144,8295.53528548098955170699202642472613,8294.0,1.53528548098955170699202642472613
145,8411.13667937066802734239069086044606,8409.6,1.53667937066802734239069086044606
146,8527.53806367360630978316845027305662,8526.0,1.53806367360630978316845027305662
147,8644.73943852081982090021365354423156,8643.2,1.53943852081982090021365354423156
148,8762.74080404065603918424337827433069,8761.2,1.54080404065603918424337827433069
149,8881.54216035886646273853350734507987,8880.0,1.54216035886646273853350734507987
150,9001.14350759867616257889265879365848,8999.6,1.54350759867616257889265879365848
151,9121.54484588085102215511061813307607,9120.0,1.54484588085102215511061813307607
152,9242.74617532376275339302689751850496,9241.2,1.54617532376275339302689751850496
153,9364.74749604345177820688870694789602,9363.2,1.54749604345177820688870694789602
154,9487.54880815368805938121534768758950,9486.0,1.54880815368805938121534768758950
155,9611.15011176602995905813655619083306,9609.6,1.55011176602995905813655619083306
156,9735.55140698988120269654215007644683,9734.0,1.55140698988120269654215007644683
157,9860.75269393254601954962016232925005,9859.2,1.55269393254601954962016232925005
158,9986.75397269928253147885848647857292,9985.2,1.55397269928253147885848647857292
159,10113.5552433933544537773168084005102,10112.0,1.5552433933544537773168084005102
160,10241.1565061160811743396800513109210,10239.6,1.5565061160811743396800513109210
161,10369.5577609668862696751857884266957,10368.0,1.5577609668862696751857884266957
162,10498.7590080433445172244984418832044,10497.2,1.5590080433445172244984418832044
163,10628.7602474412274588338010609084466,10627.2,1.5602474412274588338010609084466
164,10759.5614792545475700226712715704093,10758.0,1.5614792545475700226712715704093
165,10891.1627035756010836459305386189232,10889.6,1.5627035756010836459305386189232
166,11023.5639204950095184650268185628169,11022.0,1.5639204950095184650268185628169
167,11156.7651301017599598612418372119801,11155.2,1.5651301017599598612418372119801
168,11290.7663324832441353796079234324143,11289.2,1.5663324832441353796079234324143
169,11425.5675277252963301655964768574821,11424.0,1.5675277252963301655964768574821
170,11561.1687159122301820376655375503250,11559.6,1.5687159122301820376655375503250
171,11697.5698971268743963900985359534293,11696.0,1.5698971268743963900985359534293
172,11834.7710714506074187927639660542587,11833.2,1.5710714506074187927639660542587
173,11972.7722389633911006900980651417414,11971.2,1.5722389633911006900980651417414
174,12111.5733997438033940427962417346047,12110.0,1.5733997438033940427962417346047
175,12251.1745538690701088971177900534360,12249.6,1.5745538690701088971177900534360
176,12391.5757014150957635881281730798016,12390.0,1.5757014150957635881281730798016
177,12532.7768424564935608373880293769903,12531.2,1.5768424564935608373880293769903
178,12674.7779770666145188994565929597536,12673.2,1.5779770666145188994565929597536
179,12817.5791053175757842021268809720811,12816.0,1.5791053175757842021268809720811
180,12961.1802272802881564267631190502558,12959.6,1.5802272802881564267631190502558
181,13105.5813430244828486772981351696508,13104.0,1.5813430244828486772981351696508
182,13250.7824526187375104332474894902278,13249.2,1.5824526187375104332474894902278
183,13396.7835561305015363359858590214954,13395.2,1.5835561305015363359858590214954
184,13543.5846536261206850497931280981867,13542.0,1.5846536261206850497931280981867
185,13691.1857451708610300057649612721040,13689.6,1.5857451708610300057649612721040
186,13839.5868308289322629971783240911710,13838.0,1.5868308289322629971783240911710
187,13988.7879106635103744267808732588511,13987.2,1.5879106635103744267808732588511
188,14138.7889847367597256422895287458205,14137.2,1.5889847367597256422895287458205
189,14289.5900531098545370911570640849459,14288.0,1.5900531098545370911570640849459
190,14441.1911158429998079456523269402173,14439.6,1.5911158429998079456523269402173
191,14593.5921729954516864207733852228691,14592.0,1.5921729954516864207733852228691
192,14746.7932246255373071671636378866035,14745.2,1.5932246255373071671636378866035
193,14900.7942707906741140428450119563020,14899.2,1.5942707906741140428450119563020
194,15055.5953115473886816045166905376246,15054.0,1.5953115473886816045166905376246
195,15211.1963469513350532507432161581605,15209.6,1.5963469513350532507432161581605
196,15367.5973770573126097088965532412737,15366.0,1.5973770573126097088965532412737
197,15524.7984019192834822411372355301884,15523.2,1.5984019192834822411372355301884
198,15682.7994215903895247313776388727822,15681.2,1.5994215903895247313776388727822
199,15841.6004361229688574870448486740204,15840.0,1.6004361229688574870448486740204
200,16001.2014455685719966958059531468811,15999.6,1.6014455685719966958059531468811
201,16161.6024499779775805136365324481772,16160.0,1.6024499779775805136365324481772
202,16322.8034494012077051603458216893254,16321.2,1.6034494012077051603458216893254
203,16484.8044438875428816772423349363440,16483.2,1.6044438875428816772423349363440
204,16647.6054334855366249618036500868377,16646.0,1.6054334855366249618036500868377
205,16811.2064182430296850446643059170411,16809.6,1.6064182430296850446643059170411
206,16975.6073982071639336276209677775361,16974.0,1.6073982071639336276209677775361
207,17140.8083734243959117532822511721710,17139.2,1.6083734243959117532822511721710
208,17306.8093439405100528277700652285896,17305.2,1.6093439405100528277700652285896
209,17473.6103098006315867393021849413990,17472.0,1.6103098006315867393021849413990
210,17641.2112710492391365682572298106191,17639.6,1.6112710492391365682572298106191
211,17809.6122277301770152476805895599584,17808.0,1.6122277301770152476805895599584
212,17978.8131798866672324013556989562265,17977.2,1.6131798866672324013556989562265
213,18148.8141275613212157373307597307713,18147.2,1.6141275613212157373307597307713
214,18319.6150707961512619725867260652367,18318.0,1.6150707961512619725867260652367
215,18491.2160096325817164950734861656659,18489.6,1.6160096325817164950734861656659
216,18663.6169441114598957175671137029472,18662.0,1.6169441114598957175671137029472
217,18836.8178742730667560823857782822910,18835.2,1.6178742730667560823857782822910
218,19010.8188001571273186894097269494105,19009.2,1.6188001571273186894097269494105
219,19185.6197218028208528203365309595964,19184.0,1.6197218028208528203365309595964
220,19361.2206392487908308672945233961810,19359.6,1.6206392487908308672945233961810
221,19537.6215525331546525680994234280835,19536.0,1.6215525331546525680994234280835
222,19714.8224616935131557455147858436469,19713.2,1.6224616935131557455147858436469
223,19892.8233667669599071113422681117192,19891.2,1.6233667669599071113422681117192
224,20071.6242677900902881946348333513338,20070.0,1.6242677900902881946348333513338
225,20251.2251647990103789505705011379681,20249.6,1.6251647990103789505705011379681
226,20431.6260578293456425879218405382933,20430.0,1.6260578293456425879218405382933
227,20612.8269469162494202579626598103318,20611.2,1.6269469162494202579626598103318
228,20794.8278320944112374150058929649678,20793.2,1.6278320944112374150058929649678
229,20977.6287133980649290007105267456369,20976.0,1.6287133980649290007105267456369
230,21161.2295908609965881383887971907951,21159.6,1.6295908609965881383887971907951
231,21345.6304645165523401265706200667354,21344.0,1.6304645165523401265706200667354
232,21530.8313343976459521407327807318324,21529.2,1.6313343976459521407327807318324
233,21716.8322005367662736286837057012713,21715.2,1.6322005367662736286837057012713
234,21903.6330629659845235456560578484948,21902.0,1.6330629659845235456560578484948
235,22091.2339217169614176001935225657158,22089.6,1.6339217169614176001935225657158
236,22279.6347768209541452095859642854229,22278.0,1.6347768209541452095859642854229
237,22468.8356283088231997849660959710526,22467.2,1.6356283088231997849660959710526
238,22658.8364762110390640770641100946485,22657.2,1.6364762110390640770641100946485
