Eigenstate,Energy,Kinetic Energy,Potential Energy
1,0.500000000014813576938093445379088037,0.0,0.500000000014813576938093445379088037
2,1.84623093774780990637302922482095610,1.2,0.64623093774780990637302922482095610
3,3.93633760998900997071652000202475836,3.2,0.73633760998900997071652000202475836
4,6.79966527840584928036859013398505938,6.0,0.79966527840584928036859013398505938
5,10.4480465763104749633135504479741917,9.6,0.8480465763104749633135504479741917
6,14.8870659984560247819450005691973341,14.0,0.8870659984560247819450005691973341
7,20.1197208262799529639365664679176887,19.2,0.9197208262799529639365664679176887
8,26.1477838461588323508588496424893913,25.2,0.9477838461588323508588496424893913
9,32.9723835570987289682998704380533625,32.0,0.9723835570987289682998704380533625
10,40.5942802132480821360072335279410780,39.6,0.9942802132480821360072335279410780
11,49.0140093847478417149886208154359232,48.0,1.0140093847478417149886208154359232
12,58.2319621669025733080713237974527585,57.2,1.0319621669025733080713237974527585
13,68.2484326897780356691416892060580106,67.2,1.0484326897780356691416892060580106
14,79.0636476510573339503840351519887416,78.0,1.0636476510573339503840351519887416
15,90.6777854318550995911670161279035535,89.6,1.0777854318550995911670161279035535
16,103.090988901587932311914163650553862,102.0,1.090988901587932311914163650553862
17,116.303374251435902551069377180193060,115.2,1.103374251435902551069377180193060
18,130.315037245348749742373213514749836,129.2,1.115037245348749742373213514749836
19,145.126057743149859183171745066590674,144.0,1.126057743149859183171745066590674
20,160.736503038170197993939645886134074,159.6,1.136503038170197993939645886134074
21,177.146430363330011977933348201508780,176.0,1.146430363330011977933348201508780
22,194.355888802297565539348203864404482,193.2,1.155888802297565539348203864404482
23,212.364920767425666190402775199691593,211.2,1.164920767425666190402775199691593
24,231.173563157152086606744296318141884,230.0,1.173563157152086606744296318141884
25,250.781848272795490945469898368104712,249.6,1.181848272795490945469898368104712
26,271.189804552363022543098954876540741,270.0,1.189804552363022543098954876540741
27,292.397457163512879713223802959970746,291.2,1.197457163512879713223802959970746
28,314.404828486913355556856237887261176,313.2,1.204828486913355556856237887261176
29,337.211938513444789878638991644768792,336.0,1.211938513444789878638991644768792
30,360.818805173041393733949416735367743,359.6,1.218805173041393733949416735367743
31,385.225444608823968632664002188798575,384.0,1.225444608823968632664002188798575
32,410.431871407096642841221015206267440,409.2,1.231871407096642841221015206267440
33,436.438098791471099420928498181790684,435.2,1.238098791471099420928498181790684
34,463.244138787631224374643726901032546,462.0,1.244138787631224374643726901032546
35,490.850002363911908208512808757829674,489.6,1.250002363911908208512808757829674
36,519.255699551832255337118754289941602,518.0,1.255699551832255337118754289941602
37,548.461239549919371212037861388460625,547.2,1.261239549919371212037861388460625
38,578.466630813528478310798404793896427,577.2,1.266630813528478310798404793896427
39,609.271881132867263473826456291397334,608.0,1.271881132867263473826456291397334
40,640.876997701036538293506064177901874,639.6,1.276997701036538293506064177901874
41,673.281987173582543985830933566545987,672.0,1.281987173582543985830933566545987
42,706.486855720801239573676951577571312,705.2,1.286855720801239573676951577571312
43,740.491609073828425865855732765522561,739.2,1.291609073828425865855732765522561
44,775.296252565381463700644101521235459,774.0,1.296252565381463700644101521235459
45,810.900791165880775353519644563732237,809.6,1.300791165880775353519644563732237
46,847.305229515566181726265898806341315,846.0,1.305229515566181726265898806341315
47,884.509571953129651322301813169395015,883.2,1.309571953129651322301813169395015
48,922.513822541308450648860871439288316,921.2,1.313822541308450648860871439288316
49,961.317985089818023142764626304573835,960.0,1.317985089818023142764626304573835
50,1000.92206317594980100289543848224022,999.6,1.32206317594980100289543848224022
51,1041.32606016311368735001188047653827,1040.0,1.32606016311368735001188047653827
52,1082.52997921756660092026029013858764,1081.2,1.32997921756660092026029013858764
53,1124.53382332353602538019786549441055,1123.2,1.33382332353602538019786549441055
54,1167.33759529691994421969325167862323,1166.0,1.33759529691994421969325167862323
55,1210.94129779772106668656442523846194,1209.6,1.34129779772106668656442523846194
56,1255.34493334135317565669334505424379,1254.0,1.34493334135317565669334505424379
57,1300.54850430894022936824197338256367,1299.2,1.34850430894022936824197338256367
58,1346.55201295671405176230683149333875,1345.2,1.35201295671405176230683149333875
59,1393.35546142460369222507718309598627,1392.0,1.35546142460369222507718309598627
60,1440.95885174409851101886225055370665,1439.6,1.35885174409851101886225055370665
61,1489.36218584545748246185055937800037,1488.0,1.36218584545748246185055937800037
62,1538.56546556432890691135296205487457,1537.2,1.36546556432890691135296205487457
63,1588.56869264783748071626202808483491,1587.2,1.36869264783748071626202808483491
64,1639.37186876018936082453985459539789,1638.0,1.37186876018936082453985459539789
65,1690.97499548784032589157474675790350,1689.6,1.37499548784032589157474675790350
66,1743.37807434426728839619428397606867,1742.0,1.37807434426728839619428397606867
67,1796.58110677437914997979738115858274,1795.2,1.38110677437914997979738115858274
68,1850.58409415859923606326024147616968,1849.2,1.38409415859923606326024147616968
69,1905.38703781664823312554498506895106,1904.0,1.38703781664823312554498506895106
70,1960.98993901105362375967642027108109,1959.6,1.38993901105362375967642027108109
71,2017.39279895040901591802169259048152,2016.0,1.39279895040901591802169259048152
72,2074.59561879240446451642832345831401,2073.2,1.39561879240446451642832345831401
73,2132.59839964664683056037294426917697,2131.2,1.39839964664683056037294426917697
74,2191.40114257728740410772068242210474,2190.0,1.40114257728740410772068242210474
75,2251.00384860547238628159239763195410,2249.6,1.40384860547238628159239763195410
76,2311.40651871163037599008200507088087,2310.0,1.40651871163037599008200507088087
77,2372.60915383760970461114821438550329,2371.2,1.40915383760970461114821438550329
78,2434.61175488867729610282500985134994,2433.2,1.41175488867729610282500985134994
79,2497.41432273538968317890310550818614,2496.0,1.41432273538968317890310550818614
80,2561.01685821534587206459032439225620,2559.6,1.41685821534587206459032439225620
81,2625.41936213483089900518232488647022,2624.0,1.41936213483089900518232488647022
82,2690.62183527035816025022169866002244,2689.2,1.42183527035816025022169866002244
83,2756.62427837011790850183389534096081,2755.2,1.42427837011790850183389534096081
84,2823.42669215533868452421234814889689,2822.0,1.42669215533868452421234814889689
85,2891.02907732156789333505154868992747,2889.6,1.42907732156789333505154868992747
86,2959.43143453987721853433759378434807,2958.0,1.43143453987721853433759378434807
87,3028.63376445799811085510583819832417,3027.2,1.43376445799811085510583819832417
88,3098.63606770139216364303966680343420,3097.2,1.43606770139216364303966680343420
89,3169.43834487426080446962293106585155,3168.0,1.43834487426080446962293106585155
90,3241.04059656049838886682932508406511,3239.6,1.44059656049838886682932508406511
91,3313.44282332459246071928131782738285,3312.0,1.44282332459246071928131782738285
92,3386.64502571247465555227214968489780,3385.2,1.44502571247465555227214968489780
93,3460.64720425232546069898879213438444,3459.2,1.44720425232546069898879213438444
94,3535.44935945533580340153566651388241,3534.0,1.44935945533580340153566651388241
95,3611.05149181642821674632992514008349,3609.6,1.45149181642821674632992514008349
96,3687.45360181494013151232270514336303,3686.0,1.45360181494013151232270514336303
97,3764.65568991527165766839111840728817,3763.2,1.45568991527165766839111840728817
98,3842.65775656750004638195110053690125,3841.2,1.45775656750004638195110053690125
99,3921.45980220796286992865206477998094,3920.0,1.45980220796286992865206477998094
100,4001.06182725981181055259830280359538,3999.6,1.46182725981181055259830280359538
101,4081.46383213353882002238754003148664,4080.0,1.46383213353882002238754003148664
102,4162.66581722747628605353602977657549,4161.2,1.46581722747628605353602977657549
103,4244.66778292827273385424666782058433,4243.2,1.46778292827273385424666782058433
104,4327.46972961134548378676618395761641,4326.0,1.46972961134548378676618395761641
105,4411.07165764131159306282062292918612,4409.6,1.47165764131159306282062292918612
106,4495.47356737239831862737456122330272,4494.0,1.47356737239831862737456122330272
107,4580.67545914883426030300412867199587,4579.2,1.47545914883426030300412867199587
108,4666.67733330522226402761951158274980,4665.2,1.47733330522226402761951158274980
109,4753.47919016689509642473844059307056,4752.0,1.47919016689509642473844059307056
110,4841.08103005025483952538713216177424,4839.6,1.48103005025483952538713216177424
111,4929.48285326309688859950660950869616,4928.0,1.48285326309688859950660950869616
112,5018.68466010491938662110886695732987,5017.2,1.48466010491938662110886695732987
113,5108.68645086721887335563326707161990,5107.2,1.48645086721887335563326707161990
114,5199.48822583377287830019721295483450,5198.0,1.48822583377287830019721295483450
115,5291.08998528091014625893257079842403,5289.6,1.48998528091014625893257079842403
116,5383.49172947776913600395110684392837,5382.0,1.49172947776913600395110684392837
117,5476.69345868654540075947541956316358,5475.2,1.49345868654540075947541956316358
118,5570.69517316272841821556628973566631,5569.2,1.49517316272841821556628973566631
119,5665.49687315532840406416107910900263,5664.0,1.49687315532840406416107910900263
120,5761.09855890709361720790280785229644,5759.6,1.49855890709361720790280785229644
121,5857.50023065471862652499533920221276,5856.0,1.50023065471862652499533920221276
122,5954.70188862904399016018728602397967,5953.2,1.50188862904399016018728602397967
123,6052.70353305524776611905527620228743,6051.2,1.50353305524776611905527620228743
124,6151.50516415302925526294854255167037,6150.0,1.50516415302925526294854255167037
125,6251.10678213678534823569370264053836,6249.6,1.50678213678534823569370264053836
126,6351.50838721577983265586102053798150,6350.0,1.50838721577983265586102053798150
127,6452.70997959430599633050706564914483,6451.2,1.50997959430599633050706564914483
128,6554.71155947184283965911877487010402,6553.2,1.51155947184283965911877487010402
129,6657.51312704320519832324582594594620,6656.0,1.51312704320519832324582594594620
130,6761.11468249868805897544097172660712,6759.6,1.51468249868805897544097172660712
131,6865.51622602420533523700989561589032,6864.0,1.51622602420533523700989561589032
132,6970.71775780142335633687132575205872,6969.2,1.51775780142335633687132575205872
133,7076.71927800788930894224428588960362,7075.2,1.51927800788930894224428588960362
134,7183.52078681715486145592035859956831,7182.0,1.52078681715486145592035859956831
135,7291.12228439889518194653645486706057,7289.6,1.52228439889518194653645486706057
136,7399.52377091902355719073322858998211,7398.0,1.52377091902355719073322858998211
137,7508.72524653980180699814057423155589,7507.2,1.52524653980180699814057423155589
138,7618.72671141994667437814117989348874,7617.2,1.52671141994667437814117989348874
139,7729.52816571473237000145739805858865,7728.0,1.52816571473237000145739805858865
140,7841.12960957608943396363847131039080,7839.6,1.52960957608943396363847131039080
141,7953.53104315270007330003519955709150,7952.0,1.53104315270007330003519955709150
142,8066.73246659009012562858199292433372,8065.2,1.53246659009012562858199292433372
143,8180.73388003071779064653706677615542,8179.2,1.53388003071779064653706677615542
144,8295.53528361405926402769442055389708,8294.0,1.53528361405926402769442055389708
145,8411.13667747669140407882228854972980,8409.6,1.53667747669140407882228854972980
146,8527.53806175237155364533170109976314,8526.0,1.53806175237155364533170109976314
147,8644.73943657211463155321285229949400,8643.2,1.53943657211463155321285229949400
148,8762.74080206426760891624364622029175,8761.2,1.54080206426760891624364622029175
149,8881.54215835458147210940043965698698,8880.0,1.54215835458147210940043965698698
150,9001.14350556628077604932390709003309,8999.6,1.54350556628077604932390709003309
151,9121.54484382013088369606906677740158,9120.0,1.54484382013088369606906677740158
152,9242.74617323450298207528394565265918,9241.2,1.54617323450298207528394565265918
153,9364.74749392543696377048462997001063,9363.2,1.54749392543696377048462997001063
154,9487.54880600670225778464253741292816,9486.0,1.54880600670225778464253741292816
155,9611.15010958985668800704983993485558,9609.6,1.55010958985668800704983993485558
156,9735.55140478430343715179899849129452,9734.0,1.55140478430343715179899849129452
157,9860.75269169734618721445232607488052,9859.2,1.55269169734618721445232607488052
158,9986.75397043424250826497496762553990,9985.2,1.55397043424250826497496762553990
159,10113.5552410982555592497367224026704,10112.0,1.5552410982555592497367224026704
160,10241.1565037907041671400924318718159,10239.6,1.5565037907041671400924318718159
161,10369.5577586110113429236318340487375,10368.0,1.5577586110113429236318340487375
162,10498.7590056567512938991702784530426,10497.2,1.5590056567512938991702784530426
163,10628.7602450236949871287495907990185,10627.2,1.5602450236949871287495907990185
164,10759.5614768058543186832139991216750,10758.0,1.5614768058543186832139991216750
165,10891.1627010955249372815487403764493,10889.6,1.5627010955249372815487403764493
166,11023.5639179833277728395400559536576,11022.0,1.5639179833277728395400559536576
167,11156.7651275582493171600459254105270,11155.2,1.5651275582493171600459254105270
168,11290.7663299076806994537609799805219,11289.2,1.5663299076806994537609799805219
169,11425.5675251174556017525361721526646,11424.0,1.5675251174556017525361721526646
170,11561.1687132718870539583387120584078,11559.6,1.5687132718870539583387120584078
171,11697.5698944538031487222830494875965,11696.0,1.5698944538031487222830494875965
172,11834.7710687445817140203606402065923,11833.2,1.5710687445817140203606402065923
173,11972.7722362241839788281691535728478,11971.2,1.5722362241839788281691535728478
174,12111.5733969711872677381249314593103,12110.0,1.5733969711872677381249314593103
175,12251.1745510628167585040615731371574,12249.6,1.5745510628167585040615731371574
176,12391.5756985749763322195372232828674,12390.0,1.5756985749763322195372232828674
177,12532.7768395822785493903578513979964,12531.2,1.5768395822785493903578513979964
178,12674.7779741580737810556824716900031,12673.2,1.5779741580737810556824716900031
179,12817.5791023744785214026258401644212,12816.0,1.5791023744785214026258401644212
180,12961.1802243024029128207272553817385,12959.6,1.5802243024029128207272553817385
181,13105.5813400115775060448412789434913,13104.0,1.5813400115775060448412789434913
182,13250.7824495705792830818053942192433,13249.2,1.5824495705792830818053942192433
183,13396.7835530468569659701281315970444,13395.2,1.5835530468569659701281315970444
184,13543.5846505067556356142032047471866,13542.0,1.5846505067556356142032047471866
185,13691.1857420155406825011424308092475,13689.6,1.5857420155406825011424308092475
186,13839.5868276374211102688162046202959,13838.0,1.5868276374211102688162046202959
187,13988.7879074355722159255680810119623,13987.2,1.5879074355722159255680810119623
188,14138.7889814721576621578870990289170,14137.2,1.5889814721576621578870990289170
189,14289.5900498083509654570944949462006,14288.0,1.5900498083509654570944949462006
190,14441.1911125043564157160883819669339,14439.6,1.5911125043564157160883819669339
191,14593.5921696194294465186637185947444,14592.0,1.5921696194294465186637185947444
192,14746.7932212118964725035753571983359,14745.2,1.5932212118964725035753571983359
193,14900.7942673391742121071563267202757,14899.2,1.5942673391742121071563267202757
194,15055.5953080577885090252375727641144,15054.0,1.5953080577885090252375727641144
195,15211.1963434233926703266908786417497,15209.6,1.5963434233926703266908786417497
196,15367.5973734907853349104573321796355,15366.0,1.5973734907853349104573321796355
197,15524.7983983139278866813442881841527,15523.2,1.5983983139278866813442881841527
198,15682.7994179459614266065316289480821,15681.2,1.5994179459614266065316289480821
199,15841.6004324392233164866024640243150,15840.0,1.6004324392233164866024640243150
200,16001.2014418452633083812589392163060,15999.6,1.6014418452633083812589392163060
201,16161.6024462148592706661016133742938,16160.0,1.6024462148592706661016133742938
202,16322.8034455980325240965833262101250,16321.2,1.6034455980325240965833262101250
203,16484.8044400440627985338192999030269,16483.2,1.6044400440627985338192999030269
204,16647.6054296015028219471145638549395,16646.0,1.6054296015028219471145638549395
205,16811.2064143181925516585204206649376,16809.6,1.6064143181925516585204206649376
206,16975.6073942412730608481164553534188,16974.0,1.6073942412730608481164553534188
207,17140.8083694172000861906432277288725,17139.2,1.6083694172000861906432277288725
208,17306.8093398917572508448898993412172,17305.2,1.6093398917572508448898993412172
209,17473.6103057100689685386639898339482,17472.0,1.6103057100689685386639898339482
210,17641.2112669166130402449419334717219,17639.6,1.6112669166130402449419334717219
211,17809.6122235552329508081564382679242,17808.0,1.6122235552329508081564382679242
212,17978.8131756691498757477423558026288,17977.2,1.6131756691498757477423558026288
213,18148.8141233009744026168285776202931,18147.2,1.6141233009744026168285776202931
214,18319.6150664927179818917591240592215,18318.0,1.6150664927179818917591240592215
215,18491.2160052858041065986676617294899,18489.6,1.6160052858041065986676617294899
216,18663.6169397210792346315555501007405,18662.0,1.6169397210792346315555501007405
217,18836.8178698388234577209084252879494,18835.2,1.6178698388234577209084252879494
218,19010.8187956787609260252937575886426,19009.2,1.6187956787609260252937575886426
219,19185.6197172800700316188678356413361,19184.0,1.6197172800700316188678356413361
220,19361.2206346813933633829123256640634,19359.6,1.6206346813933633829123256640634
221,19537.6215479208474312036825115958444,19536.0,1.6215479208474312036825115958444
222,19714.8224570360321766739248058704400,19713.2,1.6224570360321766739248058704400
223,19892.8233620640402638588868260628808,19891.2,1.6233620640402638588868260628808
224,20071.6242630414661651861100998888251,20070.0,1.6242630414661651861100998888251
225,20251.2251600044150450155397588162037,20249.6,1.6251600044150450155397588162037
226,20431.6260529885114444278838498521804,20430.0,1.6260529885114444278838498521804
227,20612.8269420289077758740603038898939,20611.2,1.6269420289077758740603038898939
228,20794.8278271602926294959225151405032,20793.2,1.6278271602926294959225151405032
229,20977.6287084168988982703983809802910,20976.0,1.6287084168988982703983809802910
230,21161.2295858325117266632706675941529,21159.6,1.6295858325117266632706675941529
231,21345.6304594404762845818526642012666,21344.0,1.6304594404762845818526642012666
232,21530.8313292737053770354632237580834,21529.2,1.6313292737053770354632237580834
233,21716.8321953646868844891888088474200,21715.2,1.6321953646868844891888088474200
234,21903.6330577454910500569815433999310,21902.0,1.6330577454910500569815433999310
235,22091.2339164477776067051761486111384,22089.6,1.6339164477776067051761486111384
236,22279.6347715028027541651767476946881,22278.0,1.6347715028027541651767476946881
237,22468.8356229414259891754229811820297,22467.2,1.6356229414259891754229811820297
238,22658.8364707941167907836285879257052,22657.2,1.6364707941167907836285879257052
