Eigenstate,Energy,Kinetic Energy,Potential Energy
1,0.500000000206066570122755197854767111,0.0,0.500000000206066570122755197854767111
2,1.84623093899621937758056616941465716,1.2,0.64623093899621937758056616941465716
3,3.93633761365615584649627857601052249,3.2,0.73633761365615584649627857601052249
4,6.79966528604422036730088038909349902,6.0,0.79966528604422036730088038909349902
5,10.4480465895419725957835749673454384,9.6,0.8480465895419725957835749673454384
6,14.8870660189311103771037424922008875,14.0,0.8870660189311103771037424922008875
7,20.1197208556626221954861270185826260,19.2,0.9197208556626221954861270185826260
8,26.1477838861203731562953559302495086,25.2,0.9477838861203731562953559302495086
9,32.9723836093148414421257698875076791,32.0,0.9723836093148414421257698875076791
10,40.5942802793974374244879187392905230,39.6,0.9942802793974374244879187392905230
11,49.0140094665113183613606401200402629,48.0,1.0140094665113183613606401200402629
12,58.2319622659628388506184838241592820,57.2,1.0319622659628388506184838241592820
13,68.2484328078193162310333730036733374,67.2,1.0484328078193162310333730036733374
14,79.0636477897652920543797341073572500,78.0,1.0636477897652920543797341073572500
15,90.6777855929167773001799611741932901,89.6,1.0777855929167773001799611741932901
16,103.090989086691735440441980515777227,102.0,1.090989086691735440441980515777227
17,116.303374462271611629587368078377965,115.2,1.103374462271611629587368078377965
18,130.315037483607548960280459336296559,129.2,1.115037483607548960280459336296559
19,145.126058010524377754127467374954119,144.0,1.126058010524377754127467374954119
20,160.736503336354560322490994758693211,159.6,1.136503336354560322490994758693211
21,177.146430694019894206599833086747384,176.0,1.146430694019894206599833086747384
22,194.355889167190256820748819353212026,193.2,1.155889167190256820748819353212026
23,212.364921168220133529415886140228251,211.2,1.164921168220133529415886140228251
24,231.173563595549042452248359193122492,230.0,1.173563595549042452248359193122492
25,250.781848750497462939475222705775204,249.6,1.181848750497462939475222705775204
26,271.189805071074424993719188196935441,270.0,1.189805071074424993719188196935441
27,292.397457724940086470060893284044104,291.2,1.197457724940086470060893284044104
28,314.404829092764774047855793898666650,313.2,1.204829092764774047855793898666650
29,337.211939165430936126070663481853751,336.0,1.211939165430936126070663481853751
30,360.818805872874968210393960380494528,359.6,1.218805872874968210393960380494528
31,385.225445358219932850167341382303543,384.0,1.225445358219932850167341382303543
32,410.431872207772296591152576873482258,409.2,1.231872207772296591152576873482258
33,436.438099645146158600686296560643856,435.2,1.238099645146158600686296560643856
34,463.244139696027899351689353315459872,462.0,1.244139696027899351689353315459872
35,490.850003328754982683376436190122502,489.6,1.250003328754982683376436190122502
36,519.255700574849165675770329644120774,518.0,1.255700574849165675770329644120774
37,548.461240632840286224950318374116644,547.2,1.261240632840286224950318374116644
38,578.466631958086379461555679578695569,577.2,1.266631958086379461555679578695569
39,609.271882340798025504571273795844132,608.0,1.271882340798025504571273795844132
40,640.876998974079010258118584813503210,639.6,1.276998974079010258118584813503210
41,673.281988513478630684660898586909870,672.0,1.281988513478630684660898586909870
42,706.486857129295983386058377039543741,705.2,1.286857129295983386058377039543741
43,740.491610552670088978621765328110070,739.2,1.291610552670088978621765328110070
44,775.296254116321610732513406897014655,774.0,1.296254116321610732513406897014655
45,810.900792790674356376610503166624825,809.6,1.300792790674356376610503166624825
46,847.305231215971615687161200398788479,846.0,1.305231215971615687161200398788479
47,884.509573730908909866077697006154621,883.2,1.309573730908909866077697006154621
48,922.513824398227142350337148123262340,921.2,1.313824398227142350337148123262340
49,961.317987027645478149961387443415681,960.0,1.317987027645478149961387443415681
50,1000.92206519645915609830886983029762,999.6,1.32206519645915609830886983029762
51,1041.32606226808197143587052875353029,1040.0,1.32606226808197143587052875353029
52,1082.52998140877482093440364736389834,1081.2,1.32998140877482093440364736389834
53,1124.53382560276925264964428511438582,1123.2,1.33382560276925264964428511438582
54,1167.33759766596740125934308121606401,1166.0,1.33759766596740125934308121606401
55,1210.94130025837621445082381653218498,1209.6,1.34130025837621445082381653218498
56,1255.34493589541380125211159052264815,1254.0,1.34493589541380125211159052264815
57,1300.54850695820853423553479032790951,1299.2,1.34850695820853423553479032790951
58,1346.55201570299674033639574213366088,1345.2,1.35201570299674033639574213366088
59,1393.35546426971206108201200078287591,1392.0,1.35546426971206108201200078287591
60,1440.95885468984853851871579594980864,1439.6,1.35885468984853851871579594980864
61,1489.36218889366991889688242963892752,1488.0,1.36218889366991889688242963892752
62,1538.56546871682936516893618107105770,1537.2,1.36546871682936516893618107105770
63,1588.56869590645652746625313532818553,1587.2,1.36869590645652746625313532818553
64,1639.37187212676260824095217575488080,1638.0,1.37187212676260824095217575488080
65,1690.97499896420852391858786934568375,1689.6,1.37499896420852391858786934568375
66,1743.37807793227641756869955957192656,1742.0,1.37807793227641756869955957192656
67,1796.58111047588051480884244808037095,1795.2,1.38111047588051480884244808037095
68,1850.58409797544955899691506496880389,1849.2,1.38409797544955899691506496880389
69,1905.38704175070974909586953580803341,1904.0,1.38704175070974909586953580803341
70,1960.98994306419417532662328796537137,1959.6,1.38994306419417532662328796537137
71,2017.39280312450214902126239145119611,2016.0,1.39280312450214902126239145119611
72,2074.59562308932952484624244011302842,2073.2,1.39562308932952484624244011302842
73,2132.59840406828906055889297288140669,2131.2,1.39840406828906055889297288140669
74,2191.40114712553804061197590832323233,2190.0,1.40114712553804061197590832323233
75,2251.00385328222875881994840302338355,2249.6,1.40385328222875881994840302338355
76,2311.40652351879600574382373616886060,2310.0,1.40652351879600574382373616886060
77,2372.60915877709440405310917678448163,2371.2,1.40915877709440405310917678448163
78,2434.61175996239726932511917321660239,2433.2,1.41175996239726932511917321660239
79,2497.41432794526762692197253044311812,2496.0,1.41432794526762692197253044311812
80,2561.01686356331107745993816618446245,2559.6,1.41686356331107745993816618446245
81,2625.41936762281935404432106079357939,2624.0,1.41936762281935404432106079357939
82,2690.62184090031265299252692759223601,2689.2,1.42184090031265299252692759223601
83,2756.62428414398813103415748114678280,2755.2,1.42428414398813103415748114678280
84,2823.42669807508133768527418580519899,2822.0,1.42669807508133768527418580519899
85,2891.02908338914679221779695973477891,2889.6,1.42908338914679221779695973477891
86,2959.43144075726339877961746079843270,2958.0,1.43144075726339877961746079843270
87,3028.63377082716993575021019033504298,3027.2,1.43377082716993575021019033504298
88,3098.63607422433543203879048495464931,3097.2,1.43607422433543203879048495464931
89,3169.43835155296885952991089103875872,3168.0,1.43835155296885952991089103875872
90,3241.04060339697222766466022638452876,3239.6,1.44060339697222766466022638452876
91,3313.44283032084084469358357948672731,3312.0,1.44283032084084469358357948672731
92,3386.64503287051422183990342551266487,3385.2,1.44503287051422183990342551266487
93,3460.64721157418083435657170305910702,3459.2,1.44721157418083435657170305910702
94,3535.44936694303971053194674062451756,3534.0,1.44936694303971053194674062451756
95,3611.05149947202159854486411510972376,3609.6,1.45149947202159854486411510972376
96,3687.45360964047225924775669167212460,3686.0,1.45360964047225924775669167212460
97,3764.65569791280024861437528777156837,3763.2,1.45569791280024861437528777156837
98,3842.65776473909138071436717295178895,3841.2,1.45776473909138071436717295178895
99,3921.45981055569190860478809343712146,3920.0,1.45981055569190860478809343712146
100,4001.06183578576231418820815273012640,3999.6,1.46183578576231418820815273012640
101,4081.46384083980346878292388077626154,4080.0,1.46384083980346878292388077626154
102,4162.66582611615680057607016309611727,4161.2,1.46582611615680057607016309611727
103,4244.66779200147999721681780542576120,4243.2,1.46779200147999721681780542576120
104,4327.46973887119966454213738657449811,4326.0,1.46973887119966454213738657449811
105,4411.07166708994226935385523643123718,4409.6,1.47166708994226935385523643123718
106,4495.47357701194460340149052402973973,4494.0,1.47357701194460340149052402973973
107,4580.67546898144492764341044988906039,4579.2,1.47546898144492764341044988906039
108,4666.67734333305587661929079512776189,4665.2,1.47734333305587661929079512776189
109,4753.47920039212013417334087905347363,4752.0,1.47920039212013417334087905347363
110,4841.08104047504982934763025658658047,4839.6,1.48104047504982934763025658658047
111,4929.48286388965053540366223958639323,4928.0,1.48286388965053540366223958639323
112,5018.68467093543070549671052267535718,5017.2,1.48467093543070549671052267535718
113,5108.68646190389732299164635209212516,5107.2,1.48646190389732299164635209212516
114,5199.48823707883849565123278155176004,5198.0,1.48823707883849565123278155176004
115,5291.08999673659368247936558599419330,5289.6,1.48999673659368247936558599419330
116,5383.49174114631219367009758566893362,5382.0,1.49174114631219367009758566893362
117,5476.69347057020057240028172022579410,5475.2,1.49347057020057240028172022579410
118,5570.69518526375942617256976917290317,5569.2,1.49518526375942617256976917290317
119,5665.49688547601024170179139866361666,5664.0,1.49688547601024170179139866361666
120,5761.09857144971269149551094170285636,5759.6,1.49857144971269149551094170285636
121,5857.50024342157290201232064784834153,5856.0,1.50024342157290201232064784834153
122,5954.70190162244313436830207370065678,5953.2,1.50190162244313436830207370065678
123,6052.70354627751329636916318001683288,6051.2,1.50354627751329636916318001683288
124,6151.50517760649468696575491253518451,6150.0,1.50517760649468696575491253518451
125,6251.10679582379634466441632984282917,6249.6,1.50679582379634466441632984282917
126,6351.50840113869435622630578400616094,6350.0,1.50840113869435622630578400616094
127,6452.70999375549446141199578185505024,6451.2,1.50999375549446141199578185505024
128,6554.71157387368826694042807390784118,6553.2,1.51157387368826694042807390784118
129,6657.51314168810337075809293798069242,6656.0,1.51314168810337075809293798069242
130,6761.11469738904767933243769047927515,6759.6,1.51469738904767933243769047927515
131,6865.51624116244818527939943548886389,6864.0,1.51624116244818527939943548886389
132,6970.71777318998445765776372239786459,6969.2,1.51777318998445765776372239786459
133,7076.71929364921708548147349429405609,7075.2,1.51929364921708548147349429405609
134,7183.52080271371130372506444093484873,7182.0,1.52080271371130372506444093484873
135,7291.12230055315601298906730980878808,7289.6,1.52230055315601298906730980878808
136,7399.52378733347840030469492041358730,7398.0,1.52378733347840030469492041358730
137,7508.72526321695435524919951273216962,7507.2,1.52526321695435524919951273216962
138,7618.72672836231486193130063064729596,7617.2,1.52672836231486193130063064729596
139,7729.52818292484854530019087840763845,7728.0,1.52818292484854530019087840763845
140,7841.12962705650053478566574414261909,7839.6,1.52962705650053478566574414261909
141,7953.53106090596780371944244920872438,7952.0,1.53106090596780371944244920872438
142,8066.73248461879113491447800714715421,8065.2,1.53248461879113491447800714715421
143,8180.73389833744385412893544335565511,8179.2,1.53389833744385412893544335565511
144,8295.53530220141746596182021321729584,8294.0,1.53530220141746596182021321729584
145,8411.13669634730432253956013356530431,8409.6,1.53669634730432253956013356530431
146,8527.53808090887744748406345912611581,8526.0,1.53808090887744748406345912611581
147,8644.73945601716762944983209737079218,8643.2,1.53945601716762944983209737079218
148,8762.74082180053790055968541448577537,8761.2,1.54082180053790055968541448577537
149,8881.54217838475550154058867867357238,8880.0,1.54217838475550154058867867357238
150,9001.14352589306143720101160731639455,8999.6,1.54352589306143720101160731639455
151,9121.54486444623771816463368467614589,9120.0,1.54486444623771816463368467614589
152,9242.74619416267237916013734965424285,9241.2,1.54619416267237916013734965424285
153,9364.74751515842236281736828049325092,9363.2,1.54751515842236281736828049325092
154,9487.54882754727435286970059228082390,9486.0,1.54882754727435286970059228082390
155,9611.15013144080363499920923866068533,9609.6,1.55013144080363499920923866068533
156,9735.55142694843106319163511062502203,9734.0,1.55142694843106319163511062502203
157,9860.75271417747820264838004828098391,9859.2,1.55271417747820264838004828098391
158,9986.75399323322072107428282670056545,9985.2,1.55399323322072107428282670056545
159,10113.5552642189400920146703784154835,10112.0,1.5552642189400920146703784154835
160,10241.1565272359736765799005665360130,10239.6,1.5565272359736765799005665360130
161,10369.5577823837632420542058623572214,10368.0,1.5577823837632420542058623572214
162,10498.7590297599019768506444878310163,10497.2,1.5590297599019768506444878310163
163,10628.7602694601800566661780520084266,10627.2,1.5602694601800566661780520084266
164,10759.5615015786288164742074160392888,10758.0,1.5615015786288164742074160392888
165,10891.1627262075635769555363638446754,10889.6,1.5627262075635769555363638446754
166,11023.5639434376251758841199851726591,11022.0,1.5639434376251758841199851726591
167,11156.7651533578202517007033803811632,11155.2,1.5651533578202517007033803811632
168,11290.7663560555603219640677362746750,11289.2,1.5663560555603219640677362746750
169,11425.5675516166997017427937785158548,11424.0,1.5675516166997017427937785158548
170,11561.1687401255723016914994934141367,11559.6,1.5687401255723016914994934141367
171,11697.5699216650273460068681824932520,11696.0,1.5699216650273460068681824932520
172,11834.7710963164640481310034655379208,11833.2,1.5710963164640481310034655379208
173,11972.7722641598652796053360157262786,11971.2,1.5722641598652796053360157262786
174,12111.5734252738302679195150083373135,12110.0,1.5734252738302679195150083373135
175,12251.1745797356063573411516773957111,12249.6,1.5745797356063573411516773957111
176,12391.5757276211198624337263452546581,12390.0,1.5757276211198624337263452546581
177,12532.7768690050060475241754432592752,12531.2,1.5768690050060475241754432592752
178,12674.7780039606382612755557276319564,12673.2,1.5780039606382612755557276319564
179,12817.5791325601562528107547863243355,12816.0,1.5791325601562528107547863243355
180,12961.1802548744937003346945758608133,12959.6,1.5802548744937003346945758608133
181,13105.5813709734049749046826154481144,13104.0,1.5813709734049749046826154481144
182,13250.7824809254911670453921215268925,13249.2,1.5824809254911670453921215268925
183,13396.7835847982253992588642369470192,13395.2,1.5835847982253992588642369470192
184,13543.5846826579774486722120027052388,13542.0,1.5846826579774486722120027052388
185,13691.1857745700377016323225281522300,13689.6,1.5857745700377016323225281522300
186,13839.5868605986404612173701284819368,13838.0,1.5868605986404612173701284819368
187,13988.7879408069866314668667595891127,13987.2,1.5879408069866314668667595891127
188,14138.7890152572657937678139465777745,14137.2,1.5890152572657937678139465777745
189,14289.5900840106776991293265708381133,14288.0,1.5900840106776991293265708381133
190,14441.1911471274531919981129259745945,14439.6,1.5911471274531919981129259745945
191,14593.5922046668745848387016866662330,14592.0,1.5922046668745848387016866662330
192,14746.7932566872954998619855843799481,14745.2,1.5932566872954998619855843799481
193,14900.7943032461601962073298346734142,14899.2,1.5943032461601962073298346734142
194,15055.5953444000223959204580243087845,15054.0,1.5953444000223959204580243087845
195,15211.1963802045636266609394303447788,15209.6,1.5963802045636266609394303447788
196,15367.5974107146110948326745699096511,15366.0,1.5974107146110948326745699096511
197,15524.7984359841551035142332565384106,15523.2,1.5984359841551035142332565384106
198,15682.7994560663660293525917885162791,15681.2,1.5994560663660293525917885162791
199,15841.6004710136108712557298011263394,15840.0,1.6004710136108712557298011263394
200,16001.2014808774693848259272251898616,15999.6,1.6014808774693848259272251898616
201,16161.6024857087498135118608442962430,16160.0,1.6024857087498135118608442962430
202,16322.8034855575042298573751328774769,16321.2,1.6034855575042298573751328774769
203,16484.8044804730434975034061155441330,16483.2,1.6044804730434975034061155441330
204,16647.6054705039518655597680354853870,16646.0,1.6054705039518655597680354853870
205,16811.2064556981012053139974283506302,16809.6,1.6064556981012053139974283506302
206,16975.6074361026649022978870784422576,16974.0,1.6074361026649022978870784422576
207,17140.8084117641314095843086475217949,17139.2,1.6084117641314095843086475217949
208,17306.8093827283174765377544211242889,17305.2,1.6093827283174765377544211242889
209,17473.6103490403810587634966306016957,17472.0,1.6103490403810587634966306016957
210,17641.2113107448339207530848424434561,17639.6,1.6113107448339207530848424434561
211,17809.6122678855539385873080572816583,17808.0,1.6122678855539385873080572816583
212,17978.8132205057971129259687854181348,17977.2,1.6132205057971129259687854181348
213,18148.8141686482092966646338468430127,18147.2,1.6141686482092966646338468430127
214,18319.6151123548376522363764409477369,18318.0,1.6151123548376522363764409477369
215,18491.2160516671418377671232501441565,18489.6,1.6160516671418377671232501441565
216,18663.6169866260049360415027895045636,18662.0,1.6169866260049360415027895045636
217,18836.8179172717441302407360402859993,18835.2,1.6179172717441302407360402859993
218,19010.8188436441211354275783119790920,19009.2,1.6188436441211354275783119790920
219,19185.6197657823523890538725819394137,19184.0,1.6197657823523890538725819394137
220,19361.2206837251190130015259340468877,19359.6,1.6206837251190130015259340468877
221,19537.6215975105765450619546166505183,19536.0,1.6215975105765450619546166505183
222,19714.8225071763644570541820117255250,19713.2,1.6225071763644570541820117255250
223,19892.8234127596154531453131459213707,19891.2,1.6234127596154531453131459213707
224,20071.6243142969645634356454882547161,20070.0,1.6243142969645634356454882547161
225,20251.2252118245580353679966218459493,20249.6,1.6252118245580353679966218459493
226,20431.6261053780620265023012749963240,20430.0,1.6261053780620265023012749963240
227,20612.8269949926711073015144690865566,20611.2,1.6269949926711073015144690865566
228,20794.8278807031165757422936658788173,20793.2,1.6278807031165757422936658788173
229,20977.6287625436745909059548307021938,20976.0,1.6287625436745909059548307021938
230,21161.2296405481741302393789556061395,21159.6,1.6296405481741302393789556061395
231,21345.6305147500047722786581088602618,21344.0,1.6305147500047722786581088602618
232,21530.8313851821243152480101177279198,21529.2,1.6313851821243152480101177279198
233,21716.8322518770662265231667641595502,21715.2,1.6322518770662265231667641595502
234,21903.6331148669469391090998007254199,21902.0,1.6331148669469391090998007254199
235,22091.2339741834729883070755493110372,22089.6,1.6339741834729883070755493110372
236,22279.6348298579479982738034898347397,22278.0,1.6348298579479982738034898347397
237,22468.8356819212795220969051487629941,22467.2,1.6356819212795220969051487629941
238,22658.8365304039857371219167141171260,22657.2,1.6365304039857371219167141171260
