Eigenstate,Energy,Kinetic Energy,Potential Energy
1,0.500000000019720368445069902464197018,0.0,0.500000000019720368445069902464197018
2,1.84623093777983884497432375880236425,1.2,0.64623093777983884497432375880236425
3,3.93633761008309221446656415989084579,3.2,0.73633761008309221446656415989084579
4,6.79966527860181134072906877434380121,6.0,0.79966527860181134072906877434380121
5,10.4480465766499202257756207550971970,9.6,0.8480465766499202257756207550971970
6,14.8870659989812840255577255054169088,14.0,0.8870659989812840255577255054169088
7,20.1197208270336974876490299894944280,19.2,0.9197208270336974876490299894944280
8,26.1477838471839124564530433908151891,25.2,0.9477838471839124564530433908151891
9,32.9723835584380986942669586015583486,32.0,0.9723835584380986942669586015583486
10,40.5942802149447609087658051302389519,39.6,0.9942802149447609087658051302389519
11,49.0140093868448933790042759401364008,48.0,1.0140093868448933790042759401364008
12,58.2319621694430940119076384677496201,57.2,1.0319621694430940119076384677496201
13,68.2484326928051465726224742042664692,67.2,1.0484326928051465726224742042664692
14,79.0636476546141767062229684486291434,78.0,1.0636476546141767062229684486291434
15,90.6777854359848335002923203015821736,89.6,1.0777854359848335002923203015821736
16,103.090988906333732530038991961612334,102.0,1.090988906333732530038991961612334
17,116.303374256840958978998773229133357,115.2,1.103374256840958978998773229133357
18,130.315037251456266374758141686751256,129.2,1.115037251456266374758141686751256
19,145.126057750003053772984767300802676,144.0,1.126057750003053772984767300802676
20,160.736503045812301939590220288023123,159.6,1.136503045812301939590220288023123
21,177.146430371804270370732577612055163,176.0,1.146430371804270370732577612055163
22,194.355888811647237328668698247810922,193.2,1.155888811647237328668698247810922
23,212.364920777694024436716087643761272,211.2,1.164920777694024436716087643761272
24,231.173563168382418801300396568869779,230.0,1.173563168382418801300396568869779
25,250.781848285031099381238132271188010,249.6,1.181848285031099381238132271188010
26,271.189804565647224725658731233690137,270.0,1.189804565647224725658731233690137
27,292.397457177889008803168738556642128,291.2,1.197457177889008803168738556642128
28,314.404828502424760837339202773685476,313.2,1.204828502424760837339202773685476
29,337.211938530134837243187724615110177,336.0,1.211938530134837243187724615110177
30,360.818805190953466190790261952424946,359.6,1.218805190953466190790261952424946
31,385.225444628001466822618296786349793,384.0,1.225444628001466822618296786349793
32,410.431871427582985566862897759060951,409.2,1.231871427582985566862897759060951
33,436.438098813309724185169045896358769,435.2,1.238098813309724185169045896358769
34,463.244138810865587927273035771434886,462.0,1.244138810865587927273035771434886
35,490.850002388585487099516625765579441,489.6,1.250002388585487099516625765579441
36,519.255699577988546475809638429605901,518.0,1.255699577988546475809638429605901
37,548.461239577601892431217328144411858,547.2,1.261239577601892431217328144411858
38,578.466630842780768935306964742141858,577.2,1.266630842780768935306964742141858
39,609.271881163732884892951045560893694,608.0,1.271881163732884892951045560893694
40,640.876997733559074536805210666865885,639.6,1.276997733559074536805210666865885
41,673.281987207805602302011754698675302,672.0,1.281987207805602302011754698675302
42,706.486855756768451012218326587291222,705.2,1.286855756768451012218326587291222
43,740.491609111583445861121468886472856,739.2,1.291609111583445861121468886472856
44,775.296252604967972658270767095192499,774.0,1.296252604967972658270767095192499
45,810.900791207342479238897643856562233,809.6,1.300791207342479238897643856562233
46,847.305229558946812654960643293540017,846.0,1.305229558946812654960643293540017
47,884.509571998472968152285518784767011,883.2,1.309571998472968152285518784767011
48,922.513822588658239574445444304334278,921.2,1.313822588658239574445444304334278
49,961.317985139218098290142936363914564,960.0,1.317985139218098290142936363914564
50,1000.92206322744400502721255222282219,999.6,1.32206322744400502721255222282219
51,1041.32606021674589203389999942615639,1040.0,1.32606021674589203389999942615639
52,1082.52997927338070777378152728580041,1081.2,1.32997927338070777378152728580041
53,1124.53382338157596624214790532207982,1123.2,1.33382338157596624214790532207982
54,1167.33759535722968186022661859050998,1166.0,1.33759535722968186022661859050998
55,1210.94129786034459541110870267290417,1209.6,1.34129786034459541110870267290417
56,1255.34493340633452191112543278001552,1254.0,1.34493340633452191112543278001552
57,1300.54850437632345234530444676372239,1299.2,1.34850437632345234530444676372239
58,1346.55201302654324400924682370145581,1345.2,1.35201302654324400924682370145581
59,1393.35546149692298025249399955703296,1392.0,1.35546149692298025249399955703296
60,1440.95885181895205591075325324640357,1439.6,1.35885181895205591075325324640357
61,1489.36218592288948048684778313960686,1488.0,1.36218592288948048684778313960686
62,1538.56546564438359013514551345982217,1537.2,1.36546564438359013514551345982217
63,1588.56869273055911761520158094139604,1587.2,1.36869273055911761520158094139604
64,1639.37186884562225690042857330581414,1638.0,1.37186884562225690042857330581414
65,1690.97499557602882428763677601975574,1689.6,1.37499557602882428763677601975574
66,1743.37807443525577051423352231855391,1742.0,1.37807443525577051423352231855391
67,1796.58110686821203609854568017122018,1795.2,1.38110686821203609854568017122018
68,1850.58409425532098595792145583269912,1849.2,1.38409425532098595792145583269912
69,1905.38703791630334668854143999440633,1904.0,1.38703791630334668854143999440633
70,1960.98993911368664162260537498249606,1959.6,1.38993911368664162260537498249606
71,2017.39279905606452007483032791120269,2016.0,1.39279905606452007483032791120269
72,2074.59561890112707894781659096023720,2073.2,1.39561890112707894781659096023720
73,2132.59839975848122185943439811245807,2131.2,1.39839975848122185943439811245807
74,2191.40114269227828210683208515128058,2190.0,1.40114269227828210683208515128058
75,2251.00384872366450468056352399008491,2249.6,1.40384872366450468056352399008491
76,2311.40651883306853298557764101694704,2310.0,1.40651883306853298557764101694704
77,2372.60915396233874352739486517262201,2371.2,1.40915396233874352739486517262201
78,2434.61175501674210602361530920407613,2433.2,1.41175501674210602361530920407613
79,2497.41432286683519958091137391424382,2496.0,1.41432286683519958091137391424382
80,2561.01685835021707745201311039431273,2559.6,1.41685835021707745201311039431273
81,2625.41936227317282354571814929142253,2624.0,1.41936227317282354571814929142253
82,2690.62183541221588241240457434777456,2689.2,1.42183541221588241240457434777456
83,2756.62427851553655569373550272406389,2755.2,1.42427851553655569373550272406389
84,2823.42669230436343373352806237956193,2822.0,1.42669230436343373352806237956193
85,2891.02907747424397177058579581634133,2889.6,1.42907747424397177058579581634133
86,2959.43143469624990426890425916678767,2958.0,1.43143469624990426890425916678767
87,3028.63376461811273346985972201100664,3027.2,1.43376461811273346985972201100664
88,3098.63606786529410487325520488731677,3097.2,1.43606786529410487325520488731677
89,3169.43834504199549885193660996909715,3168.0,1.43834504199549885193660996909715
90,3241.04059673211132438796244045415721,3239.6,1.44059673211132438796244045415721
91,3313.44282350012917946625992867445021,3312.0,1.44282350012917946625992867445021
92,3386.64502589198075436416125378578450,3385.2,1.44502589198075436416125378578450
93,3460.64720443584659182015793801333726,3459.2,1.44720443584659182015793801333726
94,3535.44935964291767513647339373322133,3534.0,1.44935964291767513647339373322133
95,3611.05149200811659411602458617892054,3609.6,1.45149200811659411602458617892054
96,3687.45360201078083691222737261244133,3686.0,1.45360201078083691222737261244133
97,3764.65569011531057152799045821004578,3763.2,1.45569011531057152799045821004578
98,3842.65775677178310782594821589340942,3841.2,1.45775677178310782594821589340942
99,3921.45980241653607743979347899011780,3920.0,1.45980241653607743979347899011780
100,4001.06182747272122263615538058976242,3999.6,1.46182747272122263615538058976242
101,4081.46383235083055587231278923417888,4080.0,1.46383235083055587231278923417888
102,4162.66581744919652622031285171357393,4161.2,1.46581744919652622031285171357393
103,4244.66778315446772091445124927011860,4243.2,1.46778315446772091445124927011860
104,4327.46972984206152301436039164221442,4326.0,1.46972984206152301436039164221442
105,4411.07165787659505310219483241776534,4409.6,1.47165787659505310219483241776534
106,4495.47356761229563216815951093333930,4494.0,1.47356761229563216815951093333930
107,4580.67545939339192475667100539293699,4579.2,1.47545939339192475667100539293699
108,4666.67733355448684220588758282511082,4665.2,1.47733355448684220588758282511082
109,4753.47919042091321721980968950485479,4752.0,1.47919042091321721980968950485479
110,4841.08103030907319859202744903718128,4839.6,1.48103030907319859202744903718128
111,4929.48285352676224903899322282405013,4928.0,1.48285352676224903899322282405013
112,5018.68466037347857966706380801412432,5017.2,1.48466037347857966706380801412432
113,5108.68645114071879906176277601110076,5107.2,1.48645114071879906176277601110076
114,5199.48822611226050622995711851673960,5198.0,1.48822611226050622995711851673960
115,5291.08998556443251617713977854331578,5289.6,1.48998556443251617713977854331578
116,5383.49172976637335857036145526226055,5382.0,1.49172976637335857036145526226055
117,5476.69345898027865822434826474740839,5475.2,1.49345898027865822434826474740839
118,5570.69517346163796511723631455816244,5569.2,1.49517346163796511723631455816244
119,5665.49687345946156792863790928875617,5664.0,1.49687345946156792863790928875617
120,5761.09855921649779925051915211066990,5759.6,1.49855921649779925051915211066990
121,5857.50023096944130235412447675351508,5856.0,1.50023096944130235412447675351508
122,5954.70188894913271048305084082154947,5953.2,1.50188894913271048305084082154947
123,6052.70353338075015744964233172604093,6051.2,1.50353338075015744964233172604093
124,6151.50516448399302063206726021537733,6150.0,1.50516448399302063206726021537733
125,6251.10678247325826790317672960314466,6249.6,1.50678247325826790317672960314466
126,6351.50838755780976482494609038138135,6350.0,1.50838755780976482494609038138135
127,6452.70997994194087786441429759607881,6451.2,1.50997994194087786441429759607881
128,6554.71155982513068679984630668440442,6553.2,1.51155982513068679984630668440442
129,6657.51312740219410741260554020007035,6656.0,1.51312740219410741260554020007035
130,6761.11468286342620717835616301939618,6759.6,1.51468286342620717835616301939618
131,6865.51622639474098126709687393947095,6864.0,1.51622639474098126709687393947095
132,6970.71775817780484118432707549246015,6969.2,1.51775817780484118432707549246015
133,7076.71927839016505660406237140135072,7075.2,1.51927839016505660406237140135072
134,7183.52078720537337966845745235167452,7182.0,1.52078720537337966845745235167452
135,7291.12228479310506292045195768835191,7289.6,1.52228479310506292045195768835191
136,7399.52377131927347834832453953219307,7398.0,1.52377131927347834832453953219307
137,7508.72524694614053171309675915402262,7507.2,1.52524694614053171309675915402262
138,7618.72671183242305271773786215832112,7617.2,1.52671183242305271773786215832112
139,7729.52816613339533947121583495347081,7728.0,1.52816613339533947121583495347081
140,7841.12961000098802025447191322428473,7839.6,1.52961000098802025447191322428473
141,7953.53104358388339103790574169684830,7952.0,1.53104358388339103790574169684830
142,8066.73246702760737912669126855881860,8065.2,1.53246702760737912669126855881860
143,8180.73388047461827466007426467590755,8179.2,1.53388047461827466007426467590755
144,8295.53528406439236451116522481468215,8294.0,1.53528406439236451116522481468215
145,8411.13667793350659894598247554786334,8409.6,1.53667793350659894598247554786334
146,8527.53806221571841353174926682921897,8526.0,1.53806221571841353174926682921897
147,8644.73943704204282058148270070578069,8643.2,1.53943704204282058148270070578069
148,8762.74080254082688546387893786113926,8761.2,1.54080254082688546387893786113926
149,8881.54215883782168957942489491197413,8880.0,1.54215883782168957942489491197413
150,9001.14350605625188364358949268022489,8999.6,1.54350605625188364358949268022489
151,9121.54484431688292719132356839979641,9120.0,1.54484431688292719132356839979641
152,9242.74617373808610460201317546324234,9241.2,1.54617373808610460201317546324234
153,9364.74749443590140659455409530599087,9363.2,1.54749443590140659455409530599087
154,9487.54880652409836109176350077242435,9486.0,1.54880652409836109176350077242435
155,9611.15011011423489169009492533817436,9609.6,1.55011011423489169009492533817436
156,9735.55140531571428160099262302846343,9734.0,1.55140531571428160099262302846343
157,9860.75269223584031411046132942660545,9859.2,1.55269223584031411046132942660545
158,9986.75397097987066137492503056179580,9985.2,1.55397097987066137492503056179580
159,10113.5552416510685852261802634514001,10112.0,1.5552416510685852261802634514001
160,10241.1565043507530163229538409708154,10239.6,1.5565043507530163229538409708154
161,10369.5577591783470701451560653877631,10368.0,1.5577591783470701451560653877631
162,10498.7590062314250592919009597812779,10497.2,1.5590062314250592919009597812779
163,10628.7602456057580569365629608942380,10627.2,1.5602456057580569365629608942380
164,10759.5614773953580660754351580378651,10758.0,1.5614773953580660754351580378651
165,10891.1627016925208431701768514614614,10889.6,1.5627016925208431701768514614614
166,11023.5639185878674266996092543637907,11022.0,1.5639185878674266996092543637907
167,11156.7651281703844178531489294509344,11155.2,1.5651281703844178531489294509344
168,11290.7663305274630560547625082810908,11289.2,1.5663305274630560547625082810908
169,11425.5675257449371343795034088176803,11424.0,1.5675257449371343795034088176803
170,11561.1687139071197946057163145904435,11559.6,1.5687139071197946057163145904435
171,11697.5698950968392420973402729956740,11696.0,1.5698950968392420973402729956740
172,11834.7710693954734183829383705028678,11833.2,1.5710693954734183829383705028678
173,11972.7722368829836668337547877157578,11971.2,1.5722368829836668337547877157578
174,12111.5733976379474272842832364537543,12110.0,1.5733976379474272842832364537543
175,12251.1745517375899935802498056366043,12249.6,1.5745517375899935802498056366043
176,12391.5756992578153637603329659949237,12390.0,1.5756992578153637603329659949237
177,12532.7768402732362161321282450281570,12531.2,1.5768402732362161321282450281570
178,12674.7779748572030403967236335964581,12673.2,1.5779748572030403967236335964581
179,12817.5791030818324502668014637982298,12816.0,1.5791030818324502668014637982298
180,12961.1802250180347085246356022584615,12959.6,1.5802250180347085246356022584615
181,13105.5813407355404871685399140523574,13104.0,1.5813407355404871685399140523574
182,13250.7824503029268903431232005838147,13249.2,1.5824503029268903431232005838147
183,13396.7835537876427631025943579196265,13395.2,1.5835537876427631025943579196265
184,13543.5846512560333102486234723532436,13542.0,1.5846512560333102486234723532436
185,13691.1857427733640470508518204205141,13689.6,1.5857427733640470508518204205141
186,13839.5868284038441028186396965865029,13838.0,1.5868284038441028186396965865029
187,13988.7879082106489011245188855609467,13987.2,1.5879082106489011245188855609467
188,14138.7889822559422321156335593852160,14137.2,1.5889822559422321156335593852160
189,14289.5900506008977406442264510355700,14288.0,1.5900506008977406442264510355700
190,14441.1911133057198458682141042356294,14439.6,1.5911133057198458682141042356294
191,14593.5921704296641115443686904034254,14592.0,1.5921704296641115443686904034254
192,14746.7932220310570833962744087563642,14745.2,1.5932220310570833962744087563642
193,14900.7942681673156118608708286285615,14899.2,1.5942681673156118608708286285615
194,15055.5953088949656735543295844247804,15054.0,1.5953088949656735543295844247804
195,15211.1963442696607093895863829883549,15209.6,1.5963442696607093895863829883549
196,15367.5973743461994930373908816321642,15366.0,1.5973743461994930373908816321642
197,15524.7983991785435441061575991267676,15523.2,1.5983991785435441061575991267676
198,15682.7994188198341002025588746036901,15681.2,1.5994188198341002025588746036901
199,15841.6004333224086607066752693357652,15840.0,1.6004333224086607066752693357652
200,16001.2014427378171162018642365011839,15999.6,1.6014427378171162018642365011839
201,16161.6024471168374745357257676649795,16160.0,1.6024471168374745357257676649795
202,16322.8034465094911968882762176636648,16321.2,1.6034465094911968882762176636648
203,16484.8044409650581545020121557167978,16483.2,1.6044409650581545020121557167978
204,16647.6054305320912176887256979332060,16646.0,1.6054305320912176887256979332060
205,16811.2064152584304870783831208522959,16809.6,1.6064152584304870783831208522959
206,16975.6073951912171801287636407959951,16974.0,1.6073951912171801287636407959951
207,17140.8083703769071787664836143346477,17139.2,1.6083703769071787664836143346477
208,17306.8093408612842523808106983426735,17305.2,1.6093408612842523808106983426735
209,17473.6103066894729619130954285942663,17472.0,1.6103066894729619130954285942663
210,17641.2112679059512565374190536978442,17639.6,1.6112679059512565374190536978442
211,17809.6122245545627702914139208939410,17808.0,1.6122245545627702914139208939410
212,17978.8131766785288288843783834638161,17977.2,1.6131766785288288843783834638161
213,18148.8141243204601710605739406934565,18147.2,1.6141243204601710605739406934565
214,18319.6150675223683994933880624786043,18318.0,1.6150675223683994933880624786043
215,18491.2160063256771604165871742711407,18489.6,1.6160063256771604165871742711407
216,18663.6169407712330659471101537547799,18662.0,1.6169407712330659471101537547799
217,18836.8178708993163630584376344755724,18835.2,1.6178708993163630584376344755724
218,19010.8187967496513581769797389630993,19009.2,1.6187967496513581769797389630993
219,19185.6197183614166006744110475956048,19184.0,1.6197183614166006744110475956048
220,19361.2206357732548377640731566647222,19359.6,1.6206357732548377640731566647222
221,19537.6215490232827387037271961949057,19536.0,1.6215490232827387037271961949057
222,19714.8224581491004055020142237443065,19713.2,1.6224581491004055020142237443065
223,19892.8233631878006636894469726500992,19891.2,1.6233631878006636894469726500992
224,20071.6242641759781482132233586511938,20070.0,1.6242641759781482132233586511938
225,20251.2251611497381870123963860934911,20249.6,1.6251611497381870123963860934911
226,20431.6260541447054858113332946438106,20430.0,1.6260541447054858113332946438106
227,20612.8269431960326227743023434207539,20611.2,1.6269431960326227743023434207539
228,20794.8278283384083548313784176053737,20793.2,1.6278283384083548313784176053737
229,20977.6287096060657428278026211410928,20976.0,1.6287096060657428278026211410928
230,21161.2295870327901001830240123362911,21159.6,1.6295870327901001830240123362911
231,21345.6304606519267668486777126499369,21344.0,1.6304606519267668486777126499369
232,21530.8313304963887189744038129593402,21529.2,1.6313304963887189744038129593402
233,21716.8321965986640092669949876997146,21715.2,1.6321965986640092669949876997146
234,21903.6330589908230541889220793477366,21902.0,1.6330589908230541889220793477366
235,22091.2339177045257611673209002274989,22089.6,1.6339177045257611673209002274989
236,22279.6347727710285055121914798915979,22278.0,1.6347727710285055121914798915979
237,22468.8356242211909606639195813752683,22467.2,1.6356242211909606639195813752683
238,22658.8364720854827835011138510091387,22657.2,1.6364720854827835011138510091387
