Eigenstate,Energy,Kinetic Energy,Potential Energy
1,0.500000000066967231800062149441967580,0.0,0.500000000066967231800062149441967580
2,1.84623093808824234227759019746010128,1.2,0.64623093808824234227759019746010128
3,3.93633761098900531836597718834805459,3.2,0.73633761098900531836597718834805459
4,6.79966528048873264491101741712351824,6.0,0.79966528048873264491101741712351824
5,10.4480465799184711634917522773599033,9.6,0.8480465799184711634917522773599033
6,14.8870660040391082221365831905742821,14.0,0.8870660040391082221365831905742821
7,20.1197208342917402729743359623450620,19.2,0.9197208342917402729743359623450620
8,26.1477838570548703114378737082000670,25.2,0.9477838570548703114378737082000670
9,32.9723835713356992008178888236832697,32.0,0.9723835713356992008178888236832697
10,40.5942802312833981762054368365404056,39.6,0.9942802312833981762054368365404056
11,49.0140094070394308138071262643412521,48.0,1.0140094070394308138071262643412521
12,58.2319621939087523642664613480241979,57.2,1.0319621939087523642664613480241979
13,68.2484327219574384092626305274407260,67.2,1.0484327219574384092626305274407260
14,79.0636476888688676028324313088955130,78.0,1.0636476888688676028324313088955130
15,90.6777854757579193546501972803831193,89.6,1.0777854757579193546501972803831193
16,103.090988952041427002663278562289720,102.0,1.090988952041427002663278562289720
17,116.303374308899687522939668375481291,115.2,1.103374308899687522939668375481291
18,130.315037310282664685591609610978163,129.2,1.115037310282664685591609610978163
19,145.126057816013969285070085033968228,144.0,1.126057816013969285070085033968228
20,160.736503119424797472672821161683821,159.6,1.136503119424797472672821161683821
21,177.146430453435629327470190665322670,176.0,1.146430453435629327470190665322670
22,194.355888901714970032734422859706572,193.2,1.155888901714970032734422859706572
23,212.364920876615875324739682116470427,211.2,1.164920876615875324739682116470427
24,231.173563276576374264547246746428557,230.0,1.173563276576374264547246746428557
25,250.781848402915396109304970325339604,249.6,1.181848402915396109304970325339604
26,271.189804693640358443645419035138360,270.0,1.189804693640358443645419035138360
27,292.397457316409743321475278591843118,291.2,1.197457316409743321475278591843118
28,314.404828651892137353110277395431988,313.2,1.204828651892137353110277395431988
29,337.211938690968183846893643237757607,336.0,1.211938690968183846893643237757607
30,360.818805363572407542102547706556880,359.6,1.218805363572407542102547706556880
31,385.225444812825933967702661664130979,384.0,1.225444812825933967702661664130979
32,410.431871625033225875224690749425215,409.2,1.231871625033225875224690749425215
33,436.438099023806311388772518977915644,435.2,1.238099023806311388772518977915644
34,463.244139034829432248188279928752823,462.0,1.244139034829432248188279928752823
35,490.850002626437845455093783980815861,489.6,1.250002626437845455093783980815861
36,519.255699830151032752532351675076648,518.0,1.255699830151032752532351675076648
37,548.461239844496487820088217518228455,547.2,1.261239844496487820088217518228455
38,578.466631124829832322971996367025722,577.2,1.266631124829832322971996367025722
39,609.271881461359163303855309470917905,608.0,1.271881461359163303855309470917905
40,640.876998047185713622549061831669705,639.6,1.276998047185713622549061831669705
41,673.281987537856156874788069611096778,672.0,1.281987537856156874788069611096778
42,706.486856103666895619793433159295672,705.2,1.286856103666895619793433159295672
43,740.491609475754185401300491112908340,739.2,1.291609475754185401300491112908340
44,775.296252986835853031183222083516989,774.0,1.296252986835853031183222083516989
45,810.900791607332798035767427560765323,809.6,1.300791607332798035767427560765323
46,847.305229977485329882298658969675492,846.0,1.305229977485329882298658969675492
47,884.509572435985916990673071557954338,883.2,1.309572435985916990673071557954338
48,922.513823045572337171270413445554481,921.2,1.313823045572337171270413445554481
49,961.317985615960556585814770474474350,960.0,1.317985615960556585814770474474350
50,1000.92206372444254161452165096467560,999.6,1.32206372444254161452165096467560
51,1041.32606073442874105030629164572062,1040.0,1.32606073442874105030629164572062
52,1082.52997981217663082651918756916373,1081.2,1.32997981217663082651918756916373
53,1124.53382394191426336612111460040678,1123.2,1.33382394191426336612111460040678
54,1167.33759593954020250874742935760361,1166.0,1.33759593954020250874742935760361
55,1210.94129846505774947959404829368400,1209.6,1.34129846505774947959404829368400
56,1255.34493403388129079392790481055656,1254.0,1.34493403388129079392790481055656
57,1300.54850502713540002590172168070055,1299.2,1.34850502713540002590172168070055
58,1346.55201370105252818405905118165354,1345.2,1.35201370105252818405905118165354
59,1393.35546219556236348863721496438253,1392.0,1.35546219556236348863721496438253
60,1440.95885254215491683807159511770817,1439.6,1.35885254215491683807159511770817
61,1489.36218667108982502459789580311340,1488.0,1.36218667108982502459789580311340
62,1538.56546641801606275373403473376501,1537.2,1.36546641801606275373403473376501
63,1588.56869353005901263340109442294709,1587.2,1.36869353005901263340109442294709
64,1639.37186967142552981851948765389570,1638.0,1.37186967142552981851948765389570
65,1690.97499642857210315694274214805983,1689.6,1.37499642857210315694274214805983
66,1743.37807531497636734353601428687665,1742.0,1.37807531497636734353601428687665
67,1796.58110777554795829787998887513072,1795.2,1.38110777554795829787998887513072
68,1850.58409519071094782027146563325600,1849.2,1.38409519071094782027146563325600
69,1905.38703888018678090996468638391416,1904.0,1.38703888018678090996468638391416
70,1960.98994010650371086133245875196387,1959.6,1.38994010650371086133245875196387
71,2017.39280007825612854989517057424768,2016.0,1.39280007825612854989517057424768
72,2074.59561995313488407778477635093120,2073.2,1.39561995313488407778477635093120
73,2132.59840084074764594180766028792879,2131.2,1.39840084074764594180766028792879
74,2191.40114380524652403871665427172986,2190.0,1.40114380524652403871665427172986
75,2251.00384986777855172119953662440994,2249.6,1.40384986777855172119953662440994
76,2311.40652000877317256133546872075488,2310.0,1.40652000877317256133546872075488
77,2372.60915517007957507985285738700575,2371.2,1.40915517007957507985285738700575
78,2434.61175625696555290134143917783608,2433.2,1.41175625696555290134143917783608
79,2497.41432413998852097557913644009097,2496.0,1.41432413998852097557913644009097
80,2561.01685965674838037948934973115031,2559.6,1.41685965674838037948934973115031
81,2625.41936361353107487276798684356089,2624.0,1.41936361353107487276798684356089
82,2690.62183678685092092966555530678959,2689.2,1.42183678685092092966555530678959
83,2756.62427992489910423561997248410257,2755.2,1.42427992489910423561997248410257
84,2823.42669374890511134571953504233032,2822.0,1.42669374890511134571953504233032
85,2891.02907895441730592580180116217469,2889.6,1.42907895441730592580180116217469
86,2959.43143621250834313160443133631955,2958.0,1.43143621250834313160443133631955
87,3028.63376617091065821058459085797210,3027.2,1.43376617091065821058459085797210
88,3098.63606945508684203328732040791470,3097.2,1.43606945508684203328732040791470
89,3169.43834666923933275898196308306153,3168.0,1.43834666923933275898196308306153
90,3241.04059839726350962355639411755343,3239.6,1.44059839726350962355639411755343
91,3313.44282520364795338560813746599853,3312.0,1.44282520364795338560813746599853
92,3386.64502763432534966913214067910939,3385.2,1.44502763432534966913214067910939
93,3460.64720621747724918614958061445647,3459.2,1.44720621747724918614958061445647
94,3535.44936146429565589388377517524283,3534.0,1.44936146429565589388377517524283
95,3611.05149386970419298706040633744071,3609.6,1.45149386970419298706040633744071
96,3687.45360391304139480379269996047738,3686.0,1.45360391304139480379269996047738
97,3764.65569205870848838140293311314321,3763.2,1.45569205870848838140293311314321
98,3842.65775875678385552423641278493325,3841.2,1.45775875678385552423641278493325
99,3921.45980444360621277333568640042589,3920.0,1.45980444360621277333568640042589
100,4001.06182954232840032742602518483004,3999.6,1.46182954232840032742602518483004
101,4081.46383446344354166050936458766133,4080.0,1.46383446344354166050936458766133
102,4162.66581960528521000664233707629174,4161.2,1.46581960528521000664233707629174
103,4244.66778535450312996886153474258580,4243.2,1.46778535450312996886153474258580
104,4327.46973208651583524450889931375781,4326.0,1.46973208651583524450889931375781
105,4411.07166016594161038545278064012257,4409.6,1.47166016594161038545278064012257
106,4495.47356994700895374745710742580019,4494.0,1.47356994700895374745710742580019
107,4580.67546177394772070099532472655142,4579.2,1.47546177394772070099532472655142
108,4666.67733598136202693625182947949803,4665.2,1.47733598136202693625182947949803
109,4753.47919289458592310151920796796687,4752.0,1.47919289458592310151920796796687
110,4841.08103283002278959407482528310266,4839.6,1.48103283002278959407482528310266
111,4929.48285609546933446142166539182257,4928.0,1.48285609546933446142166539182257
112,5018.68466299042502793714514284036443,5017.2,1.48466299042502793714514284036443
113,5108.68645380638775159984344756283994,5107.2,1.48645380638775159984344756283994
114,5199.48822882713639138583280542004414,5198.0,1.48822882713639138583280542004414
115,5291.08998832900106323782650607360615,5289.6,1.48998832900106323782650607360615
116,5383.49173258112161184013843630900563,5382.0,1.49173258112161184013843630900563
117,5476.69346184569499117795523228761485,5475.2,1.49346184569499117795523228761485
118,5570.69517637821209462711554996798445,5569.2,1.49517637821209462711554996798445
119,5665.49687642768456856711885582835786,5664.0,1.49687642768456856711885582835786
120,5761.09856223686211766785136630383981,5759.6,1.49856223686211766785136630383981
121,5857.50023404244077173327230058439526,5856.0,1.50023404244077173327230058439526
122,5954.70189207526256507217124523245436,5953.2,1.50189207526256507217124523245436
123,6052.70353656050704717317534484415137,6051.2,1.50353656050704717317534484415137
124,6151.50516771787502578137658538010068,6150.0,1.50516771787502578137658538010068
125,6251.10678576176491390768638802497393,6249.6,1.50678576176491390768638802497393
126,6351.50839090144203710472726612920632,6350.0,1.50839090144203710472726612920632
127,6452.70998334120123676518494268045820,6451.2,1.50998334120123676518494268045820
128,6554.71156328052308261135484987950567,6553.2,1.51156328052308261135484987950567
129,6657.51313091422399547137846893078266,6656.0,1.51313091422399547137846893078266
130,6761.11468643260056305579813024575354,6759.6,1.51468643260056305579813024575354
131,6865.51623002156831604394088095686254,6864.0,1.51623002156831604394088095686254
132,6970.71776186279521681244157540178445,6969.2,1.51776186279521681244157540178445
133,7076.71928213383010135663066756367551,7075.2,1.51928213383010135663066756367551
134,7183.52079100822630367955460968750549,7182.0,1.52079100822630367955460968750549
135,7291.12228865566067381505366042549827,7289.6,1.52228865566067381505366042549827
136,7399.52377524204819696379163243265683,7398.0,1.52377524204819696379163243265683
137,7508.72525092965240791318909299292243,7507.2,1.52525092965240791318909299292243
138,7618.72671587719178130022072881145706,7617.2,1.52671587719178130022072881145706
139,7729.52817023994227617013223953032295,7728.0,1.52817023994227617013223953032295
140,7841.12961416983619783816386865228287,7839.6,1.52961416983619783816386865228287
141,7953.53104781555753550387786725732341,7952.0,1.53104781555753550387786725732341
142,8066.73247132263392599442053714664420,8065.2,1.53247132263392599442053714664420
143,8180.73388483352538536287978978623754,8179.2,1.53388483352538536287978978623754
144,8295.53528848770994288826302721495743,8294.0,1.53528848770994288826302721495743
145,8411.13668242176630783586036303634779,8409.6,1.53668242176630783586036303634779
146,8527.53806676945369146800818272221046,8526.0,1.53806676945369146800818272221046
147,8644.73944166178889859230185995791277,8643.2,1.53944166178889859230185995791277
148,8762.74080722712080397627291441242579,8761.2,1.54080722712080397627291441242579
149,8881.54216359120231542947265076809023,8880.0,1.54216359120231542947265076809023
150,9001.14351087725992719382607465156261,8999.6,1.54351087725992719382607465156261
151,9121.54484920606095955649763135277518,9120.0,1.54484920606095955649763135277518
152,9242.74617869597857498442455324456704,9241.2,1.54617869597857498442455324456704
153,9364.74749946305465973019792638722059,9363.2,1.54749946305465973019792638722059
154,9487.54881162106065480851934104250448,9486.0,1.54881162106065480851934104250448
155,9611.15011528155641457921145562516825,9609.6,1.55011528155641457921145562516825
156,9735.55141055394717080313141729121803,9734.0,1.55141055394717080313141729121803
157,9860.75269754553867321757492313343474,9859.2,1.55269754553867321757492313343474
158,9986.75397636159057844925801357007882,9985.2,1.55397636159057844925801357007882
159,10113.5552471053681509376945751797808,10112.0,1.5552471053681509376945751797808
160,10241.1565098781923422064927048667937,10239.6,1.5565098781923422064927048667937
161,10369.5577647794883069786742370010138,10368.0,1.5577647794883069786742370010138
162,10498.7590119068324155971024683469704,10497.2,1.5590119068324155971024683469704
163,10628.7602513559978176033007563524569,10627.2,1.5602513559978176033007563524569
164,10759.5614832209986111112414621294516,10758.0,1.5614832209986111112414621294516
165,10891.1627075941326665763067476797535,10889.6,1.5627075941326665763067476797535
166,11023.5639245660231554749939209998799,11022.0,1.5639245660231554749939209998799
167,11156.7651342256588311276696206257530,11155.2,1.5651342256588311276696206257530
168,11290.7663366604331043532711480437955,11289.2,1.5663366604331043532711480437955
169,11425.5675319561819590180296903447777,11424.0,1.5675319561819590180296903447777
170,11561.1687201972207472213170434825867,11559.6,1.5687201972207472213170434825867
171,11697.5699014663799043130611146179960,11696.0,1.5699014663799043130611146179960
172,11834.7710758450396216093740569237412,11833.2,1.5710758450396216093740569237412
173,11972.7722434131635122087089207887405,11971.2,1.5722434131635122087089207887405
174,12111.5734042493313057520450652773137,12110.0,1.5734042493313057520450652773137
175,12251.1745584307706061120210633195167,12249.6,1.5745584307706061120210633195167
176,12391.5757060333877417173541948402624,12390.0,1.5757060333877417173541948402624
177,12532.7768471317977417730703836755951,12531.2,1.5768471317977417730703836755951
178,12674.7779817993534675309273403906143,12673.2,1.5779817993534675309273403906143
179,12817.5791101081739250549635340733063,12816.0,1.5791101081739250549635340733063
180,12961.1802321291717904285589738353889,12959.6,1.5802321291717904285589738353889
181,13105.5813479320801700515810794627799,13104.0,1.5813479320801700515810794627799
182,13250.7824575854786237229882877155109,13249.2,1.5824575854786237229882877155109
183,13396.7835611568184735581532452382687,13395.2,1.5835611568184735581532452382687
184,13543.5846587124474229824290996824811,13542.0,1.5846587124474229824290996824811
185,13691.1857503176335076090705382481835,13689.6,1.5857503176335076090705382481835
186,13839.5868360365883989701163160842378,13838.0,1.5868360365883989701163160842378
187,13988.7879159324900849007198612736514,13987.2,1.5879159324900849007198612736514
188,14138.7889900675049420132300761556278,14137.2,1.5889900675049420132300761556278
189,14289.5900585028092239920988282865908,14288.0,1.5900585028092239920988282865908
190,14441.1911212986099813606785764413175,14439.6,1.5911212986099813606785764413175
191,14593.5921785141654319424472282713582,14592.0,1.5921785141654319424472282713582
192,14746.7932302078047983988487929441151,14745.2,1.5932302078047983988487929441151
193,14900.7942764369476311475821388418117,14899.2,1.5942764369476311475821388418117
194,15055.5953172581226300021051809626263,15054.0,1.5953172581226300021051809626263
195,15211.1963527269859824646977503658005,15209.6,1.5963527269859824646977503658005
196,15367.5973828983392323649662936988584,15366.0,1.5973828983392323649662936988584
197,15524.7984078261466932190959162610822,15523.2,1.5984078261466932190959162610822
198,15682.7994275635524204718117932772862,15681.2,1.5994275635524204718117932772862
199,15841.6004421628967554548884897055589,15840.0,1.6004421628967554548884897055589
200,16001.2014516757324550023894687470211,15999.6,1.6014516757324550023894687470211
201,16161.6024561528404176990390673296097,16160.0,1.6024561528404176990390673296097
202,16322.8034556442450201378609711742361,16321.2,1.6034556442450201378609711742361
203,16484.8044501992290738417883792805284,16483.2,1.6044501992290738417883792805284
204,16647.6054398663484144641311201608187,16646.0,1.6054398663484144641311201608187
205,16811.2064246934461332332356001966764,16809.6,1.6064246934461332332356001966764
206,16975.6074047276664636600589128777315,16974.0,1.6074047276664636600589128777315
207,17140.8083800154683293793071832383316,17139.2,1.6083800154683293793071832383316
208,17306.8093506026385673455675842822931,17305.2,1.6093506026385673455675842822931
209,17473.6103165343048321272872604100724,17472.0,1.6103165343048321272872604100724
210,17641.2112778549481927942233137336394,17639.6,1.6112778549481927942233137336394
211,17809.6122346084154297573469223731280,17808.0,1.6122346084154297573469223731280
212,17978.8131868379310417883493817068529,17977.2,1.6131868379310417883493817068529
213,18148.8141345861089675966658239810061,18147.2,1.6141345861089675966658239810061
214,18319.6150778949640369397257035340968,18318.0,1.6150778949640369397257035340968
215,18491.2160168059231504726840146381703,18489.6,1.6160168059231504726840146381703
216,18663.6169513598362022921101911925488,18662.0,1.6169513598362022921101911925488
217,18836.8178815969867491326995101716714,18835.2,1.6178815969867491326995101716714
218,19010.8188075571024351894773802315728,19009.2,1.6188075571024351894773802315728
219,19185.6197292793651758384560082505696,19184.0,1.6197292793651758384560082505696
220,19361.2206468024211127638922030486042,19359.6,1.6206468024211127638922030486042
221,19537.6215601643903383944594476406468,19536.0,1.6215601643903383944594476406468
222,19714.8224694028764068457225847694152,19713.2,1.6224694028764068457225847694152
223,19892.8233745549756249297696452101049,19891.2,1.6233745549756249297696452101049
224,20071.6242756572861382913223352521334,20070.0,1.6242756572861382913223352521334
225,20251.2251727459168152268921240354925,20249.6,1.6251727459168152268921240354925
226,20431.6260658564959317249468011269923,20430.0,1.6260658564959317249468011269923
227,20612.8269550241796663699585839803055,20611.2,1.6269550241796663699585839803055
228,20794.8278402836604069205587404302504,20793.2,1.6278402836604069205587404302504
229,20977.6287216691748757139670546941242,20976.0,1.6287216691748757139670546941242
230,21161.2295992145120785829588248127602,21159.6,1.6295992145120785829588248127602
231,21345.6304729530210790746582248921435,21344.0,1.6304729530210790746582248921435
232,21530.8313429176186083800976738346962,21529.2,1.6313429176186083800976738346962
233,21716.8322091407965059600668335232723,21715.2,1.6322091407965059600668335232723
234,21903.6330716546290070133370905586621,21902.0,1.6330716546290070133370905586621
235,22091.2339304907798699583807325629723,22089.6,1.6339304907798699583807325629723
236,22279.6347856805093536273741577911606,22278.0,1.6347856805093536273741577911606
237,22468.8356372546810477926323948153375,22467.2,1.6356372546810477926323948153375
238,22658.8364852437685587565067658188901,22657.2,1.6364852437685587565067658188901
