Eigenstate,Energy,Kinetic Energy,Potential Energy
1,0.500000000089472364230511998916235013,0.0,0.500000000089472364230511998916235013
2,1.84623093823514491262596440973675201,1.2,0.64623093823514491262596440973675201
3,3.93633761142052338699399545701055736,3.2,0.73633761142052338699399545701055736
4,6.79966528138754584465365335879006667,6.0,0.79966528138754584465365335879006667
5,10.4480465814754223683020403254054333,9.6,0.8480465814754223683020403254054333
6,14.8870660064483947456992527997586354,14.0,0.8870660064483947456992527997586354
7,20.1197208377491441361457638085780327,19.2,0.9197208377491441361457638085780327
8,26.1477838617570221186911874381644894,25.2,0.9477838617570221186911874381644894
9,32.9723835774797376138125529123220933,32.0,0.9723835774797376138125529123220933
10,40.5942802390667987145336045530564226,39.6,0.9942802390667987145336045530564226
11,49.0140094166599143694045290635367344,48.0,1.0140094166599143694045290635367344
12,58.2319622055642343388448728984796086,57.2,1.0319622055642343388448728984796086
13,68.2484327358459999692259755496359268,67.2,1.0484327358459999692259755496359268
14,79.0636477051887396650206211923671914,78.0,1.0636477051887396650206211923671914
15,90.6777854947074742545603645593655720,89.6,1.0777854947074742545603645593655720
16,103.090988973819174990667138649551852,102.0,1.090988973819174990667138649551852
17,116.303374333704276403325468536038166,115.2,1.103374333704276403325468536038166
18,130.315037338312881565567519090263477,129.2,1.115037338312881565567519090263477
19,145.126057847468743779558808683226607,144.0,1.126057847468743779558808683226607
20,160.736503154503205938426085978041485,159.6,1.136503154503205938426085978041485
21,177.146430492336899841265749635259850,176.0,1.146430492336899841265749635259850
22,194.355888944638487918483647600376991,193.2,1.155888944638487918483647600376991
23,212.364920923761189093214395332671463,211.2,1.164920923761189093214395332671463
24,231.173563328143201868799685784424573,230.0,1.173563328143201868799685784424573
25,250.781848459103631445712061873882332,249.6,1.181848459103631445712061873882332
26,271.189804754650078047173067791764805,270.0,1.189804754650078047173067791764805
27,292.397457382441213216949565682364910,291.2,1.197457382441213216949565682364910
28,314.404828723145820033750263464496162,313.2,1.204828723145820033750263464496162
29,337.211938767644745358252909615854725,336.0,1.211938767644745358252909615854725
30,360.818805445872724654650281109527629,359.6,1.218805445872724654650281109527629
31,385.225444900951101425070362040332167,384.0,1.225444900951101425070362040332167
32,410.431871719184563708009982950579216,409.2,1.231871719184563708009982950579216
33,436.438099124185372285977648757684217,435.2,1.238099124185372285977648757684217
34,463.244139141638008980055104809489743,462.0,1.244139141638008980055104809489743
35,490.850002739877978342406530742979965,489.6,1.250002739877978342406530742979965
36,519.255699950425017178486260110777394,518.0,1.255699950425017178486260110777394
37,548.461239971806881781634017496873816,547.2,1.261239971806881781634017496873816
38,578.466631259379464019192810676161399,577.2,1.266631259379464019192810676161399
39,609.271881603351138759451472437570716,608.0,1.271881603351138759451472437570716
40,640.876998196823424344925548690201312,639.6,1.276998196823424344925548690201312
41,673.281987695343287543580121260265128,672.0,1.281987695343287543580121260265128
42,706.486856269207431807944941367083936,705.2,1.286856269207431807944941367083936
43,740.491609649552421327039385626963547,739.2,1.291609649552421327039385626963547
44,775.296253169096399340428259247552743,774.0,1.296253169096399340428259247552743
45,810.900791798260589614659145736941198,809.6,1.300791798260589614659145736941198
46,847.305230177285633699679907718268647,846.0,1.305230177285633699679907718268647
47,884.509572644864339970456096102339165,883.2,1.309572644864339970456096102339165
48,922.513823263734834094721997151963046,921.2,1.313823263734834094721997151963046
49,961.317985843613438023871287258563694,960.0,1.317985843613438023871287258563694
50,1000.92206396179248189031457696054034,999.6,1.32206396179248189031457696054034
51,1041.32606098168278623213785617772910,1040.0,1.32606098168278623213785617772910
52,1082.52998006954220675157884319267292,1081.2,1.32998006954220675157884319267292
53,1124.53382420959918369527786633892596,1123.2,1.33382420959918369527786633892596
54,1167.33759621775267681279178777591603,1166.0,1.33759621775267681279178777591603
55,1210.94129875400639135733735002744420,1209.6,1.34129875400639135733735002744420
56,1255.34493433377512602259676177614174,1254.0,1.34493433377512602259676177614174
57,1300.54850533818387474429197685003004,1299.2,1.34850533818387474429197685003004
58,1346.55201402346551710893746255160659,1345.2,1.35201402346551710893746255160659
59,1393.35546252955017816490036801600723,1392.0,1.35546252955017816490036801600723
60,1440.95885288792831392319085976061161,1439.6,1.35885288792831392319085976061161
61,1489.36218702886001460789677913844760,1488.0,1.36218702886001460789677913844760
62,1538.56546678799471671106029741563655,1537.2,1.36546678799471671106029741563655
63,1588.56869391245827301777069406413951,1587.2,1.36869391245827301777069406413951
64,1639.37187006645801728732303312757181,1638.0,1.37187006645801728732303312757181
65,1690.97499683645092543631788425332274,1689.6,1.37499683645092543631788425332274
66,1743.37807573591512773052097493195564,1742.0,1.37807573591512773052097493195564
67,1796.58110820976076420097464346756972,1795.2,1.38110820976076420097464346756972
68,1850.58409563841241933904295374429994,1849.2,1.38409563841241933904295374429994
69,1905.38703934159205945434464312506411,1904.0,1.38703934159205945434464312506411
70,1960.98994058182846781126246506340691,1959.6,1.38994058182846781126246506340691
71,2017.39280056771657395598644401941093,2016.0,1.39280056771657395598644401941093
72,2074.59562045694777540366690692801123,2073.2,1.39562045694777540366690692801123
73,2132.59840135913029684885003043770491,2131.2,1.39840135913029684885003043770491
74,2191.40114433841681321381453310789594,2190.0,1.40114433841681321381453310789594
75,2251.00385041595493174832518397588935,2249.6,1.40385041595493174832518397588935
76,2311.40652057217467883756267026137506,2310.0,1.40652057217467883756267026137506
77,2372.60915574892583477657132347803368,2371.2,1.40915574892583477657132347803368
78,2434.61175685147679397138547705886664,2433.2,1.41175685147679397138547705886664
79,2497.41432475038558120700277259753222,2496.0,1.41432475038558120700277259753222
80,2561.01686028325271649672786142994316,2559.6,1.41686028325271649672786142994316
81,2625.41936425636477168593362800109833,2624.0,1.41936425636477168593362800109833
82,2690.62183744623670053273295091924887,2689.2,1.42183744623670053273295091924887
83,2756.62428060106033525426436595357336,2755.2,1.42428060106033525426436595357336
84,2823.42669444206581823557889891768618,2822.0,1.42669444206581823557889891768618
85,2891.02907966480217832194148415752977,2889.6,1.42907966480217832194148415752977
86,2959.43143694034274524997088197707412,2958.0,1.43143694034274524997088197707412
87,3028.63376691642063830224254816141225,3027.2,1.43376691642063830224254816141225
88,3098.63607021849914189224268897241890,3097.2,1.43607021849914189224268897241890
89,3169.43834745078139728440064543859380,3168.0,1.43834745078139728440064543859380
90,3241.04059919716349643719717342446614,3239.6,1.44059919716349643719717342446614
91,3313.44282602213474250529609220472960,3312.0,1.44282602213474250529609220472960
92,3386.64502847162855323910694596960064,3385.2,1.44502847162855323910694596960064
93,3460.64720707382722126513151437549911,3459.2,1.44720707382722126513151437549911
94,3535.44936233992350230170853033988638,3534.0,1.44936233992350230170853033988638
95,3611.05149476484178121074218040376249,3609.6,1.45149476484178121074218040376249
96,3687.45360482792136396388370562722430,3686.0,1.45360482792136396388370562722430
97,3764.65569299356425925952604442475609,3763.2,1.45569299356425925952604442475609
98,3842.65775971184964065267644609306223,3841.2,1.45775971184964065267644609306223
99,3921.45980541911702658758370734081261,3920.0,1.45980541911702658758370734081261
100,4001.06183053852006938258003273236551,3999.6,1.46183053852006938258003273236551
101,4081.46383548055271491244385227393575,4080.0,1.46383548055271491244385227393575
102,4162.66582064354936915886846391695479,4161.2,1.46582064354936915886846391695479
103,4244.66778641416059988600896089240552,4243.2,1.46778641416059988600896089240552
104,4327.46973316780579443336998231404164,4326.0,1.46973316780579443336998231404164
105,4411.07166126910410154453929794692426,4409.6,1.47166126910410154453929794692426
106,4495.47357107228489438602956386113488,4494.0,1.47357107228489438602956386113488
107,4580.67546292157891382853482648059725,4579.2,1.47546292157891382853482648059725
108,4666.67733715159117182335443688602297,4665.2,1.47733715159117182335443688602297
109,4753.47919408765662611320316476130679,4752.0,1.47919408765662611320316476130679
110,4841.08103404617957509650111966205282,4839.6,1.48103404617957509650111966205282
111,4929.48285733495765580303909050912013,4928.0,1.48285733495765580303909050912013
112,5018.68466425349127850528170563183017,5017.2,1.48466425349127850528170563183017
113,5108.68645509327927595377670433213485,5107.2,1.48645509327927595377670433213485
114,5199.48823013810149646738285499705078,5198.0,1.48823013810149646738285499705078
115,5291.08998966428902966052635198695584,5289.6,1.48998966428902966052635198695584
116,5383.49173394098270525804803582737220,5382.0,1.49173394098270525804803582737220
117,5476.69346323038047373519676425239055,5475.2,1.49346323038047373519676425239055
118,5570.69517778797423648921938734406556,5569.2,1.49517778797423648921938734406556
119,5665.49687786277665953528136455031162,5664.0,1.49687786277665953528136455031162
120,5761.09856369753847887721793991866396,5759.6,1.49856369753847887721793991866396
121,5857.50023552895676743637109069570979,5856.0,1.50023552895676743637109069570979
122,5954.70189358787461450863550513170272,5953.2,1.50189358787461450863550513170272
123,6052.70353809947263652690509575983519,6051.2,1.50353809947263652690509575983519
124,6151.50516928345272022630272662344252,6150.0,1.50516928345272022630272662344252
125,6251.10678735421436974331386381775787,6249.6,1.50678735421436974331386381775787
126,6351.50839252102401398264674708354975,6350.0,1.50839252102401398264674708354975
127,6452.70998498817761000775608932452015,6451.2,1.50998498817761000775608932452015
128,6554.71156495515685562377764129800128,6553.2,1.51156495515685562377764129800128
129,6657.51313261677931224838317864339376,6656.0,1.51313261677931224838317864339376
130,6761.11468816334272078419836923887477,6759.6,1.51468816334272078419836923887477
131,6865.51623178076377780230839706842385,6864.0,1.51623178076377780230839706842385
132,6970.71776365071162436917614272890660,6969.2,1.51776365071162436917614272890660
133,7076.71928395073628806771280356197223,7075.2,1.51928395073628806771280356197223
134,7183.52079285439230748728417968034074,7182.0,1.52079285439230748728417968034074
135,7291.12229053135775034909230049332962,7289.6,1.52229053135775034909230049332962
136,7399.52377714754883274584227439247142,7398.0,1.52377714754883274584227439247142
137,7508.72525286523033366666183255477385,7507.2,1.52525286523033366666183255477385
138,7618.72671784312198536624994400568058,7617.2,1.52671784312198536624994400568058
139,7729.52817223650101803132583182513039,7728.0,1.52817223650101803132583182513039
140,7841.12961619730102175148230898123754,7839.6,1.52961619730102175148230898123754
141,7953.53104987420728424405690293603527,7952.0,1.53104987420728424405690293603527
142,8066.73247341274875470936865934605786,8065.2,1.53247341274875470936865934605786
143,8180.73388695538677554249848379120467,8179.2,1.53388695538677554249848379120467
144,8295.53529064160071644815542439999460,8294.0,1.53529064160071644815542439999460
145,8411.13668460797064131741133925194748,8409.6,1.53668460797064131741133925194748
146,8527.53806898825713035633732998832129,8526.0,1.53806898825713035633732998832129
147,8644.73944391347837175360857828350818,8643.2,1.53944391347837175360857828350818
148,8762.74080951198463821611164554660040,8761.2,1.54080951198463821611164554660040
149,8881.54216590953025017351511910348422,8880.0,1.54216590953025017351511910348422
150,9001.14351322934312929268625570461614,8999.6,1.54351322934312929268625570461614
151,9121.54485159219203821621504464197006,9120.0,1.54485159219203821621504464197006
152,9242.74618111645159682422062883381120,9241.2,1.54618111645159682422062883381120
153,9364.74750191816516396914076393654756,9363.2,1.54750191816516396914076393654756
154,9487.54881411110566858275202775565461,9486.0,1.54881411110566858275202775565461
155,9611.15011780683446839142014719935608,9609.6,1.55011780683446839142014719935608
156,9735.55141311475831410595029327133383,9734.0,1.55141311475831410595029327133383
157,9860.75270014218449013264623802524113,9859.2,1.55270014218449013264623802524113
158,9986.75397899437420362368732730387693,9985.2,1.55397899437420362368732730387693
159,10113.5552497745942855396631279382004,10112.0,1.5552497745942855396631279382004
160,10241.1565125841672700618113049121611,10239.6,1.5565125841672700618113049121611
161,10369.5577675225199108500856764576637,10368.0,1.5577675225199108500856764576637
162,10498.7590146872301936081625123397286,10497.2,1.5590146872301936081625123397286
163,10628.7602541740728998086911789208800,10627.2,1.5602541740728998086911789208800
164,10759.5614860770637762153923129704505,10758.0,1.5614860770637762153923129704505
165,10891.1627104885023588022294541331300,10889.6,1.5627104885023588022294541331300
166,11023.5639274990135015852509019409433,11022.0,1.5639274990135015852509019409433
167,11156.7651371975876575994314455150058,11155.2,1.5651371975876575994314455150058
168,11290.7663396716199547094373438181622,11289.2,1.5663396716199547094373438181622
169,11425.5675350069481113164151061976234,11424.0,1.5675350069481113164151061976234
170,11561.1687232878892317039318145452535,11559.6,1.5687232878892317039318145452535
171,11697.5699045972755212175387606084950,11696.0,1.5699045972755212175387606084950
172,11834.7710790164889591446292797948359,11833.2,1.5710790164889591446292797948359
173,11972.7722466254949646969340182668004,11971.2,1.5722466254949646969340182668004
174,12111.5734075028750919391818288566849,12110.0,1.5734075028750919391818288566849
175,12251.1745617258587876488728718513079,12249.6,1.5745617258587876488728718513079
176,12391.5757093703542418135325653325517,12390.0,1.5757093703542418135325653325517
177,12532.7768505109783640259986512964830,12531.2,1.5768505109783640259986512964830
178,12674.7779852210859149321539091371211,12673.2,1.5779852210859149321539091371211
179,12817.5791135727978191760678301339630,12816.0,1.5791135727978191760678301339630
180,12961.1802356370286907889634096679507,12959.6,1.5802356370286907889634096679507
181,13105.5813514835135936706132693321971,13104.0,1.5813514835135936706132693321971
182,13250.7824611808340648585697829014437,13249.2,1.5824611808340648585697829014437
183,13396.7835647964434236345229501887068,13395.2,1.5835647964434236345229501887068
184,13543.5846623966913907093421878924464,13542.0,1.5846623966913907093421878924464
185,13691.1857540468480392949472516280391,13689.6,1.5857540468480392949472516280391
186,13839.5868398111270990316477023851512,13838.0,1.5868398111270990316477023851512
187,13988.7879197527086365714728794063385,13987.2,1.5879197527086365714728794063385
188,14138.7889939337611282538288898248390,14137.2,1.5889939337611282538288898248390
189,14289.5900624154629486045942463241932,14288.0,1.5900624154629486045942463241932
190,14441.1911252580232903097535736685861,14439.6,1.5911252580232903097535736685861
191,14593.5921825207025348861436803425149,14592.0,1.5921825207025348861436803425149
192,14746.7932342618320904315367682279143,14745.2,1.5932342618320904315367682279143
193,14900.7942805388337147579315315303885,14899.2,1.5942805388337147579315315303885
194,15055.5953214082383372488571783113520,15054.0,1.5953214082383372488571783113520
195,15211.1963569257043973730733884046253,15209.6,1.5963569257043973730733884046253
196,15367.5973871460357135465882399231651,15366.0,1.5973871460357135465882399231651
197,15524.7984121231988967183402685587609,15523.2,1.5984121231988967183402685587609
198,15682.7994319103403228415477003785531,15681.2,1.5994319103403228415477003785531
199,15841.6004465598026770646047303447889,15840.0,1.6004465598026770646047303447889
200,16001.2014561231410835817498806293749,15999.6,1.6014561231410835817498806293749
201,16161.6024606511388321199507020632582,16160.0,1.6024606511388321199507020632582
202,16322.8034601938227144381841923954672,16321.2,1.6034601938227144381841923954672
203,16484.8044548004779814938607665120259,16483.2,1.6044548004779814938607665120259
204,16647.6054445196629328913238043687843,16646.0,1.6054445196629328913238043687843
205,16811.2064293992231485778051775031129,16809.6,1.6064293992231485778051775031129
206,16975.6074094863053758056060511662464,16974.0,1.6074094863053758056060511662464
207,17140.8083848273710772311995998058913,17139.2,1.6083848273710772311995998058913
208,17306.8093554682096543727335121507943,17305.2,1.6093554682096543727335121507943
209,17473.6103214539513521688352009303757,17472.0,1.6103214539513521688352009303757
210,17641.2112828290798561343929298362155,17639.6,1.6112828290798561343929298362155
211,17809.6122396374445894723470237628905,17808.0,1.6122396374445894723470237628905
212,17978.8131919222727203686907694792733,17977.2,1.6131919222727203686907694792733
213,18148.8141397261808838486487689498528,18147.2,1.6141397261808838486487689498528
214,18319.6150830911866331697957577387663,18318.0,1.6150830911866331697957577387663
215,18491.2160220587196199584231399833736,18489.6,1.6160220587196199584231399833736
216,18663.6169566696325170436867911923179,18662.0,1.6169566696325170436867911923179
217,18836.8178869642116879486554402790866,18835.2,1.6178869642116879486554402790866
218,19010.8188129821876120107883070099579,19009.2,1.6188129821876120107883070099579
219,19185.6197347627450684048592882517947,19184.0,1.6197347627450684048592882517947
220,19361.2206523445330915765344276280184,19359.6,1.6206523445330915765344276280184
221,19537.6215657656746959889776469981270,19536.0,1.6215657656746959889776469981270
222,19714.8224750637763873799324111778707,19713.2,1.6224750637763873799324111778707
223,19892.8233802759374540901970388781608,19891.2,1.6233802759374540901970388781608
224,20071.6242814387590535228779817153104,20070.0,1.6242814387590535228779817153104
225,20251.2251785883530962900520222091396,20249.6,1.6251785883530962900520222091396
226,20431.6260717603509315848685384878860,20430.0,1.6260717603509315848685384878860
227,20612.8269609899118424220278653690600,20611.2,1.6269609899118424220278653690600
228,20794.8278463117313525569300043551657,20793.2,1.6278463117313525569300043551657
229,20977.6287277600493522357298891355993,20976.0,1.6287277600493522357298891355993
230,21161.2296053686580474626316156130862,21159.6,1.6296053686580474626316156130862
231,21345.6304791709097345737829348657736,21344.0,1.6304791709097345737829348657736
232,21530.8313491997244105267810035149061,21529.2,1.6313491997244105267810035149061
233,21716.8322154875972138913871194599859,21715.2,1.6322154875972138913871194599859
234,21903.6330780666057126876114486727242,21902.0,1.6330780666057126876114486727242
235,22091.2339369684170322423631481520027,22089.6,1.6339369684170322423631481520027
236,22279.6347922242948327635328878755271,22278.0,1.6347922242948327635328878755271
237,22468.8356438651061402517341333431765,22467.2,1.6356438651061402517341333431765
238,22658.8364919213280324808157050190456,22657.2,1.6364919213280324808157050190456
