Eigenstate,Energy,Kinetic Energy,Potential Energy
1,0.500000000444944057325100116480500062,0.0,0.500000000444944057325100116480500062
2,1.84623094055552122076686253069981641,1.2,0.64623094055552122076686253069981641
3,3.93633761823663469913307263203170515,3.2,0.73633761823663469913307263203170515
4,6.79966529558527858525525522418562740,6.0,0.79966529558527858525525522418562740
5,10.4480466060700174953138076570170242,9.6,0.8480466060700174953138076570170242
6,14.8870660445086350780722066737948075,14.0,0.8870660445086350780722066737948075
7,20.1197208923695444308368956679269973,19.2,0.9197208923695444308368956679269973
8,26.1477839360463454092421531505417756,25.2,0.9477839360463454092421531505417756
9,32.9723836745557603452692079153759365,32.0,0.9723836745557603452692079153759365
10,40.5942803620537507307667930758477802,39.6,0.9942803620537507307667930758477802
11,49.0140095686871783200719198937573699,48.0,1.0140095686871783200719198937573699
12,58.2319623897656870925397945151286254,57.2,1.0319623897656870925397945151286254
13,68.2484329553597037666160620803857396,67.2,1.0484329553597037666160620803857396
14,79.0636479631568347816758807941459487,78.0,1.0636479631568347816758807941459487
15,90.6777857942761934686545218767910226,89.6,1.0777857942761934686545218767910226
16,103.090989318138934804186396982095802,102.0,1.090989318138934804186396982095802
17,116.303374725929818435577023215849005,115.2,1.103374725929818435577023215849005
18,130.315037781603447841677181315435729,129.2,1.115037781603447841677181315435729
19,145.126058344988275618650678211097295,144.0,1.126058344988275618650678211097295
20,160.736503709420559743144356708093160,159.6,1.136503709420559743144356708093160
21,177.146431107826075321500629966332819,176.0,1.146431107826075321500629966332819
22,194.355889623878865705125910097631332,193.2,1.155889623878865705125910097631332
23,212.364921669937775628142521171470477,211.2,1.164921669937775628142521171470477
24,231.173564144446880079429656003370835,230.0,1.173564144446880079429656003370835
25,250.781849348731416136999782954697004,249.6,1.181849348731416136999782954697004
26,271.189805720805375239117088637940755,270.0,1.189805720805375239117088637940755
27,292.397458428334082864353319263830788,291.2,1.197458428334082864353319263830788
28,314.404829851993241714911417114739213,313.2,1.204829851993241714911417114739213
29,337.211939982670886628487434127556572,336.0,1.211939982670886628487434127556572
30,360.818806750309211841240591899545919,359.6,1.218806750309211841240591899545919
31,385.225446298037292700570637735228315,384.0,1.225446298037292700570637735228315
32,410.431873212167824324510938192740355,409.2,1.231873212167824324510938192740355
33,436.438100716321351887887109607742736,435.2,1.238100716321351887887109607742736
34,463.244140836190920939991474489629127,462.0,1.244140836190920939991474489629127
35,490.850004540120881085939468739270100,489.6,1.250004540120881085939468739270100
36,519.255701859640097480147209965905867,518.0,1.255701859640097480147209965905867
37,548.461241993285740027927626027090242,547.2,1.261241993285740027927626027090242
38,578.466633396423401445056216083851431,577.2,1.266633396423401445056216083851431
39,609.271883859271446673323124022512411,608.0,1.271883859271446673323124022512411
40,640.877000574941675364743117883238072,639.6,1.277000574941675364743117883238072
41,673.281990198991628871965181670267578,672.0,1.281990198991628871965181670267578
42,706.486858901728880579810737943954599,705.2,1.286858901728880579810737943954599
43,740.491612414301162067076119696683395,739.2,1.291612414301162067076119696683395
44,775.296256069438083571533230809615078,774.0,1.296256069438083571533230809615078
45,810.900794837572637661509099671297541,809.6,1.300794837572637661509099671297541
46,847.305233358957538734385793915143052,846.0,1.305233358957538734385793915143052
47,884.509575972297974349671334346111836,883.2,1.309575972297974349671334346111836
48,922.513826740344758039756483740067492,921.2,1.313826740344758039756483740067492
49,961.317989472827210697341670054822436,960.0,1.317989472827210697341670054822436
50,1000.92206774705097492467742884450144,999.6,1.32206774705097492467742884450144
51,1041.32606492644049976713797785220571,1040.0,1.32606492644049976713797785220571
52,1082.52998417726758803922512440994093,1081.2,1.32998417726758803922512440994093
53,1124.53382848377494833245625403971353,1123.2,1.33382848377494833245625403971353
54,1167.33760066187613266305659876547203,1166.0,1.33760066187613266305659876547203
55,1210.94130337158976522480237464281767,1209.6,1.34130337158976522480237464281767
56,1255.34493912834589314218854187370403,1254.0,1.34493912834589314218854187370403
57,1300.54851031328509115393999801719151,1299.2,1.34851031328509115393999801719151
58,1346.55201918265615497057003197122577,1345.2,1.35201918265615497057003197122577
59,1393.35546787640546410239241359054848,1392.0,1.35546787640546410239241359054848
60,1440.95885842604007044668426658381147,1439.6,1.35885842604007044668426658381147
61,1489.36219276183700469518553821597800,1488.0,1.36219276183700469518553821597800
62,1538.56547271946299161800863759565109,1537.2,1.36547271946299161800863759565109
63,1588.56870004606152339101443477131123,1587.2,1.36870004606152339101443477131123
64,1639.37187640585792765379848816825149,1638.0,1.37187640585792765379848816825149
65,1690.97500338532753214547192518472248,1689.6,1.37500338532753214547192518472248
66,1743.37808249796718042637984198449185,1742.0,1.37808249796718042637984198449185
67,1796.58111518870609090259456814035709,1795.2,1.38111518870609090259456814035709
68,1850.58410283798829520923135290231370,1849.2,1.38410283798829520923135290231370
69,1905.38704676555557933793330047930904,1904.0,1.38704676555557933793330047930904
70,1960.98994823395692262562700922898399,1959.6,1.38994823395692262562700922898399
71,2017.39280845180783101795408999907260,2016.0,1.39280845180783101795408999907260
72,2074.59562857682066277842431839590803,2073.2,1.39562857682066277842431839590803
73,2132.59840971862499180797026447809898,2131.2,1.39840971862499180797026447809898
74,2191.40115294139523489105646824298301,2190.0,1.40115294139523489105646824298301
75,2251.00385926630113808343123797870922,2249.6,1.40385926630113808343123797870922
76,2311.40652967379526789988443705212010,2310.0,1.40652967379526789988443705212010
77,2372.60916510575035056199711943644090,2371.2,1.40916510575035056199711943644090
78,2434.61176646745813676772378025228033,2433.2,1.41176646745813676772378025228033
79,2497.41433462950042262469612857879223,2496.0,1.41433462950042262469612857879223
80,2561.01687042950191926353145110135725,2559.6,1.41687042950191926353145110135725
81,2625.41937467377381430599765009654510,2624.0,1.41937467377381430599765009654510
82,2690.62184813885610691237285143756510,2689.2,1.42184813885610691237285143756510
83,2756.62429157296610939859486027012549,2755.2,1.42429157296610939859486027012549
84,2823.42670569735988412212512216756701,2822.0,1.42670569735988412212512216756701
85,2891.02909120761282505932554683708886,2889.6,1.42909120761282505932554683708886
86,2959.43144877482507763180507464629446,2958.0,1.43144877482507763180507464629446
87,3028.63377904675703286844602283174196,3027.2,1.43377904675703286844602283174196
88,3098.63608264889970861213293248898144,3097.2,1.43608264889970861213293248898144
89,3169.43836018548444697810062456951584,3168.0,1.43836018548444697810062456951584
90,3241.04061224043601405414253147399244,3239.6,1.44061224043601405414253147399244
91,3313.44283937827286638092717700905486,3312.0,1.44283937827286638092717700905486
92,3386.64504214495806045318738186253253,3385.2,1.44504214495806045318738186253253
93,3460.64722106870401922755277601161707,3459.2,1.44722106870401922755277601161707
94,3535.44937666073412669411788123836297,3534.0,1.44937666073412669411788123836297
95,3611.05150941600390041487249264794283,3609.6,1.45150941600390041487249264794283
96,3687.45361981388429011006753644326573,3686.0,1.45361981388429011006753644326573
97,3764.65570831880946603155075562975591,3763.2,1.45570831880946603155075562975591
98,3842.65777538089128798787302191513626,3841.2,1.45777538089128798787302191513626
99,3921.45982143650249241385523124613351,3920.0,1.45982143650249241385523124613351
100,4001.06184690883048853695386307885623,3999.6,1.46184690883048853695386307885623
101,4081.46385220840352538868933004779659,4080.0,1.46385220840352538868933004779659
102,4162.66583773359086583475196945959977,4161.2,1.46583773359086583475196945959977
103,4244.66780387107849588386652451702306,4243.2,1.46780387107849588386652451702306
104,4327.46975099632179027087057226465240,4326.0,1.46975099632179027087057226465240
105,4411.07167947397646223577924815450110,4409.6,1.47167947397646223577924815450110
106,4495.47358965830903465645858888143404,4494.0,1.47358965830903465645858888143404
107,4580.67548189358799161065764122535261,4579.2,1.47548189358799161065764122535261
108,4666.67735651445669020368321603197589,4665.2,1.47735651445669020368321603197589
109,4753.47921384628904390456519775434655,4752.0,1.47921384628904390456519775434655
110,4841.08105420552892621352457241542714,4839.6,1.48105420552892621352457241542714
111,4929.48287790001417762245771851180570,4928.0,1.48287790001417762245771851180570
112,5018.68468522928604939661880500133735,5017.2,1.48468522928604939661880500133735
113,5108.68647648488486216998846299758815,5107.2,1.48647648488486216998846299758815
114,5199.48825195063260858917120222197402,5198.0,1.48825195063260858917120222197402
115,5291.09001190290318879226620415464574,5289.6,1.49001190290318879226620415464574
116,5383.49175661088091917762432834076124,5382.0,1.49175661088091917762432834076124
117,5476.69348633680792320451111232269639,5475.2,1.49348633680792320451111232269639
118,5570.69520133622097193671030389512470,5569.2,1.49520133622097193671030389512470
119,5665.49690185817830832650855705412216,5664.0,1.49690185817830832650855705412216
120,5761.09858814547696339439319221137057,5759.6,1.49858814547696339439319221137057
121,5857.50026043486103419268168223904952,5856.0,1.50026043486103419268168223904952
122,5954.70191895722137452830259947708683,5953.2,1.50191895722137452830259947708683
123,6052.70356393778711722715179998245222,6051.2,1.50356393778711722715179998245222
124,6151.50519559630942904278322313076320,6150.0,1.50519559630942904278322313076320
125,6251.10681414723786974607726922664826,6249.6,1.50681414723786974607726922664826
126,6351.50841979988971173538096325463774,6350.0,1.50841979988971173538096325463774
127,6452.71001275861255592888391389406680,6451.2,1.51001275861255592888391389406680
128,6554.71159322294055711396483723455667,6553.2,1.51159322294055711396483723455667
129,6657.51316138774455985516939552665547,6656.0,1.51316138774455985516939552665547
130,6761.11471744337642768078237949751580,6759.6,1.51471744337642768078237949751580
131,6865.51626157580783286401534469547717,6864.0,1.51626157580783286401534469547717
132,6970.71779396676375913781217336048730,6969.2,1.51779396676375913781217336048730
133,7076.71931479385095790086886564762430,7075.2,1.51931479385095790086886564762430
134,7183.52082423068158719671074314866920,7182.0,1.52082423068158719671074314866920
135,7291.12232244699224463951195014188550,7289.6,1.52232244699224463951195014188550
136,7399.52380960875860177302296827938730,7398.0,1.52380960875860177302296827938730
137,7508.72528587830583404123911170757315,7507.2,1.52528587830583404123911170757315
138,7618.72675141441502693766432096023267,7617.2,1.52675141441502693766432096023267
139,7729.52820637242573679434738247305176,7728.0,1.52820637242573679434738247305176
140,7841.12965090433486922613027667339559,7839.6,1.52965090433486922613027667339559
141,7953.53108515889203368828946925603915,7952.0,1.53108515889203368828946925603915
142,8066.73250928169152453274218854858160,8065.2,1.53250928169152453274218854858160
143,8180.73392341526107029806219185879271,8179.2,1.53392341526107029806219185879271
144,8295.53532769914748578918187770342703,8294.0,1.53532769914748578918187770342703
145,8411.13672226999935731516396250361748,8409.6,1.53672226999935731516396250361748
146,8527.53810726164688358495953916453307,8526.0,1.53810726164688358495953916453307
147,8644.73948280517898655838583849741854,8643.2,1.53948280517898655838583849741854
148,8762.74084902901780759182370232911023,8761.2,1.54084902901780759182370232911023
149,8881.54220605899069069037114427430347,8880.0,1.54220605899069069037114427430347
150,9001.14355401839975651841919756868776,8999.6,1.54355401839975651841919756868776
151,9121.54489302808916309433671979737895,9120.0,1.54489302808916309433671979737895
152,9242.74622320651014348018780872733791,9241.2,1.54622320651014348018780872733791
153,9364.74754466978390942829092107285201,9363.2,1.54754466978390942829092107285201
154,9487.54885753176250489633189345418478,9486.0,1.54885753176250489633189345418478
155,9611.15016190408768767987166940187311,9609.6,1.55016190408768767987166940187311
156,9735.55145789624791704184342987258014,9734.0,1.55145789624791704184342987258014
157,9860.75274561563351839927233711053795,9859.2,1.55274561563351839927233711053795
158,9986.75402516759009689936532316225600,9985.2,1.55402516759009689936532316225600
159,10113.5552966554702635722724220438672,10112.0,1.5552966554702635722724220438672
160,10241.1565601806837404129745664038430,10239.6,1.5565601806837404129745664038430
161,10369.5578158427459029037824748485680,10368.0,1.5578158427459029037824748485680
162,10498.7590637393248194543926084178901,10497.2,1.5590637393248194543926084178901
163,10628.7603039662868426291241562535662,10627.2,1.5603039662868426291241562535662
164,10759.5615366177408068147745493476747,10758.0,1.5615366177408068147745493476747
165,10891.1627617860808809466651757574218,10889.6,1.5627617860808809466651757574218
166,11023.5639795620281268263718415893790,11022.0,1.5639795620281268263718415893790
167,11156.7651900346708102819203341995988,11155.2,1.5651900346708102819203341995988
168,11290.7663932915035078784068416701668,11289.2,1.5663932915035078784068416701668
169,11425.5675894184650542607776624314280,11424.0,1.5675894184650542607776624314280
170,11561.1687784999753698921571408189837,11559.6,1.5687784999753698921571408189837
171,11697.5699606189712094030946321020753,11696.0,1.5699606189712094030946321020753
172,11834.7711358569408684399765920058898,11833.2,1.5711358569408684399765920058898
173,11972.7723042939578844372063297250099,11971.2,1.5723042939578844372063297250099
174,12111.5734660087137671796632384384417,12110.0,1.5734660087137671796632384384417
175,12251.1746210785497931641128147473892,12249.6,1.5746210785497931641128147473892
176,12391.5757695794878934904264829499631,12390.0,1.5757695794878934904264829499631
177,12532.7769115862606685684617926777891,12531.2,1.5769115862606685684617926777891
178,12674.7780471723405588211336360133400,12673.2,1.5780471723405588211336360133400
179,12817.5791764099681978556241702758505,12816.0,1.5791764099681978556241702758505
180,12961.1802993701799790770156406963295,12959.6,1.5802993701799790770156406963295
181,13105.5814161228348584217494319459597,13104.0,1.5814161228348584217494319459597
182,13250.7825267366404209360692037259505,13249.2,1.5825267366404209360692037259505
183,13396.7836312791782342794915827662333,13395.2,1.5836312791782342794915827662333
184,13543.5847298169285134266446875538047,13542.0,1.5847298169285134266446875538047
185,13691.1858224152941184084735376361607,13689.6,1.5858224152941184084735376361607
186,13839.5869091386239060954163128815179,13838.0,1.5869091386239060954163128815179
187,13988.7879900502354598581996722339225,13987.2,1.5879900502354598581996722339225
188,14138.7890652124372125789111423930152,14137.2,1.5890652124372125789111423930152
189,14289.5901346865499867810272181083473,14288.0,1.5901346865499867810272181083473
190,14441.1911985329279675683641058798555,14439.6,1.5911985329279675683641058798555
191,14593.5922568109791276357284755361880,14592.0,1.5922568109791276357284755361880
192,14746.7933095791851207751051135511839,14745.2,1.5933095791851207751051135511839
193,14900.7943568951206622243098293119756,14899.2,1.5943568951206622243098293119756
194,15055.5953988154724092434841113755403,15054.0,1.5953988154724092434841113755403
195,15211.1964353960573598979529761940284,15209.6,1.5964353960573598979529761940284
196,15367.5974666918407837871445193494223,15366.0,1.5974666918407837871445193494223
197,15524.7984927569536991443861635053319,15523.2,1.5984927569536991443861635053319
198,15682.7995136447099105208280805797880,15681.2,1.5995136447099105208280805797880
199,15841.6005294076226199404467252230074,15840.0,1.6005294076226199404467252230074
200,16001.2015400974206255213394537937810,15999.6,1.6015400974206255213394537937810
201,16161.6025457650641185967500929855148,16160.0,1.6025457650641185967500929855148
202,16322.8035464607600927710527338295301,16321.2,1.6035464607600927710527338295301
203,16484.8045422339773756266576987996905,16483.2,1.6045422339773756266576987996905
204,16647.6055331334612947602389063290868,16646.0,1.6055331334612947602389063290868
205,16811.2065192072479881794598973327721,16809.6,1.6065192072479881794598973327721
206,16975.6075005026783721472226076264078,16974.0,1.6075005026783721472226076264078
207,17140.8084770664117724149133993302005,17139.2,1.6084770664117724149133993302005
208,17306.8094489444392331395676112131229,17305.2,1.6094489444392331395676112131229
209,17473.6104161820965093040466602486472,17472.0,1.6104161820965093040466602486472
210,17641.2113788240767542149831961912302,17639.6,1.6113788240767542149831961912302
211,17809.6123369144429095196146159440269,17808.0,1.6123369144429095196146159440269
212,17978.8132904966398080539011897828410,17977.2,1.6132904966398080539011897828410
213,18148.8142396135059939884069233113665,18147.2,1.6142396135059939884069233113665
214,18319.6151843072852753395646898563228,18318.0,1.6151843072852753395646898563228
215,18491.2161246196380081481130591083664,18489.6,1.6161246196380081481130591083664
216,18663.6170605916521263783875354079866,18662.0,1.6170605916521263783875354079866
217,18836.8179922638539216006416650732399,18835.2,1.6179922638539216006416650732399
218,19010.8189196762185815360219501299055,19009.2,1.6189196762185815360219501299055
219,19185.6198428681804908485479160187730,19184.0,1.6198428681804908485479160187730
220,19361.2207618786433068080542432751482,19359.6,1.6207618786433068080542432751482
221,19537.6216767459898078468551689032469,19536.0,1.6216767459898078468551689032469
222,19714.8225875080915323327733561063590,19713.2,1.6225875080915323327733561063590
223,19892.8234942023182012497198279056066,19891.2,1.6234942023182012497198279056066
224,20071.6243968655469399807504655957331,20070.0,1.6243968655469399807504655957331
225,20251.2252955341713018912985156630818,20249.6,1.6252955341713018912985156630818
226,20431.6261902441100973974502550540722,20430.0,1.6261902441100973974502550540722
227,20612.8270810308160373151187743973211,20611.2,1.6270810308160373151187743973211
228,20794.8279679292841924596298843490611,20793.2,1.6279679292841924596298843490611
229,20977.6288509740602768138250600239017,20976.0,1.6288509740602768138250600239017
230,21161.2297301992487591238213077585688,21159.6,1.6297301992487591238213077585688
231,21345.6306056385208048918737072853169,21344.0,1.6306056385208048918737072853169
232,21530.8314773251220593630612298865985,21529.2,1.6314773251220593630612298865985
233,21716.8323452918802666870798408556072,21715.2,1.6323452918802666870798408556072
234,21903.6332095712127416053874396072628,21902.0,1.6332095712127416053874396072628
235,22091.2340701951336870477379222336529,22089.6,1.6340701951336870477379222336529
236,22279.6349271952613675590390979321281,22278.0,1.6349271952613675590390979321281
237,22468.8357806028251424084937960087452,22467.2,1.6357806028251424084937960087452
238,22658.8366304486723603539963711290229,22657.2,1.6366304486723603539963711290229
