Eigenstate,Energy,Kinetic Energy,Potential Energy
1,0.500000011378463022655592866197871412,0.0,0.500000011378463022655592866197871412
2,1.84623101193629276359043783189697179,1.2,0.64623101193629276359043783189697179
3,3.93633782796873730701982289043188553,3.2,0.73633782796873730701982289043188553
4,6.79966573259561888453751448477797272,6.0,0.79966573259561888453751448477797272
5,10.4480473634199150568176809062832307,9.6,0.8480473634199150568176809062832307
6,14.8870672171160293568570201898249383,14.0,0.8870672171160293568570201898249383
7,20.1197225762080534151424754631592524,19.2,0.9197225762080534151424754631592524
8,26.1477862278469650004730827265657927,25.2,0.9477862278469650004730827265657927
9,32.9723866717013298734967062172982380,32.0,0.9723866717013298734967062172982380
10,40.5942841625563454344643256479013641,39.6,0.9942841625563454344643256479013641
11,49.0140142712049837764075892840680066,48.0,1.0140142712049837764075892840680066
12,58.2319680936404592243065342351269842,57.2,1.0319680936404592243065342351269842
13,68.2484397606659221392412907443141464,67.2,1.0484397606659221392412907443141464
14,79.0636559707580904056347950400841377,78.0,1.0636559707580904056347950400841377
15,90.6777951058864633862308398199852503,89.6,1.0777951058864633862308398199852503
16,103.091000036387465150057948434620441,102.0,1.091000036387465150057948434620441
17,116.303386954428909545979488205038731,115.2,1.103386954428909545979488205038731
18,130.315051625018755980078211623776007,129.2,1.115051625018755980078211623776007
19,145.126073909111434269361441685589977,144.0,1.126073909111434269361441685589977
20,160.736521101244038804726531787579594,159.6,1.136521101244038804726531787579594
21,177.146450435620270290549276160975454,176.0,1.146450435620270290549276160975454
22,194.355910997271458256422128954173918,193.2,1.155910997271458256422128954173918
23,212.364945199995441608838630349907483,211.2,1.164945199995441608838630349907483
24,231.173589943759446544385389440181172,230.0,1.173589943759446544385389440181172
25,250.781877531498589098012885113230730,249.6,1.181877531498589098012885113230730
26,271.189836402926176415500131102904289,270.0,1.189836402926176415500131102904289
27,292.397491727499148266518114456551050,291.2,1.197491727499148266518114456551050
28,314.404865887780148259024404415229090,313.2,1.204865887780148259024404415229090
29,337.211978876642685772787679583375011,336.0,1.211978876642685772787679583375011
30,360.818848626116361875969017226355688,359.6,1.218848626116361875969017226355688
31,385.225491281523194121220718728771289,384.0,1.225491281523194121220718728771289
32,410.431921431478175906217671648422786,409.2,1.231921431478175906217671648422786
33,436.438152302017558844240679629266448,435.2,1.238152302017558844240679629266448
34,463.244195921367801049894108998885410,462.0,1.244195921367801049894108998885410
35,490.850063260528930047083560606400730,489.6,1.250063260528930047083560606400730
36,519.255764353812591127385796828024962,518.0,1.255764353812591127385796828024962
37,548.461308402670968565577095016908806,547.2,1.261308402670968565577095016908806
38,578.466703865522349610638086182326219,577.2,1.266703865522349610638086182326219
39,609.271958535781253906939264157946345,608.0,1.271958535781253906939264157946345
40,640.877079609905231740126198085282194,639.6,1.277079609905231740126198085282194
41,673.282073746953685897988278276574041,672.0,1.282073746953685897988278276574041
42,706.486947120899081161716274181376100,705.2,1.286947120899081161716274181376100
43,740.491705466724421094690146586270051,739.2,1.291705466724421094690146586270051
44,775.296354121172779962291762791076414,774.0,1.296354121172779962291762791076414
45,810.900898058877110431588925293336019,809.6,1.300898058877110431588925293336019
46,847.305341924485414023595611263883413,846.0,1.305341924485414023595611263883413
47,884.509690061302887529163388173134999,883.2,1.309690061302887529163388173134999
48,922.513946536895075355165698520264174,921.2,1.313946536895075355165698520264174
49,961.318115166031398640680326281264767,960.0,1.318115166031398640680326281264767
50,1000.92219953129431301465764578079445,999.6,1.32219953129431301465764578079445
51,1041.32620300163388401332864039314556,1040.0,1.32620300163388401332864039314556
52,1082.53012874910922847370424545325231,1081.2,1.33012874910922847370424545325231
53,1124.53397976402582506118133947146319,1123.2,1.33397976402582506118133947146319
54,1167.33775886865014141557321006820431,1166.0,1.33775886865014141557321006820431
55,1210.94146872965955591908061187393715,1209.6,1.34146872965955591908061187393715
56,1255.34511186946548414842597906976787,1254.0,1.34511186946548414842597906976787
57,1300.54869067653042842575684148961299,1299.2,1.34869067653042842575684148961299
58,1346.55220741478487978351875868266753,1345.2,1.35220741478487978351875868266753
59,1393.35566423223725665863665544434819,1392.0,1.35566423223725665863665544434819
60,1440.95906316885905003514148774197186,1439.6,1.35906316885905003514148774197186
61,1489.36240616381779151954403055520229,1488.0,1.36240616381779151954403055520229
62,1538.56569506212217203530817924131397,1537.2,1.36569506212217203530817924131397
63,1588.56893162073641050672095174215015,1587.2,1.36893162073641050672095174215015
64,1639.37211751421467453419023051340080,1638.0,1.37211751421467453419023051340080
65,1690.97525433990083707020295803122436,1689.6,1.37525433990083707020295803122436
66,1743.37834362273402457396650041944408,1742.0,1.37834362273402457396650041944408
67,1796.58138681969617085802045345560748,1795.2,1.38138681969617085802045345560748
68,1850.58438532393405822014814315232326,1849.2,1.38438532393405822014814315232326
69,1905.38734046858504117860584190455175,1904.0,1.38734046858504117860584190455175
70,1960.99025353033274950078211055751583,1959.6,1.39025353033274950078211055751583
71,2017.39312573271650184964177305610516,2016.0,1.39312573271650184964177305610516
72,2074.59595824921590068536398121048898,2073.2,1.39595824921590068536398121048898
73,2132.59875220613006843147432507880630,2131.2,1.39875220613006843147432507880630
74,2191.40150868526921396653331338514315,2190.0,1.40150868526921396653331338514315
75,2251.00422872647464163965473060837807,2249.6,1.40422872647464163965473060837807
76,2311.40691332998192697562981296762453,2310.0,1.40691332998192697562981296762453
77,2372.60956345864075075675322162243206,2371.2,1.40956345864075075675322162243206
78,2434.61218004000379698236854904747872,2433.2,1.41218004000379698236854904747872
79,2497.41476396829616421423901595743371,2496.0,1.41476396829616421423901595743371
80,2561.01731610627590552307041943508580,2559.6,1.41731610627590552307041943508580
81,2625.41983728699558185940287866803396,2624.0,1.41983728699558185940287866803396
82,2690.62232831547408878400204869082314,2689.2,1.42232831547408878400204869082314
83,2756.62478997028748489291164056451254,2755.2,1.42478997028748489291164056451254
84,2823.42722300508710720218596353809061,2822.0,1.42722300508710720218596353809061
85,2891.02962815005290898320808702377868,2889.6,1.42962815005290898320808702377868
86,2959.43200611328968246770230087228736,2958.0,1.43200611328968246770230087228736
87,3028.63435758217365346700503903571942,3027.2,1.43435758217365346700503903571942
88,3098.63668322465684020147286458108090,3097.2,1.43668322465684020147286458108090
89,3169.43898369053656902340203896343322,3168.0,1.43898369053656902340203896343322
90,3241.04125961269764622024113137663719,3239.6,1.44125961269764622024113137663719
91,3313.44351160833489202983112395098899,3312.0,1.44351160833489202983112395098899
92,3386.64574028016407744611751478538416,3385.2,1.44574028016407744611751478538416
93,3460.64794621762977841922477358521081,3459.2,1.44794621762977841922477358521081
94,3535.45012999811929253110414661806580,3534.0,1.45012999811929253110414661806580
95,3611.05229218819258172371707899966097,3609.6,1.45229218819258172371707899966097
96,3687.45443334483924482744742460325340,3686.0,1.45443334483924482744742460325340
97,3764.65655401677482858298018742097799,3763.2,1.45655401677482858298018742097799
98,3842.65865474579040579448395057082590,3841.2,1.45865474579040579448395057082590
99,3921.46073606817136282958982551661712,3920.0,1.46073606817136282958982551661712
100,4001.06279851620382295027110700787447,3999.6,1.46279851620382295027110700787447
101,4081.46484261979021029912577915309062,4080.0,1.46484261979021029912577915309062
102,4162.66686890819926341288086018532537,4161.2,1.46686890819926341288086018532537
103,4244.66887791198053705026131269295389,4243.2,1.46887791198053705026131269295389
104,4327.47087016507931062438762369636022,4326.0,1.47087016507931062438762369636022
105,4411.07284620719517736204862615244260,4409.6,1.47284620719517736204862615244260
106,4495.47480658643681883191430139568575,4494.0,1.47480658643681883191430139568575
107,4580.67675186233712625042247527193114,4579.2,1.47675186233712625042247527193114
108,4666.67868260930761846089825966849983,4665.2,1.47868260930761846089825966849983
109,4753.48059942063000217353708099277527,4752.0,1.48059942063000217353708099277527
110,4841.08250291310702042978167488346635,4839.6,1.48250291310702042978167488346635
111,4929.48439373252620538593727821249463,4928.0,1.48439373252620538593727821249463
112,5018.68627256013125329425713820020014,5017.2,1.48627256013125329425713820020014
113,5108.68814012034984473382561014134051,5107.2,1.48814012034984473382561014134051
114,5199.48999719009862324719425262107552,5198.0,1.48999719009862324719425262107552
115,5291.09184461008249880794172865681897,5289.6,1.49184461008249880794172865681897
116,5383.49368329863619192527825393737794,5382.0,1.49368329863619192527825393737794
117,5476.69551426883521540465846701326425,5475.2,1.49551426883521540465846701326425
118,5570.69733864985228908510811157288509,5569.2,1.49733864985228908510811157288509
119,5665.49915771388505878644457803154205,5664.0,1.49915771388505878644457803154205
120,5761.10097291048009262876277848779494,5759.6,1.50097291048009262876277848779494
121,5857.50278591080126301988156150424581,5856.0,1.50278591080126301988156150424581
122,5954.70459866545642140903012949533777,5953.2,1.50459866545642140903012949533777
123,6052.70641348109676799428318547215076,6051.2,1.50641348109676799428318547215076
124,6151.50823312345703743950117510708921,6150.0,1.50823312345703743950117510708921
125,6251.11006095835373175352214904895711,6249.6,1.51006095835373175352214904895711
126,6351.51190114835347587607562854499456,6350.0,1.51190114835347587607562854499456
127,6452.71375893308508583083785441275867,6451.2,1.51375893308508583083785441275867
128,6554.71564103873065737041605460700652,6553.2,1.51564103873065737041605460700652
129,6657.51755629342863795964068291386429,6656.0,1.51755629342863795964068291386429
130,6761.11951658318233109781369971345579,6759.6,1.51951658318233109781369971345579
131,6865.52153839571847118239271680171707,6864.0,1.52153839571847118239271680171707
132,6970.72364543338815447082537030066838,6969.2,1.52364543338815447082537030066838
133,7076.72587329611113425267612885460860,7075.2,1.52587329611113425267612885460860
134,7183.52827849998346121130834528398468,7182.0,1.52827849998346121130834528398468
135,7291.13095754201372923488299237790373,7289.6,1.53095754201372923488299237790373
136,7399.53409262334246780619752306924785,7398.0,1.53409262334246780619752306924785
137,7508.73808323952175554790990301735615,7507.2,1.53808323952175554790990301735615
138,7618.74405370942444620518505144654124,7617.2,1.54405370942444620518505144654124
139,7729.55736859377639550308327591595157,7728.0,1.55736859377639550308327591595157
