Eigenstate,Energy,Kinetic Energy,Potential Energy
1,0.500000000235387638395105515832514966,0.0,0.500000000235387638395105515832514966
2,1.84623093918761506090347365200075403,1.2,0.64623093918761506090347365200075403
3,3.93633761421837904205679530893619170,3.2,0.73633761421837904205679530893619170
4,6.79966528721530652363243323903456021,6.0,0.79966528721530652363243323903456021
5,10.4480465915706205167203342643904578,9.6,0.8480465915706205167203342643904578
6,14.8870660220704265926867287707237129,14.0,0.8870660220704265926867287707237129
7,20.1197208601678248325880224539533682,19.2,0.9197208601678248325880224539533682
8,26.1477838922478424743265860202103311,25.2,0.9477838922478424743265860202103311
9,32.9723836173216857938137199809235403,32.0,0.9723836173216857938137199809235403
10,40.5942802895412798444074889522602047,39.6,0.9942802895412798444074889522602047
11,49.0140094790501870295412121042731370,48.0,1.0140094790501870295412121042731370
12,58.2319622811551105030851418336213651,57.2,1.0319622811551105030851418336213651
13,68.2484328259236884088547700235254002,67.2,1.0484328259236884088547700235254002
14,79.0636478110407719635580472774627562,78.0,1.0636478110407719635580472774627562
15,90.6777856176226807070162339324388931,89.6,1.0777856176226807070162339324388931
16,103.090989115087691885379983303286400,102.0,1.090989115087691885379983303286400
17,116.303374494617573766034082619380893,115.2,1.103374494617573766034082619380893
18,130.315037520163804674804675830440786,129.2,1.115037520163804674804675830440786
19,145.126058051551564217851336754243207,144.0,1.126058051551564217851336754243207
20,160.736503382113679420173873076381613,159.6,1.136503382113679420173873076381613
21,177.146430744772328973943442933706453,176.0,1.146430744772328973943442933706453
22,194.355889223197788637814946892647526,193.2,1.155889223197788637814946892647526
23,212.364921229744959894779222043504070,211.2,1.164921229744959894779222043504070
24,231.173563662853795213812047116471811,230.0,1.173563662853795213812047116471811
25,250.781848823845226892885007687180158,249.6,1.181848823845226892885007687180158
26,271.189805150728756783646380803589314,270.0,1.189805150728756783646380803589314
27,292.397457811165033746827676176612730,291.2,1.197457811165033746827676176612730
28,314.404829185824894844228914653599178,313.2,1.204829185824894844228914653599178
29,337.211939265591318428047038614583896,336.0,1.211939265591318428047038614583896
30,360.818805980401249702443065503628052,359.6,1.218805980401249702443065503628052
31,385.225445473378320820358461471023236,384.0,1.225445473378320820358461471023236
32,410.431872330829587985347252541576974,409.2,1.231872330829587985347252541576974
33,436.438099776369760217844042957312246,435.2,1.238099776369760217844042957312246
34,463.244139835685848174549267467266352,462.0,1.244139835685848174549267467266352
35,490.850003477115966340504250593583166,489.6,1.250003477115966340504250593583166
36,519.255700732182543032319706545060122,518.0,1.255700732182543032319706545060122
37,548.461240799416108100567122111941787,547.2,1.261240799416108100567122111941787
38,578.466632134175409474719332459717972,577.2,1.266632134175409474719332459717972
39,609.271882526671761043366978855160586,608.0,1.271882526671761043366978855160586
40,640.876999170009703578004673166095039,639.6,1.276999170009703578004673166095039
41,673.281988719739310134264821352078006,672.0,1.281988719739310134264821352078006
42,706.486857346160474762424234800093211,705.2,1.286857346160474762424234800093211
43,740.491610780413037013658157509986027,739.2,1.291610780413037013658157509986027
44,775.296254355218500712665531577384094,774.0,1.296254355218500712665531577384094
45,810.900793041001535898015137094056340,809.6,1.300793041001535898015137094056340
46,847.305231478006316548745097591494358,846.0,1.305231478006316548745097591494358
47,884.509574004929270103235193745502325,883.2,1.309574004929270103235193745502325
48,922.513824684512228411976810837034622,921.2,1.313824684512228411976810837034622
49,961.317987326475307221847859894600952,960.0,1.317987326475307221847859894600952
50,1000.92206550811471857574817821550172,999.6,1.32206550811471857574817821550172
51,1041.32606259284525354889757926269315,1040.0,1.32606259284525354889757926269315
52,1082.52998174692882752873157906219719,1081.2,1.32998174692882752873157906219719
53,1124.53382595459803012672836813675735,1123.2,1.33382595459803012672836813675735
54,1167.33759803175606067899862535873637,1166.0,1.33759803175606067899862535873637
55,1210.94130063841095479991911140409762,1209.6,1.34130063841095479991911140409762
56,1255.34493628998193288293418463795757,1254.0,1.34493628998193288293418463795757
57,1300.54850736759850247750335460035685,1299.2,1.34850736759850247750335460035685
58,1346.55201612749814928486107909555283,1345.2,1.35201612749814928486107909555283
59,1393.35546470961569756795976779843178,1392.0,1.35546470961569756795976779843178
60,1440.95885514544639626325102252366234,1439.6,1.35885514544639626325102252366234
61,1489.36218936525522285444217003428136,1488.0,1.36218936525522285444217003428136
62,1538.56546920469659606324200198981415,1537.2,1.36546920469659606324200198981415
63,1588.56869641090144652307995970685404,1587.2,1.36869641090144652307995970685404
64,1639.37187264808228212185450726646503,1638.0,1.37187264808228212185450726646503
65,1690.97499950270134985978878102900808,1689.6,1.37499950270134985978878102900808
66,1743.37807848824214872941247845186910,1742.0,1.37807848824214872941247845186910
67,1796.58111104962028583336068085050348,1795.2,1.38111104962028583336068085050348
68,1850.58409856726591179486892368118863,1849.2,1.38409856726591179486892368118863
69,1905.38704236090665884511728651318384,1904.0,1.38704236090665884511728651318384
70,1960.98994369307707670330837842648853,1959.6,1.38994369307707670330837842648853
71,2017.39280377237796266163688807960378,2016.0,1.39280377237796266163688807960378
72,2074.59562375650668404492498282222842,2073.2,1.39562375650668404492498282222842
73,2132.59840475507753820829863515060904,2131.2,1.39840475507753820829863515060904
74,2191.40114783224937638772606357486703,2190.0,1.40114783224937638772606357486703
75,2251.00385400917608661713990893157959,2249.6,1.40385400917608661713990893157959
76,2311.40652426629408136910970195165918,2310.0,1.40652426629408136910970195165918
77,2372.60915954545963317761756767320540,2371.2,1.40915954545963317761756767320540
78,2434.61176075194773570331108798670298,2433.2,1.41176075194773570331108798670298
79,2497.41432875632312088161860872711254,2496.0,1.41432875632312088161860872711254
80,2561.01686439619312466847003487265529,2559.6,1.41686439619312466847003487265529
81,2625.41936847785124455689468332928770,2624.0,1.41936847785124455689468332928770
82,2690.62184177781947058721601983350375,2689.2,1.42184177781947058721601983350375
83,2756.62428504429678283977831031279187,2755.2,1.42428504429678283977831031279187
84,2823.42669899852058410742788659147379,2822.0,1.42669899852058410742788659147379
85,2891.02908433604727716880207775195461,2889.6,1.42908433604727716880207775195461
86,2959.43144172795768021809362877174468,2958.0,1.43144172795768021809362877174468
87,3028.63377182199251653616411992454900,3027.2,1.43377182199251653616411992454900
88,3098.63607524362279111014761899717921,3097.2,1.43607524362279111014761899717921
89,3169.43835259705948340652972431048149,3168.0,1.43835259705948340652972431048149
90,3241.04060446620664228596281990575559,3239.6,1.44060446620664228596281990575559
91,3313.44283141556164759603341264602095,3312.0,1.44283141556164759603341264602095
92,3386.64503399106611468066210788523602,3385.2,1.44503399106611468066210788523602
93,3460.64721272091065578976836543381870,3459.2,1.44721272091065578976836543381870
94,3535.44936811629646944409829591627528,3534.0,1.44936811629646944409829591627528
95,3611.05150067215650765609141115387173,3609.6,1.45150067215650765609141115387173
96,3687.45361086783876908555078381778112,3686.0,1.45361086783876908555078381778112
97,3764.65569916775408186677914936733766,3763.2,1.45569916775408186677914936733766
98,3842.65776602199056696955230931168696,3841.2,1.45776602199056696955230931168696
99,3921.45981186689681948412175023800935,3920.0,1.45981186689681948412175023800935
100,4001.06183712563569888002547648161483,3999.6,1.46183712563569888002547648161483
101,4081.46384220871048998434103610887153,4080.0,1.46384220871048998434103610887153
102,4162.66582751446507085029853702942709,4161.2,1.46582751446507085029853702942709
103,4244.66779342955961577356591198250023,4243.2,1.46779342955961577356591198250023
104,4327.46974032942325444881691394728486,4326.0,1.46974032942325444881691394728486
105,4411.07166857868501518544024656416877,4409.6,1.47166857868501518544024656416877
106,4495.47357853158428933701348655838332,4494.0,1.47357853158428933701348655838332
107,4580.67547053236197601721775356951103,4579.2,1.47547053236197601721775356951103
108,4666.67734491563338693532150270541828,4665.2,1.47734491563338693532150270541828
109,4753.47920200674392259083665261937845,4752.0,1.47920200674392259083665261937845
110,4841.08104212210846864683230630738504,4839.6,1.48104212210846864683230630738504
111,4929.48286556953539544020180563568200,4928.0,1.48286556953539544020180563568200
112,5018.68467264853599415355411413389994,5017.2,1.48467264853599415355411413389994
113,5108.68646365062012763761378986132356,5107.2,1.48646365062012763761378986132356
114,5199.48823885957882511526784827051455,5198.0,1.48823885957882511526784827051455
115,5291.08999855175450954990333478236520,5289.6,1.48999855175450954990333478236520
116,5383.49174299629949812904126876431576,5382.0,1.49174299629949812904126876431576
117,5476.69347245542338460127372437754845,5475.2,1.49347245542338460127372437754845
118,5570.69518718462987117341738055209599,5569.2,1.49518718462987117341738055209599
119,5665.49688743294358396108778581587434,5664.0,1.49688743294358396108778581587434
120,5761.09857344312738014367586712549361,5759.6,1.49857344312738014367586712549361
121,5857.50024545189061670747285817127846,5856.0,1.50024545189061670747285817127846
122,5954.70190369008883174756841500201500,5953.2,1.50190369008883174756841500201500
123,6052.70354838291525710622500197537173,6051.2,1.50354838291525710622500197537173
124,6151.50517975008456344563398337074854,6150.0,1.50517975008456344563398337074854
125,6251.10679800600920928670768053071764,6249.6,1.50679800600920928670768053071764
126,6351.50840335996875034827472678910522,6350.0,1.50840335996875034827472678910522
127,6452.70999601627244494317174286764485,6451.2,1.50999601627244494317174286764485
128,6554.71157617441546860054666426962727,6553.2,1.51157617441546860054666426962727
129,6657.51314402922903901046361451707248,6656.0,1.51314402922903901046361451707248
130,6761.11469977102473400504282969029389,6759.6,1.51469977102473400504282969029389
131,6865.51624358573326988626636598222379,6864.0,1.51624358573326988626636598222379
132,6970.71777565503799243339186233575499,6969.2,1.51777565503799243339186233575499
133,7076.71929615650332114134335668960416,7075.2,1.51929615650332114134335668960416
134,7183.52080526369837596550835018169404,7182.0,1.52080526369837596550835018169404
135,7291.12230314631599774003750888714221,7289.6,1.52230314631599774003750888714221
136,7399.52378997028736974922860494061337,7398.0,1.52378997028736974922860494061337
137,7508.72526589789243462364921466349624,7507.2,1.52526589789243462364921466349624
138,7618.72673108786628712067412718494667,7617.2,1.52673108786628712067412718494667
139,7729.52818569550172124322567393235579,7728.0,1.52818569550172124322567393235579
140,7841.12962987274809470455271220988039,7839.6,1.52962987274809470455271220988039
141,7953.53106376830666918940693304851078,7952.0,1.53106376830666918940693304851078
142,8066.73248752772257678872915102339643,8065.2,1.53248752772257678872915102339643
143,8180.73390129347355433480308377170967,8179.2,1.53390129347355433480308377170967
144,8295.53530520505558018421523825058224,8294.0,1.53530520505558018421523825058224
145,8411.13669939906554380821649457585447,8409.6,1.53669939906554380821649457585447
146,8527.53808400928107068135229436243617,8526.0,1.53808400928107068135229436243617
147,8644.73945916673761675627645910452472,8643.2,1.53945916673761675627645910452472
148,8762.74082499980294785465067780321647,8761.2,1.54082499980294785465067780321647
149,8881.54218163424910577597987240522502,8880.0,1.54218163424910577597987240522502
150,9001.14352919332196476616979732124760,8999.6,1.54352919332196476616979732124760
151,9121.54486779780847426099879336661119,9120.0,1.54486779780847426099879336661119
152,9242.74619756610167820462276054610452,9241.2,1.54619756610167820462276054610452
153,9364.74751861426359989378351227235263,9363.2,1.54751861426359989378351227235263
154,9487.54883105608607624795775351523237,9486.0,1.54883105608607624795775351523237
155,9611.15013500314961974245737679540058,9609.6,1.55013500314961974245737679540058
156,9735.55143056488038587188478819158251,9734.0,1.55143056488038587188478819158251
157,9860.75271784860531719160953293681553,9859.2,1.55271784860531719160953293681553
158,9986.75399695960553575645579203009582,9985.2,1.55399695960553575645579203009582
159,10113.5552680011680476305448504469989,10112.0,1.5552680011680476305448504469989
160,10241.1565310746358258069692355138289,10239.6,1.5565310746358258069692355138289
161,10369.5577862794563300345787691421241,10368.0,1.5577862794563300345787691421241
162,10498.7590337132285230141694828147396,10497.2,1.5590337132285230141694828147396
163,10628.7602734717484378185874222416163,10627.2,1.5602734717484378185874222416163
164,10759.5615056490533511745880109284038,10758.0,1.5615056490533511745880109284038
165,10891.1627303374646112079383629632880,10889.6,1.5627303374646112079383629632880
166,11023.5639476276291701686525649054193,11022.0,1.5639476276291701686525649054193
167,11156.7651576085598693700097730713454,11155.2,1.5651576085598693700097730713454
168,11290.7663603676745190316326108097123,11289.2,1.5663603676745190316326108097123
169,11425.5675559908338180901063631247274,11424.0,1.5675559908338180901063631247274
170,11561.1687445623781537216844925950503,11559.6,1.5687445623781537216844925950503
171,11697.5699261651633207729968410845400,11696.0,1.5699261651633207729968410845400
172,11834.7711008805951989679138938274043,11833.2,1.5711008805951989679138938274043
173,11972.7722687886634232944245132744710,11971.2,1.5722687886634232944245132744710
174,12111.5734299679740834166063307072205,12110.0,1.5734299679740834166063307072205
175,12251.1745844957814860982218866300646,12249.6,1.5745844957814860982218866300646
176,12391.5757324480190103459320812871079,12390.0,1.5757324480190103459320812871079
177,12532.7768738993290885343410305954099,12531.2,1.5768738993290885343410305954099
178,12674.7780089230923426689861204053479,12673.2,1.5780089230923426689861204053479
179,12817.5791375914559022339761680052115,12816.0,1.5791375914559022339761680052115
180,12961.1802599753609345724771645382478,12959.6,1.5802599753609345724771645382478
181,13105.5813761445694104504724799682773,13104.0,1.5813761445694104504724799682773
182,13250.7824861676901325010698518423011,13249.2,1.5824861676901325010698518423011
183,13396.7835901122040496005621411624613,13395.2,1.5835901122040496005621411624613
184,13543.5846880444888814197531302673758,13542.0,1.5846880444888814197531302673758
185,13691.1857800298430749607007826529733,13689.6,1.5857800298430749607007826529733
186,13839.5868661325091140495670689897900,13838.0,1.5868661325091140495670689897900
187,13988.7879464156962055882010053028833,13987.2,1.5879464156962055882010053028833
188,14138.7890209416023580029420096305656,14137.2,1.5890209416023580029420096305656
189,14289.5900897714358756239620154749431,14288.0,1.5900897714358756239620154749431
190,14441.1911529654362846485024692243821,14439.6,1.5911529654362846485024692243821
191,14593.5922105828947099128958238459617,14592.0,1.5922105828947099128958238459617
192,14746.7932626821737188579651760581404,14745.2,1.5932626821737188579651760581404
193,14900.7943093207266509941009859689770,14899.2,1.5943093207266509941009859689770
194,15055.5953505551164462093091604130522,15054.0,1.5953505551164462093091604130522
195,15211.1963864410339898551606005911950,15209.6,1.5963864410339898551606005911950
196,15367.5974170333159883051781159708944,15366.0,1.5974170333159883051781159708944
197,15524.7984423859623893636831539505462,15523.2,1.5984423859623893636831539505462
198,15682.7994625521533616898489935474134,15681.2,1.5994625521533616898489935474134
199,15841.6004775842658460736525903078315,15840.0,1.6004775842658460736525903078315
200,16001.2014875338896925068323273786272,15999.6,1.6014875338896925068323273786272
201,16161.6024924518433940282501607536288,16160.0,1.6024924518433940282501607536288
202,16322.8034923881894307228684106580519,16321.2,1.6034923881894307228684106580519
203,16484.8044873922492345321917114283057,16483.2,1.6044873922492345321917114283057
204,16647.6054775126177864942939561712392,16646.0,1.6054775126177864942939561712392
205,16811.2064627971778563820721684066718,16809.6,1.6064627971778563820721684066718
206,16975.6074432931138977618477687221198,16974.0,1.6074432931138977618477687221198
207,17140.8084190469256043464449880518472,17139.2,1.6084190469256043464449880518472
208,17306.8093901044411418677458939791365,17305.2,1.6093901044411418677458939791365
209,17473.6103565108300612152381800863215,17472.0,1.6103565108300612152381800863215
210,17641.2113183106159043399346905756601,17639.6,1.6113183106159043399346905756601
211,17809.6122755476885102865006891508018,17808.0,1.6122755476885102865006891508018
212,17978.8132282653160315846885094679312,17977.2,1.6132282653160315846885094679312
213,18148.8141765061566653820513184551635,18147.2,1.6141765061566653820513184551635
214,18319.6151203122701142978031848919776,18318.0,1.6151203122701142978031848919776
215,18491.2160597251287762083494017167138,18489.6,1.6160597251287762083494017167138
216,18663.6169947856286769233454255753851,18662.0,1.6169947856286769233454255753851
217,18836.8179255341001497158425372487028,18835.2,1.6179255341001497158425372487028
218,19010.8188520103182706836063047347518,19009.2,1.6188520103182706836063047347518
219,19185.6197742535130532193044269905758,19184.0,1.6197742535130532193044269905758
220,19361.2206923023794141025716844859565,19359.6,1.6206923023794141025716844859565
221,19537.6216061950869091212592733835588,19536.0,1.6216061950869091212592733835588
222,19714.8225159692892554243801772099747,19713.2,1.6225159692892554243801772099747
223,19892.8234216621336341728669041541980,19891.2,1.6234216621336341728669041541980
224,20071.6243233102697885528665575377574,20070.0,1.6243233102697885528665575377574
225,20251.2252209498589197136906243859661,20249.6,1.6252209498589197136906243859661
226,20431.6261146165823841740826129306577,20430.0,1.6261146165823841740826129306577
227,20612.8270043456502013455287021876566,20611.2,1.6270043456502013455287021876566
228,20794.8278901718093729888519447934437,20793.2,1.6278901718093729888519447934437
229,20977.6287721293520217624354143098423,20976.0,1.6287721293520217624354143098423
230,21161.2296502521233535546847990306461,21159.6,1.6296502521233535546847990306461
231,21345.6305245735294453965442497728476,21344.0,1.6305245735294453965442497728476
232,21530.8313951265448693697054612478076,21529.2,1.6313951265448693697054612478076
233,21716.8322619437201475029252226219350,21715.2,1.6322619437201475029252226219350
234,21903.6331250571890538096170931695158,21902.0,1.6331250571890538096170931695158
235,22091.2339844986757566451146696058765,22089.6,1.6339844986757566451146696058765
236,22279.6348402995018110898791022437960,22278.0,1.6348402995018110898791022437960
237,22468.8356924905930049864914616129877,22467.2,1.6356924905930049864914616129877
238,22658.8365411024860603693726329188868,22657.2,1.6365411024860603693726329188868
