Eigenstate,Energy,Kinetic Energy,Potential Energy
1,0.500000061730925457536661043382175395,0.0,0.500000061730925457536661043382175395
2,1.84623134081190786691514286249407628,1.2,0.64623134081190786691514286249407628
3,3.93633879493237810015505702602828985,3.2,0.73633879493237810015505702602828985
4,6.79966774929555866491364992559963217,6.0,0.79966774929555866491364992559963217
5,10.4480508625660032779262828446468865,9.6,0.8480508625660032779262828446468865
6,14.8870726427055611351010613955956587,14.0,0.8870726427055611351010613955956587
7,20.1197303805707315999308103033787313,19.2,0.9197303805707315999308103033787313
8,26.1477968710268807290912101615199871,25.2,0.9477968710268807290912101615199871
9,32.9724006217535453384183535691869480,32.0,0.9724006217535453384183535691869480
10,40.5943018962571417929811250213244726,39.6,0.9943018962571417929811250213244726
11,49.0140362749809202718313171399331312,48.0,1.0140362749809202718313171399331312
12,58.2319948646348128049354667916744186,57.2,1.0319948646348128049354667916744186
13,68.2484718079075719985697592020135958,67.2,1.0484718079075719985697592020135958
14,79.0636938164188137440945380831454117,78.0,1.0636938164188137440945380831454117
15,90.6778392866228844495652479462630270,89.6,1.0778392866228844495652479462630270
16,103.091051104769457070172741789699197,102.0,1.091051104769457070172741789699197
17,116.303445480459604174385671565526078,115.2,1.103445480459604174385671565526078
18,130.315118197753618670970208150531994,129.2,1.115118197753618670970208150531994
19,145.126149138385667094113736554399452,144.0,1.126149138385667094113736554399452
20,160.736605619519177627903510470973173,159.6,1.136605619519177627903510470973173
21,177.146544899962401860890277544242295,176.0,1.146544899962401860890277544242295
22,194.356016091475104091916359635771608,193.2,1.156016091475104091916359635771608
23,212.365061636868906643538388815241804,211.2,1.165061636868906643538388815241804
24,231.173718467589368839406075704840624,230.0,1.173718467589368839406075704840624
25,250.782018920713603957931641292173144,249.6,1.182018920713603957931641292173144
26,271.189991472982076001501844261036828,270.0,1.189991472982076001501844261036828
27,292.397661334010732469291482419754556,291.2,1.197661334010732469291482419754556
28,314.405050929928187592326974043672333,313.2,1.205050929928187592326974043672333
29,337.212180300888125747659212706214579,336.0,1.212180300888125747659212706214579
30,360.819067430258176961359939999692394,359.6,1.219067430258176961359939999692394
31,385.225728519141250387960378387979295,384.0,1.225728519141250387960378387979295
32,410.432178216808207229566928283106510,409.2,1.232178216808207229566928283106510
33,436.438429815312049330850828715663054,435.2,1.238429815312049330850828715663054
34,463.244495414804374029725364913410343,462.0,1.244495414804374029725364913410343
35,490.850386064736987383737822001467826,489.6,1.250386064736987383737822001467826
36,519.256111885099688829671194222472736,518.0,1.256111885099688829671194222472736
37,548.461682171043077753943156084334146,547.2,1.261682171043077753943156084334146
38,578.467105483607131729945947749825818,577.2,1.267105483607131729945947749825818
39,609.272389728781264693910946568549806,608.0,1.272389728781264693910946568549806
40,640.877542226729166701879008561940265,639.6,1.277542226729166701879008561940265
41,673.282569772699147759053200604437462,672.0,1.282569772699147759053200604437462
42,706.487478690890835631150189358444402,705.2,1.287478690890835631150189358444402
43,740.492274882348907175779164677006838,739.2,1.292274882348907175779164677006838
44,775.296963867794270613773142052279141,774.0,1.296963867794270613773142052279141
45,810.901550826175311500926781274044213,809.6,1.301550826175311500926781274044213
46,847.306040629620924179771330660476255,846.0,1.306040629620924179771330660476255
47,884.510437875399023110494403088887581,883.2,1.310437875399023110494403088887581
48,922.514746915426258898448797243339454,921.2,1.314746915426258898448797243339454
49,961.318971883835079271555196189002897,960.0,1.318971883835079271555196189002897
50,1000.92311672308244313228263195785077,999.6,1.32311672308244313228263195785077
51,1041.32718520908092449085135082370284,1040.0,1.32718520908092449085135082370284
52,1082.53118097584939787930967015061906,1081.2,1.33118097584939787930967015061906
53,1124.53510754022034719696644857640170,1123.2,1.33510754022034719696644857640170
54,1167.33896832720955164911244704966659,1166.0,1.33896832720955164911244704966659
55,1210.94276669675989093844009824541566,1209.6,1.34276669675989093844009824541566
56,1255.34650597272688671396337411946924,1254.0,1.34650597272688671396337411946924
57,1300.55018947519825996386792468096357,1299.2,1.35018947519825996386792468096357
58,1346.55382055756155609960143650984259,1345.2,1.35382055756155609960143650984259
59,1393.35740265019575559326524232235193,1392.0,1.35740265019575559326524232235193
60,1440.96093931333077082794115463160394,1439.6,1.36093931333077082794115463160394
61,1489.36443430259594185334789824843076,1488.0,1.36443430259594185334789824843076
62,1538.56789165222921603647183224328783,1537.2,1.36789165222921603647183224328783
63,1588.57131578310934198196488852948138,1587.2,1.37131578310934198196488852948138
64,1639.37471164614799663409108571535816,1638.0,1.37471164614799663409108571535816
65,1690.97808491689542778682485699123073,1689.6,1.37808491689542778682485699123073
66,1743.38144226580540177909968585504856,1742.0,1.38144226580540177909968585504856
67,1796.58479174289645107569574737031704,1795.2,1.38479174289645107569574737031704
68,1850.58814334010723675103437327187371,1849.2,1.38814334010723675103437327187371
69,1905.39150983846545019675773657288520,1904.0,1.39150983846545019675773657288520
70,1960.99490812883703367250355939675368,1959.6,1.39490812883703367250355939675368
71,2017.39836135504945171554656160851077,2016.0,1.39836135504945171554656160851077
72,2074.60190256125917733532443228985627,2073.2,1.40190256125917733532443228985627
73,2132.60558127088449702473615527706072,2131.2,1.40558127088449702473615527706072
74,2191.40947624932783629011403652708777,2190.0,1.40947624932783629011403652708777
75,2251.01372271016074680431325212001882,2249.6,1.41372271016074680431325212001882
76,2311.41857820764725026309592031523875,2310.0,1.41857820764725026309592031523875
77,2372.62461457285774111180840082607257,2371.2,1.42461457285774111180840082607257
78,2434.63347030368019915448263209027058,2433.2,1.43347030368019915448263209027058
79,2497.45321006480967405388294262296363,2496.0,1.45321006480967405388294262296363
