Eigenstate,Energy,Kinetic Energy,Potential Energy
1,0.500000000753062043642583325806513244,0.0,0.500000000753062043642583325806513244
2,1.84623094256682619675425804001821012,1.2,0.64623094256682619675425804001821012
3,3.93633762414500614153009727291296219,3.2,0.73633762414500614153009727291296219
4,6.79966530789267022456705715479142777,6.0,0.79966530789267022456705715479142777
5,10.4480466273909881936274380543704724,9.6,0.8480466273909881936274380543704724
6,14.8870660775048018285754496838165926,14.0,0.8870660775048018285754496838165926
7,20.1197209397256438780471863915343254,19.2,0.9197209397256438780471863915343254
8,26.1477840004604472083510370947273463,25.2,0.9477840004604472083510370947273463
9,32.9723837587348974069360703228855179,32.0,0.9723837587348974069360703228855179
10,40.5942804687118685611825301318809677,39.6,0.9942804687118685611825301318809677
11,49.0140097005441766385842510334159968,48.0,1.0140097005441766385842510334159968
12,58.2319625495470186256826701491404661,57.2,1.0319625495470186256826701491404661
13,68.2484331457962769539137219371903033,67.2,1.0484331457962769539137219371903033
14,79.0636481869850919794092416832870184,78.0,1.0636481869850919794092416832870184
15,90.6777860542382956366031737986520866,89.6,1.0777860542382956366031737986520866
16,103.090989616983013698981433062029383,102.0,1.090989616983013698981433062029383
17,116.303375066410273345222889073561432,115.2,1.103375066410273345222889073561432
18,130.315038166481272828173013167029895,129.2,1.115038166481272828173013167029895
19,145.126058777031408421771133378105018,144.0,1.126058777031408421771133378105018
20,160.736504191404246617209160877368518,159.6,1.136504191404246617209160877368518
21,177.146431642533248011888997891184948,176.0,1.146431642533248011888997891184948
22,194.355890214100528005651282767490742,193.2,1.155890214100528005651282767490742
23,212.364922318473397767814497725606291,211.2,1.164922318473397767814497725606291
24,231.173564854104799727377683087404393,230.0,1.173564854104799727377683087404393
25,250.781850122329245183365566015816440,249.6,1.181850122329245183365566015816440
26,271.189806561170411766629513888007758,270.0,1.189806561170411766629513888007758
27,292.397459338303727907318172797978514,291.2,1.197459338303727907318172797978514
28,314.404830834415420533442025011895033,313.2,1.204830834415420533442025011895033
29,337.211941040404474321693868925465089,336.0,1.211941040404474321693868925465089
30,360.818807886224463194283014982967825,359.6,1.218807886224463194283014982967825
31,385.225447515016276214094116270027296,384.0,1.225447515016276214094116270027296
32,410.431874513104860415925713358512318,409.2,1.231874513104860415925713358512318
33,436.438102104123455285673083596137479,435.2,1.238102104123455285673083596137479
34,463.244142313778247317119782370888823,462.0,1.244142313778247317119782370888823
35,490.850006110427177998360088034887409,489.6,1.250006110427177998360088034887409
36,519.255703525613159692352901045506015,518.0,1.255703525613159692352901045506015
37,548.461243757887869320798899645126456,547.2,1.261243757887869320798899645126456
38,578.466635262631871012203902764273703,577.2,1.266635262631871012203902764273703
39,609.271885830078970221488484976329484,608.0,1.271885830078970221488484976329484
40,640.877002653356881041877352761201573,639.6,1.277002653356881041877352761201573
41,673.281992388039538153684469943911754,672.0,1.281992388039538153684469943911754
42,706.486861204451392251237002493858746,705.2,1.286861204451392251237002493858746
43,740.491614833757541442801990115713759,739.2,1.291614833757541442801990115713759
44,775.296258608705457101728786329619146,774.0,1.296258608705457101728786329619146
45,810.900797499746493077125310302834944,809.6,1.300797499746493077125310302834944
46,847.305236147152230889091510882837955,846.0,1.305236147152230889091510882837955
47,884.509578889647236920652851226765652,883.2,1.309578889647236920652851226765652
48,922.513829790002221253868611338418542,921.2,1.313829790002221253868611338418542
49,961.317992657966925253369529709247066,960.0,1.317992657966925253369529709247066
50,1000.92207107086794228668567652398003,999.6,1.32207107086794228668567652398003
51,1041.32606839215120900808002775780845,1040.0,1.32606839215120900808002775780845
52,1082.52998778811055941818273257391555,1081.2,1.32998778811055941818273257391555
53,1124.53383224301128379310127858014462,1123.2,1.33383224301128379310127858014462
54,1167.33760457279007344519150828991799,1166.0,1.33760457279007344519150828991799
55,1210.94130743748925678515648754794469,1209.6,1.34130743748925678515648754794469
56,1255.34494335256315758504004848875229,1254.0,1.34494335256315758504004848875229
57,1300.54851469917720737660771748476226,1299.2,1.34851469917720737660771748476226
58,1346.55202373360564673338978358558683,1345.2,1.35202373360564673338978358558683
59,1393.35547259582089623746310096263953,1392.0,1.35547259582089623746310096263953
60,1440.95886331735665342445429419936095,1439.6,1.35886331735665342445429419936095
61,1489.36219782851720777285490442017545,1488.0,1.36219782851720777285490442017545
62,1538.56547796499716479875476878352822,1537.2,1.36547796499716479875476878352822
63,1588.56870547396852842821936809086469,1587.2,1.36870547396852842821936809086469
64,1639.37188201968577833976482076953565,1638.0,1.37188201968577833976482076953565
65,1690.97500918865404412957799532307292,1689.6,1.37500918865404412957799532307292
66,1743.37808849440063081324018767794747,1742.0,1.37808849440063081324018767794747
67,1796.58112138188588788657253409651200,1795.2,1.38112138188588788657253409651200
68,1850.58410923158565800760120780155116,1849.2,1.38410923158565800760120780155116
69,1905.38705336327422869111528846641505,1904.0,1.38705336327422869111528846641505
70,1960.98995503953378213922753312773314,1959.6,1.38995503953378213922753312773314
71,2017.39281546901373962784359222274982,2016.0,1.39281546901373962784359222274982
72,2074.59563580946109862677989409382881,2073.2,1.39563580946109862677989409382881
73,2132.59841717054080782511094797717854,2131.2,1.39841717054080782511094797717854
74,2191.40116061646340638500864137325136,2190.0,1.40116061646340638500864137325136
75,2251.00386716843552264649096441675709,2249.6,1.40386716843552264649096441675709
76,2311.40653780694737794899765850722223,2310.0,1.40653780694737794899765850722223
77,2372.60917347391013883756630311324249,2371.2,1.40917347391013883756630311324249
78,2434.61177507465479512348020024460503,2433.2,1.41177507465479512348020024460503
79,2497.41434347980319444955560950671542,2496.0,1.41434347980319444955560950671542
80,2561.01687952702092588488811723115192,2559.6,1.41687952702092588488811723115192
81,2625.41938402266089573271632135146865,2624.0,1.41938402266089573271632135146865
82,2690.62185774330567728482052968667809,2689.2,1.42185774330567728482052968667809
83,2756.62430143721602752241847693003054,2755.2,1.42430143721602752241847693003054
84,2823.42671582569233947214331569774433,2822.0,1.42671582569233947214331569774433
85,2891.02910160435523964987058601990939,2889.6,1.42910160435523964987058601990939
86,2959.43145944435102416013213765673571,2958.0,1.43145944435102416013213765673571
87,3028.63378999348716954843754742998492,3027.2,1.43378999348716954843754742998492
88,3098.63609387730273112647378310130806,3097.2,1.43609387730273112647378310130806
89,3169.43837170007805798839370193147839,3168.0,1.43837170007805798839370193147839
90,3241.04062404578791072009719755112690,3239.6,1.44062404578791072009719755112690
91,3313.44285147900174635178110786857190,3312.0,1.44285147900174635178110786857190
92,3386.64505454573464680694852704050337,3385.2,1.44505454573464680694852704050337
93,3460.64723377425210484646241901049276,3459.2,1.44723377425210484646241901049276
94,3535.44938967583163857797671917040896,3534.0,1.44938967583163857797671917040896
95,3611.05152274548398444753757536869112,3609.6,1.45152274548398444753757536869112
96,3687.45363346263641680853395010489258,3686.0,1.45363346263641680853395010489258
97,3764.65572229178055782160924602942235,3763.2,1.45572229178055782160924602942235
98,3842.65778968308686856537974591254533,3841.2,1.45778968308686856537974591254533
99,3921.45983607298785876619106166756560,3920.0,1.45983607298785876619106166756560
100,4001.06186188473190621531161451201641,3999.6,1.46186188473190621531161451201641
101,4081.46386752890944763840640021482889,4080.0,1.46386752890944763840640021482889
102,4162.66585340395317720804403315866548,4161.2,1.46585340395317720804403315866548
103,4244.66781989661378097702339763562595,4243.2,1.46781989661378097702339763562595
104,4327.46976738241262824627098405712303,4326.0,1.46976738241262824627098405712303
105,4411.07169622607274780798883334625010,4409.6,1.47169622607274780798883334625010
106,4495.47360678192932624122128372215134,4494.0,1.47360678192932624122128372215134
107,4580.67549939432088735579013736914479,4579.2,1.47549939432088735579013736914479
108,4666.67737439796223264176886194468726,4665.2,1.47737439796223264176886194468726
109,4753.47923211830015398894070287443913,4752.0,1.47923211830015398894070287443913
110,4841.08107287185286752137631671868776,4839.6,1.48107287185286752137631671868776
111,4929.48289696653405153194321697257167,4928.0,1.48289696653405153194321697257167
112,5018.68470470196232206880966746049249,5017.2,1.48470470196232206880966746049249
113,5108.68649636975692419114170414791037,5107.2,1.48649636975692419114170414791037
114,5199.48827225382036815439075971742622,5198.0,1.48827225382036815439075971742622
115,5291.09003263060869933806909478665227,5289.6,1.49003263060869933806909478665227
116,5383.49177776939004239828917293941419,5382.0,1.49177776939004239828917293941419
117,5476.69350793249202841541036232334796,5475.2,1.49350793249202841541036232334796
118,5570.69522337553867277714673666821710,5569.2,1.49522337553867277714673666821710
119,5665.49692434767723782492115359900357,5664.0,1.49692434767723782492115359900357
120,5761.09861109179558845022127929709179,5759.6,1.49861109179558845022127929709179
121,5857.50028384473051056171050784192913,5856.0,1.50028384473051056171050784192913
122,5954.70194283746744343200950245260743,5953.2,1.50194283746744343200950245260743
123,6052.70358829533204474146915599682817,6051.2,1.50358829533204474146915599682817
124,6151.50522043817398945785005311851316,6150.0,1.50522043817398945785005311851316
125,6251.10683948054337412600229463536245,6249.6,1.50683948054337412600229463536245
126,6351.50844563186008294585516825215705,6350.0,1.50844563186008294585516825215705
127,6452.71003909657645144070028415451906,6451.2,1.51003909657645144070028415451906
128,6554.71162007433354093219283875733682,6553.2,1.51162007433354093219283875733682
129,6657.51318876011132496694892636946069,6656.0,1.51318876011132496694892636946069
130,6761.11474534437307045950606929778604,6759.6,1.51474534437307045950606929778604
131,6865.51629001320418091413596452967875,6864.0,1.51629001320418091413596452967875
132,6970.71782294844575411269733891146136,6969.2,1.51782294844575411269733891146136
133,7076.71934432782309487610431898249783,7075.2,1.51934432782309487610431898249783
134,7183.52085432506941223311140074881358,7182.0,1.52085432506941223311140074881358
135,7291.12235311004491222390440952061766,7289.6,1.52235311004491222390440952061766
136,7399.52384084885149388069065939335049,7398.0,1.52384084885149388069065939335049
137,7508.72531770394324262187901390290299,7507.2,1.52531770394324262187901390290299
138,7618.72678383423290168686112682112709,7617.2,1.52678383423290168686112682112709
139,7729.52823939519450013503051934304656,7728.0,1.52823939519450013503051934304656
140,7841.12968453896230048934237920779677,7839.6,1.52968453896230048934237920779677
141,7953.53111941442622454995447475261122,7952.0,1.53111941442622454995447475261122
142,8066.73254416732390783310462737059805,8065.2,1.53254416732390783310462737059805
143,8180.73395894032952444316893443836862,8179.2,1.53395894032952444316893443836862
144,8295.53536387313951700932331983694396,8294.0,1.53536387313951700932331983694396
145,8411.13675910255536213371537660728632,8409.6,1.53675910255536213371537660728632
146,8527.53814476256349393267718463901043,8526.0,1.53814476256349393267718463901043
147,8644.73952098441250005307679458991406,8643.2,1.53952098441250005307679458991406
148,8762.74088789668770559154423207423121,8761.2,1.54088789668770559154423207423121
149,8881.54224562538324682009025862941939,8880.0,1.54224562538324682009025862941939
150,9001.14359429397173846554964815727100,8999.6,1.54359429397173846554964815727100
151,9121.54493402347163056787539908319509,9120.0,1.54493402347163056787539908319509
152,9242.74626493251234533156628012931394,9241.2,1.54626493251234533156628012931394
153,9364.74758713739728303963330321471384,9363.2,1.54758713739728303963330321471384
154,9487.54890075216478105381926977009370,9486.0,1.54890075216478105381926977009370
155,9611.15020588864710426653677562306554,9609.6,1.55020588864710426653677562306554
156,9735.55150265652754500557306576132801,9734.0,1.55150265652754500557306576132801
157,9860.75279116339570357830855452625645,9859.2,1.55279116339570357830855452625645
158,9986.75407151480102141941226910726265,9985.2,1.55407151480102141941226910726265
159,10113.5553438143046306666595403835152,10112.0,1.5553438143046306666595403835152
160,10241.1566081635295866604940012710385,10239.6,1.5566081635295866604940012710385
161,10369.5578646622095420280625468261282,10368.0,1.5578646622095420280625468261282
162,10498.7591134082359219842871641847578,10497.2,1.5591134082359219842871641847578
163,10628.7603544977036558818913067123625,10627.2,1.5603544977036558818913067123625
164,10759.5615880249555198331288800857059,10758.0,1.5615880249555198331288800857059
165,10891.1628140826251391974338863679864,10889.6,1.5628140826251391974338863679864
166,11023.5640327616787016528240210145709,11022.0,1.5640327616787016528240210145709
167,11156.7652441514554282942841857273936,11155.2,1.5652441514554282942841857273936
168,11290.7664483397068456679975772120709,11289.2,1.5664483397068456679975772120709
169,11425.5676454126349040329591424665097,11424.0,1.5676454126349040329591424665097
170,11561.1688354549289818325322035757337,11559.6,1.5688354549289818325322035757337
171,11697.5700185498018168202861815196001,11696.0,1.5700185498018168202861815196001
172,11834.7711947790244019676440442806754,11833.2,1.5711947790244019676440442806754
173,11972.7723642229598818280575873171611,11971.2,1.5723642229598818280575873171611
174,12111.5735269605964854857223078641343,12110.0,1.5735269605964854857223078641343
175,12251.1746830695795303709792961032457,12249.6,1.5746830695795303709792961032457
176,12391.5758326262425269593277622737792,12390.0,1.5758326262425269593277622737792
177,12532.7769757056374179391824457297605,12531.2,1.5769757056374179391824457297605
178,12674.7781123815639813421676954131259,12673.2,1.5781123815639813421676954131259
179,12817.5792427265984244357698866941729,12816.0,1.5792427265984244357698866941729
180,12961.1803668121211996959906990514300,12959.6,1.5803668121211996959906990514300
181,13105.5814847083440658969897229771594,13104.0,1.5814847083440658969897229771594
182,13250.7825964843364224195970813251179,13249.2,1.5825964843364224195970813251179
183,13396.7837022080509402535242836893890,13395.2,1.5837022080509402535242836893890
184,13543.5848019463485143803975323464798,13542.0,1.5848019463485143803975323464798
185,13691.1858957650225598124673914153800,13689.6,1.5858957650225598124673914153800
186,13839.5869837288226727446132531876576,13838.0,1.5869837288226727446132531876576
187,13988.7880659014776811326162229613416,13987.2,1.5880659014776811326162229613416
188,14138.7891423457181006712473567672744,14137.2,1.5891423457181006712473567672744
189,14289.5902131232980204665978799127816,14288.0,1.5902131232980204665978799127816
190,14441.1912782950164346446464975276998,14439.6,1.5912782950164346446464975276998
191,14593.5923379207380397385910023781702,14592.0,1.5923379207380397385910023781702
192,14746.7933920594135148878659249729075,14745.2,1.5933920594135148878659249729075
193,14900.7944407690993038358543232218507,14899.2,1.5944407690993038358543232218507
194,15055.5954841069769127845202441268184,15054.0,1.5954841069769127845202441268184
195,15211.1965221293717427919977320620540,15209.6,1.5965221293717427919977320620540
196,15367.5975548917714711970625762974692,15366.0,1.5975548917714711970625762974692
197,15524.7985824488439972783565591061711,15523.2,1.5985824488439972783565591061711
198,15682.7996048544549671857808148142813,15681.2,1.5996048544549671857808148142813
199,15841.6006221616848918988144932300013,15840.0,1.6006221616848918988144932300013
200,16001.2016344228458731208797316216660,15999.6,1.6016344228458731208797316216660
201,16161.6026416894979491060978519844080,16160.0,1.6026416894979491060978519844080
202,16322.8036440124650748685084808281884,16321.2,1.6036440124650748685084808281884
203,16484.8046414418507485595942921168566,16483.2,1.6046414418507485595942921168566
204,16647.6056340270532968209294045033655,16646.0,1.6056340270532968209294045033655
205,16811.2066218167808303335693016536001,16809.6,1.6066218167808303335693016536001
206,16975.6076048590658839076450350303393,16974.0,1.6076048590658839076450350303393
207,17140.8085832012797483801395937242590,17139.2,1.6085832012797483801395937242590
208,17306.8095568901465100167674504713071,17305.2,1.6095568901465100167674504713071
209,17473.6105259717568047173378444100094,17472.0,1.6105259717568047173378444100094
210,17641.2114904915813001638984438019225,17639.6,1.6114904915813001638984438019225
211,17809.6124504944839150071418319173981,17808.0,1.6124504944839150071418319173981
212,17978.8134060247347871533591216968969,17977.2,1.6134060247347871533591216968969
213,18148.8143571260229974701857647469410,18147.2,1.6143571260229974701857647469410
214,18319.6153038414690659390657593960762,18318.0,1.6153038414690659390657593960762
215,18491.2162462136372216322526892104802,18489.6,1.6162462136372216322526892104802
216,18663.6171842845474627676044557799361,18662.0,1.6171842845474627676044557799361
217,18836.8181180956874132347075947432575,18835.2,1.6181180956874132347075947432575
218,19010.8190476880239871441011086323067,19009.2,1.6190476880239871441011086323067
219,19185.6199731020148674064949285548491,19184.0,1.6199731020148674064949285548491
220,19361.2208943776198137492593195271991,19359.6,1.6208943776198137492593195271991
221,19537.6218115543118011482114556119534,19536.0,1.6218115543118011482114556119534
222,19714.8227246710880091365948817086073,19713.2,1.6227246710880091365948817086073
223,19892.8236337664806590186663815777200,19891.2,1.6236337664806590186663815777200
224,20071.6245388785677177300193810062127,20070.0,1.6245388785677177300193810062127
225,20251.2254400449834748157111770956762,20249.6,1.6254400449834748157111770956762
226,20431.6263373029290002268703843482053,20430.0,1.6263373029290002268703843482053
227,20612.8272306891824960075896983548089,20611.2,1.6272306891824960075896983548089
228,20794.8281202401095483969009993076891,20793.2,1.6281202401095483969009993076891
229,20977.6290059916732925191224395294240,20976.0,1.6290059916732925191224395294240
230,21161.2298879794444996993564552858932,21159.6,1.6298879794444996993564552858932
231,21345.6307662386115948978906024703766,21344.0,1.6307662386115948978906024703766
232,21530.8316408039906207575885473084317,21529.2,1.6316408039906207575885473084317
233,21716.8325117100351497446048942912787,21715.2,1.6325117100351497446048942912787
234,21903.6333789908461674643962857929843,21902.0,1.6333789908461674643962857929843
235,22091.2342426801819277353785297719222,22089.6,1.6342426801819277353785297719222
236,22279.6351028114677970426073514166702,22278.0,1.6351028114677970426073514166702
237,22468.8359594178061004681797913082903,22467.2,1.6359594178061004681797913082903
238,22658.8368125319859799027430916849853,22657.2,1.6368125319859799027430916849853
