Eigenstate,Energy,Kinetic Energy,Potential Energy
1,0.500000000014203599222716547465766240,0.0,0.500000000014203599222716547465766240
2,1.84623093774382829626252285254576216,1.2,0.64623093774382829626252285254576216
3,3.93633760997731434208898755645167795,3.2,0.73633760997731434208898755645167795
4,6.79966527838148870641078566726098948,6.0,0.79966527838148870641078566726098948
5,10.4480465762682776517971496560048307,9.6,0.8480465762682776517971496560048307
6,14.8870659983907285471666502494676304,14.0,0.8870659983907285471666502494676304
7,20.1197208261862533280582263174536044,19.2,0.9197208261862533280582263174536044
8,26.1477838460314026305124041551301402,25.2,0.9477838460314026305124041551301402
9,32.9723835569322296390885811257204258,32.0,0.9723835569322296390885811257204258
10,40.5942802130371656077089657796936036,39.6,0.9942802130371656077089657796936036
11,49.0140093844871549463417321958110315,48.0,1.0140093844871549463417321958110315
12,58.2319621665867593206586621588455681,57.2,1.0319621665867593206586621588455681
13,68.2484326894017344619531513552199391,67.2,1.0484326894017344619531513552199391
14,79.0636476506151830694821954255282190,78.0,1.0636476506151830694821954255282190
15,90.6777854313417344912963151796797570,89.6,1.0777854313417344912963151796797570
16,103.090988900997986587432453168916919,102.0,1.090988900997986587432453168916919
17,116.303374250764008081888280034164901,115.2,1.103374250764008081888280034164901
18,130.315037244589536782914040550285916,129.2,1.115037244589536782914040550285916
19,145.126057742297956412079942117126062,144.0,1.126057742297956412079942117126062
20,160.736503037220232536129439770197462,159.6,1.136503037220232536129439770197462
21,177.146430362276609406706443763134815,176.0,1.146430362276609406706443763134815
22,194.355888801135349863889402692585517,193.2,1.155888801135349863889402692585517
23,212.364920766149259832359612030573090,211.2,1.164920766149259832359612030573090
24,231.173563155756110368530940230443426,230.0,1.173563155756110368530940230443426
25,250.781848271274563972207718326190245,249.6,1.181848271274563972207718326190245
26,271.189804550711762279600349032708764,270.0,1.189804550711762279600349032708764
27,292.397457161725901857068433188284014,291.2,1.197457161725901857068433188284014
28,314.404828484985274008352267112011295,313.2,1.204828484985274008352267112011295
29,337.211938511370216688275177032302995,336.0,1.211938511370216688275177032302995
30,360.818805170814939047806189877357932,359.6,1.218805170814939047806189877357932
31,385.225444606440240636148864947196688,384.0,1.225444606440240636148864947196688
32,410.431871404550247701415979546811774,409.2,1.231871404550247701415979546811774
33,436.438098788756641227778110825317199,435.2,1.238098788756641227778110825317199
34,463.244138784743305081166633110198934,462.0,1.244138784743305081166633110198934
35,490.850002360845127570184383877681262,489.6,1.250002360845127570184383877681262
36,519.255699548581210850544564229115878,518.0,1.255699548581210850544564229115878
37,548.461239546478658053015776333709195,547.2,1.261239546478658053015776333709195
38,578.466630809892689271849731568941660,577.2,1.266630809892689271849731568941660
39,609.271881129030988901262459347693507,608.0,1.271881129030988901262459347693507
40,640.876997696994366024084953141952221,639.6,1.276997696994366024084953141952221
41,673.281987169329059283051228333763720,672.0,1.281987169329059283051228333763720
42,706.486855716331025063745648344265443,705.2,1.286855716331025063745648344265443
43,740.491609069136061473363543094221620,739.2,1.291609069136061473363543094221620
44,775.296252560461526583974960906971709,774.0,1.296252560461526583974960906971709
45,810.900791160727839840017472655218828,809.6,1.300791160727839840017472655218828
46,847.305229510174819247178081412299628,846.0,1.305229510174819247178081412299628
47,884.509571947494430347515929802029276,883.2,1.309571947494430347515929802029276
48,922.513822535423936621448719706964642,921.2,1.313822535423936621448719706964642
49,961.317985083678778413345503053870815,960.0,1.317985083678778413345503053870815
50,1000.92206316955038476382885963148933,999.6,1.32206316955038476382885963148933
51,1041.32606015644865556942841493400949,1040.0,1.32606015644865556942841493400949
52,1082.52997921063050627593789118145776,1081.2,1.32997921063050627593789118145776
53,1124.53382331632341719328997481389493,1123.2,1.33382331632341719328997481389493
54,1167.33759528942536838831400203095462,1166.0,1.33759528942536838831400203095462
55,1210.94129778993906561923544176551005,1209.6,1.34129778993906561923544176551005
56,1255.34493333327828820565593670437475,1254.0,1.34493333327828820565593670437475
57,1300.54850430056699076263788622088845,1299.2,1.34850430056699076263788622088845
58,1346.55201294803699354123019651144399,1345.2,1.35201294803699354123019651144399
59,1393.35546141561734217049982136389409,1392.0,1.35546141561734217049982136389409
60,1440.95885173479739308843408733435179,1439.6,1.35885173479739308843408733435179
61,1489.36218583583611672157653592352768,1488.0,1.36218583583611672157653592352768
62,1538.56546555438180946814751260623089,1537.2,1.36546555438180946814751260623089
63,1588.56869263755916365038191365891752,1587.2,1.36869263755916365038191365891752
64,1639.37186874957433212189589208020976,1638.0,1.37186874957433212189589208020976
65,1690.97499547688308937592275065653028,1689.6,1.37499547688308937592275065653028
66,1743.37807433296234366120534486386226,1742.0,1.37807433296234366120534486386226
67,1796.58110676272099232100742468646935,1795.2,1.38110676272099232100742468646935
68,1850.58409414658235640989866267767140,1849.2,1.38409414658235640989866267767140
69,1905.38703780426711797224200243141186,1904.0,1.38703780426711797224200243141186
70,1960.98993899830275509804868068212484,1959.6,1.38993899830275509804868068212484
71,2017.39279893728287116813553131021243,2016.0,1.39279893728287116813553131021243
72,2074.59561877889751645813999559989798,2073.2,1.39561877889751645813999559989798
73,2132.59839963275354726454503768088872,2131.2,1.39839963275354726454503768088872
74,2191.40114256300224886731385096197925,2190.0,1.40114256300224886731385096197925
75,2251.00384859078981754263147019380375,2249.6,1.40384859078981754263147019380375
76,2311.40651869654484728249545893105638,2310.0,1.40651869654484728249545893105638
77,2372.60915382211566447947994038730737,2371.2,1.40915382211566447947994038730737
78,2434.61175487276918803681723724701901,2433.2,1.41175487276918803681723724701901
79,2497.41432271906194554394930087973071,2496.0,1.41432271906194554394930087973071
80,2561.01685819859293803205683629056782,2559.6,1.41685819859293803205683629056782
81,2625.41936211764719648259749408431262,2624.0,1.41936211764719648259749408431262
82,2690.62183525273811181133111666710808,2689.2,1.42183525273811181133111666710808
83,2756.62427835205593131652045552885619,2755.2,1.42427835205593131652045552885619
84,2823.42669213682919028827969884991504,2822.0,1.42669213682919028827969884991504
85,2891.02907730260528819986952868448425,2889.6,1.42907730260528819986952868448425
86,2959.43143452045590303634819371551504,2958.0,1.43143452045590303634819371551504
87,3028.63376443811247984518820416071419,3027.2,1.43376443811247984518820416071419
88,3098.63606768103660621573263816888226,3097.2,1.43606768103660621573263816888226
89,3169.43834485342970389220358330943826,3168.0,1.43834485342970389220358330943826
90,3241.04059653918612250824595543256043,3239.6,1.44059653918612250824595543256043
91,3313.44282330279339997893929928579105,3312.0,1.44282330279339997893929928579105
92,3386.64502569018316578867105227560305,3385.2,1.44502569018316578867105227560305
93,3460.64720422953590115820914921455552,3459.2,1.44720422953590115820914921455552
94,3535.44935943204252714557375270603745,3534.0,1.44935943204252714557375270603745
95,3611.05149179262557058127888726216461,3609.6,1.45149179262557058127888726216461
96,3687.45360179062245591639837428964497,3686.0,1.45360179062245591639837428964497
97,3764.65568989043328671980080893871723,3763.2,1.45568989043328671980080893871723
98,3842.65775654213530768660369898675045,3841.2,1.45775654213530768660369898675045
99,3921.45980218206608454770768135708587,3920.0,1.45980218206608454770768135708587
100,4001.06182723337729292985575447434921,3999.6,1.46182723337729292985575447434921
101,4081.46383210656087791150791553773992,4080.0,1.46383210656087791150791553773992
102,4162.66581719994922044510057391843422,4161.2,1.46581719994922044510057391843422
103,4244.66778290019083890264720851321355,4243.2,1.46778290019083890264720851321355
104,4327.46972958270304673692631513083476,4326.0,1.46972958270304673692631513083476
105,4411.07165761210289417674584033962340,4409.6,1.47165761210289417674584033962340
106,4495.47356734261763111052953970010451,4494.0,1.47356734261763111052953970010451
107,4580.67545911847585023051531529346917,4579.2,1.47545911847585023051531529346917
108,4666.67733327428039027030119720881214,4665.2,1.47733327428039027030119720881214
109,4753.47919013536401057494045988080533,4752.0,1.47919013536401057494045988080533
110,4841.08103001812878582266233482610369,4839.6,1.48103001812878582266233482610369
111,4929.48285323037010385609623166741954,4928.0,1.48285323037010385609623166741954
112,5018.68466007158610014724391789133199,5017.2,1.48466007158610014724391789133199
113,5108.68645083327330688465003922108921,5107.2,1.48645083327330688465003922108921
114,5199.48822579920924591346501327150296,5198.0,1.48822579920924591346501327150296
115,5291.08998524572265431059176125780683,5289.6,1.48998524572265431059176125780683
116,5383.49172944195198304545952059703464,5382.0,1.49172944195198304545952059703464
117,5476.69345865009277746396122463815821,5475.2,1.49345865009277746396122463815821
118,5570.69517312563450730198535137306908,5569.2,1.49517312563450730198535137306908
119,5665.49687311758738022125686473778380,5664.0,1.49687311758738022125686473778380
120,5761.09855886869964701796687084603726,5759.6,1.49855886869964701796687084603726
121,5857.50023061566586838742639876210479,5856.0,1.50023061566586838742639876210479
122,5954.70188858932659421484691729544645,5953.2,1.50188858932659421484691729544645
123,6052.70353301485987416941821736913671,6051.2,1.50353301485987416941821736913671
124,6151.50516411196500069904560440720440,6150.0,1.50516411196500069904560440720440
125,6251.10678209503885595684526538774356,6249.6,1.50678209503885595684526538774356
126,6351.50838717334521899319909022094553,6350.0,1.50838717334521899319909022094553
127,6452.70997955117736896928384836877934,6451.2,1.50997955117736896928384836877934
128,6554.71155942801429756079971784039916,6553.2,1.51155942801429756079971784039916
129,6657.51312699867083164738507337230913,6656.0,1.51312699867083164738507337230913
130,6761.11468245344194900133715827386132,6759.6,1.51468245344194900133715827386132
131,6865.51622597824155428514019600194685,6864.0,1.51622597824155428514019600194685
132,6970.71775775473596769010167184441431,6969.2,1.51775775473596769010167184441431
133,7076.71927796047236676681365054699211,7075.2,1.51927796047236676681365054699211
134,7183.52078676900241072219699216580665,7182.0,1.52078676900241072219699216580665
135,7291.12228435000125834954395258809990,7289.6,1.52228435000125834954395258809990
136,7399.52377086938218707044429149328754,7398.0,1.52377086938218707044429149328754
137,7508.72524648940700725953632533159312,7507.2,1.52524648940700725953632533159312
138,7618.72671136879245241103387232423693,7617.2,1.52671136879245241103387232423693
139,7729.52816566281272360007435779468636,7728.0,1.52816566281272360007435779468636
140,7841.12960952339835124596508977906417,7839.6,1.52960952339835124596508977906417
141,7953.53104309923153262691479090637528,7952.0,1.53104309923153262691479090637528
142,8066.73246653583809552257031998635946,8065.2,1.53246653583809552257031998635946
143,8180.73387997567622971050931959257812,8179.2,1.53387997567622971050931959257812
144,8295.53528355822212086320242633974512,8294.0,1.53528355822212086320242633974512
145,8411.13667742005261720419972612716355,8409.6,1.53667742005261720419972612716355
146,8527.53806169492505141354506999822434,8526.0,1.53806169492505141354506999822434
147,8644.73943651385433206945593626285782,8643.2,1.53943651385433206945593626285782
148,8762.74080200518741995527321472970785,8761.2,1.54080200518741995527321472970785
149,8881.54215829467529103261090008113288,8880.0,1.54215829467529103261090008113288
150,9001.14350550554248972155862134448559,8999.6,1.54350550554248972155862134448559
151,9121.54484375855436840216602156194716,9120.0,1.54484375855436840216602156194716
152,9242.74617317208210343635346716710602,9241.2,1.54617317208210343635346716710602
153,9364.74749386216557665991681867241894,9363.2,1.54749386216557665991681867241894
154,9487.54880594257420624384208267176102,9486.0,1.54880594257420624384208267176102
155,9611.15010952486580516089585221426765,9609.6,1.55010952486580516089585221426765
156,9735.55140471844354512382751457543586,9734.0,1.55140471844354512382751457543586
157,9860.75269163061109704175909415908787,9859.2,1.55269163061109704175909415908787
158,9986.75397036662601981283613124034384,9985.2,1.55397036662601981283613124034384
159,10113.5552410297514611259450019533813,10112.0,1.5552410297514611259450019533813
160,10241.1565037213062366090063834227240,10239.6,1.5565037213062366090063834227240
161,10369.5577585407133458199357790778958,10368.0,1.5577585407133458199357790778958
162,10498.7590055855469845413424252158849,10497.2,1.5590055855469845413424252158849
163,10628.7602449515781082322359323404650,10627.2,1.5602449515781082322359323404650
164,10759.5614767328186012733055013694078,10758.0,1.5614767328186012733055013694078
165,10891.1627010215641006059593511092326,10889.6,1.5627010215641006059593511092326
166,11023.5639179084355242806830239083703,11022.0,1.5639179084355242806830239083703
167,11156.7651274824193521470059469924645,11155.2,1.5651274824193521470059469924645
168,11290.7663298309067013739596361869088,11289.2,1.5663298309067013739596361869088
169,11425.5675250397312418630881227058463,11424.0,1.5675250397312418630881227058463
170,11561.1687131932059912970961088191966,11559.6,1.5687131932059912970961088191966
171,11697.5698943741590300185655931997502,11696.0,1.5698943741590300185655931997502
172,11834.7710686639681736053687076253068,11833.2,1.5710686639681736053687076253068
173,11972.7722361425946385450774152824063,11971.2,1.5722361425946385450774152824063
174,12111.5733968886157368518538499484872,12110.0,1.5733968886157368518538499484872
175,12251.1745509792566336107241409638395,12249.6,1.5745509792566336107241409638395
176,12391.5756984904211971555583414447890,12390.0,1.5756984904211971555583414447890
177,12532.7768394967219751412636708922695,12531.2,1.5768394967219751412636708922695
178,12674.7779740715093256645570498438577,12673.2,1.5779740715093256645570498438577
179,12817.5791022868997298782324218790032,12816.0,1.5791022868997298782324218790032
180,12961.1802242138033170452914946155601,12959.6,1.5802242138033170452914946155601
181,13105.5813399219506246814936828469745,13104.0,1.5813399219506246814936828469745
182,13250.7824494799186214816802674064257,13249.2,1.5824494799186214816802674064257
183,13396.7835529551560160791162728854079,13395.2,1.5835529551560160791162728854079
184,13543.5846504140078758793556202120744,13542.0,1.5846504140078758793556202120744
185,13691.1857419217395777767222682028068,13689.6,1.5857419217395777767222682028068
186,13839.5868275425601117219961230277580,13838.0,1.5868275425601117219961230277580
187,13988.7879073396447609417702621650877,13987.2,1.5879073396447609417702621650877
188,14138.7889813751571742457630729294005,14137.2,1.5889813751571742457630729294005
189,14289.5900497102708541531419397100978,14288.0,1.5900497102708541531419397100978
190,14441.1911124051900764889020466729923,14439.6,1.5911124051900764889020466729923
191,14593.5921695191702606728175996591688,14592.0,1.5921695191702606728175996591688
192,14746.7932211105378070831332262550461,14745.2,1.5932211105378070831332262550461
193,14900.7942672367094197988077343368779,14899.2,1.5942672367094197988077343368779
194,15055.5953079542109280610563735303203,15054.0,1.5953079542109280610563735303203
195,15211.1963433186956243865133517964941,15209.6,1.5963433186956243865133517964941
196,15367.5973733849621330238769445182318,15366.0,1.5973733849621330238769445182318
197,15524.7983982069718231293201180402802,15523.2,1.5983982069718231293201180402802
198,15682.7994178378657808226074665852565,15681.2,1.5994178378657808226074665852565
199,15841.6004323299813529577335602251739,15840.0,1.6004323299813529577335602251739
200,16001.2014417348682765482433923521170,15999.6,1.6014417348682765482433923521170
201,16161.6024461033044048236133405924611,16160.0,1.6024461033044048236133405924611
202,16322.8034454853110432928035437975287,16321.2,1.6034454853110432928035437975287
203,16484.8044399301679064696634360794227,16483.2,1.6044399301679064696634360794227
204,16647.6054294864277068750515063880738,16646.0,1.6054294864277068750515063880738
205,16811.2064142019303862809809738997632,16809.6,1.6064142019303862809809738997632
206,16975.6073941238170022154878516875463,16974.0,1.6073941238170022154878516875463
207,17140.8083692985432755988465528712244,17139.2,1.6083692985432755988465528712244
208,17306.8093397718928137325372385500492,17305.2,1.6093397718928137325372385500492
209,17473.6103055889900143837921005934818,17472.0,1.6103055889900143837921005934818
210,17641.2112667943126624613192180992880,17639.6,1.6112667943126624613192180992880
211,17809.6122234317042266411599762298776,17808.0,1.6122234317042266411599762298776
212,17978.8131755443858661698017569127377,17977.2,1.6131755443858661698017569127377
213,18148.8141231749681522224333458928412,18147.2,1.6141231749681522224333458928412
214,18319.6150663654625187920262517523270,18318.0,1.6150663654625187920262517523270
215,18491.2160051572924423154661203580491,18489.6,1.6160051572924423154661203580491
216,18663.6169395913043639911843433497730,18662.0,1.6169395913043639911843433497730
217,18836.8178697077783587473248324417481,18835.2,1.6178697077783587473248324417481
218,19010.8187955464385598328883872459600,19009.2,1.6187955464385598328883872459600
219,19185.6197171464633423047830917155710,19184.0,1.6197171464633423047830917155710
220,19361.2206345464952779189008386173602,19359.6,1.6206345464952779189008386173602
221,19537.6215477846508593275020998246477,19536.0,1.6215477846508593275020998246477
222,19714.8224568985300107802664917538041,19713.2,1.6224568985300107802664917538041
223,19892.8233619252253788898324033753429,19891.2,1.6233619252253788898324033753429
224,20071.6242629013314185211157482501099,20070.0,1.6242629013314185211157482501099
225,20251.2251598629532763609421691004665,20249.6,1.6251598629532763609421691004665
226,20431.6260528457154757059252713440762,20430.0,1.6260528457154757059252713440762
227,20612.8269418847704111114289572632094,20611.2,1.6269418847704111114289572632094
228,20794.8278270148066547118047544325161,20793.2,1.6278270148066547118047544325161
229,20977.6287082700570813640389622916231,20976.0,1.6287082700570813640389622916231
230,21161.2295856843068173010374796920761,21159.6,1.6295856843068173010374796920761
231,21345.6304592909010140838022414008463,21344.0,1.6304592909010140838022414008463
232,21530.8313291227524582614033255242737,21529.2,1.6313291227524582614033255242737
233,21716.8321952123490117242343535046043,21715.2,1.6321952123490117242343535046043
234,21903.6330575917608988966001300865176,21902.0,1.6330575917608988966001300865176
235,22091.2339162926478339397193998452401,22089.6,1.6339162926478339397193998452401
236,22279.6347713462659976638936753394531,22278.0,1.6347713462659976638936753394531
237,22468.8356227834748677699515222782402,22467.2,1.6356227834748677699515222782402
238,22658.8364706347439041509614886741571,22657.2,1.6364706347439041509614886741571
