Eigenstate,Energy,Kinetic Energy,Potential Energy
1,0.500000001763191312741815608582614204,0.0,0.500000001763191312741815608582614204
2,1.84623094916082679699966942493600372,1.2,0.64623094916082679699966942493600372
3,3.93633764351618982352447379381845343,3.2,0.73633764351618982352447379381845343
4,6.79966534824588270698600623359819477,6.0,0.79966534824588270698600623359819477
5,10.4480466973025979763159588770632266,9.6,0.8480466973025979763159588770632266
6,14.8870661857086271790315699550243387,14.0,0.8870661857086271790315699550243387
7,20.1197210950352916042374470978474943,19.2,0.9197210950352916042374470978474943
8,26.1477842117380502419563356318788647,25.2,0.9477842117380502419563356318788647
9,32.9723840348776152065980334625749203,32.0,0.9723840348776152065980334625749203
10,40.5942808186459951402528997272045250,39.6,0.9942808186459951402528997272045250
11,49.0140101332228348147986077658993193,48.0,1.0140101332228348147986077658993193
12,58.2319630739496868279853545326262419,57.2,1.0319630739496868279853545326262419
13,68.2484337709293189106066757357703899,67.2,1.0484337709293189106066757357703899
14,79.0636489218828689374328546189642540,78.0,1.0636489218828689374328546189642540
15,90.6777869079646355081279876559020207,89.6,1.0777869079646355081279876559020207
16,103.090990598632910022403335325586713,102.0,1.090990598632910022403335325586713
17,116.303376185111739449679849066465139,115.2,1.103376185111739449679849066465139
18,130.315039431397305886298394333075371,129.2,1.115039431397305886298394333075371
19,145.126060197362035089472382890655651,144.0,1.126060197362035089472382890655651
20,160.736505776388632196046502945878438,159.6,1.136505776388632196046502945878438
21,177.146433401451857425789983762000168,176.0,1.146433401451857425789983762000168
22,194.355892156277330943697765124637064,193.2,1.155892156277330943697765124637064
23,212.364924453278113005792129027800517,211.2,1.164924453278113005792129027800517
24,231.173567190955175426578508732921057,230.0,1.173567190955175426578508732921057
25,250.781852670693373190392651054736227,249.6,1.181852670693373190392651054736227
26,271.189809330569074796427351312014777,270.0,1.189809330569074796427351312014777
27,292.397462338312779105465204352554275,291.2,1.197462338312779105465204352554275
28,314.404834074668195361490248032407339,313.2,1.204834074668195361490248032407339
29,337.211944530594235042604679873825983,336.0,1.211944530594235042604679873825983
30,360.818811636106876488241610654187158,359.6,1.218811636106876488241610654187158
31,385.225451534411924651589945648654065,384.0,1.225451534411924651589945648654065
32,410.431878811901788671098209043434818,409.2,1.231878811901788671098209043434818
33,436.438106692279752099834358425839330,435.2,1.238106692279752099834358425839330
34,463.244147201324664328085042374442714,462.0,1.244147201324664328085042374442714
35,490.850011307469786641496973178750571,489.6,1.250011307469786641496973178750571
36,519.255709042336047458283700741591687,518.0,1.255709042336047458283700741591687
37,548.461249604555876725538923726367872,547.2,1.261249604555876725538923726367872
38,578.466641449593370700485263346844523,577.2,1.266641449593370700485263346844523
39,609.271892367768689684833574707750760,608.0,1.271892367768689684833574707750760
40,640.877009552298770490962006682569487,639.6,1.277009552298770490962006682569487
41,673.281999658849685140693144928249985,672.0,1.281999658849685140693144928249985
42,706.486868857840984693049413564952594,705.2,1.286868857840984693049413564952594
43,740.491622880535880750598742194461107,739.2,1.291622880535880750598742194461107
44,775.296267059783023177465458950102075,774.0,1.296267059783023177465458950102075
45,810.900806366138062992718785509552192,809.6,1.300806366138062992718785509552192
46,847.305245439980053120430891642212079,846.0,1.305245439980053120430891642212079
47,884.509588620144263065982788391999961,883.2,1.309588620144263065982788391999961
48,922.513839969515397224948357857963776,921.2,1.313839969515397224948357857963776
49,961.318003297960543988306228843479782,960.0,1.318003297960543988306228843479782
50,1000.92208218292706009567275468959784,999.6,1.32208218292706009567275468959784
51,1041.32607998798512772763171957973431,1040.0,1.32607998798512772763171957973431
52,1082.52999987955637661600044521058939,1081.2,1.32999987955637661600044521058939
53,1124.53384484203751333461034888519391,1123.2,1.33384484203751333461034888519391
54,1167.33761769150033880419712549072112,1166.0,1.33761769150033880419712549072112
55,1210.94132108812605955514038712899181,1209.6,1.34132108812605955514038712899181
56,1255.34495754751172372450305703392004,1254.0,1.34495754751172372450305703392004
57,1300.54852945096941380171529200785985,1299.2,1.34852945096941380171529200785985
58,1346.55203905492403095414355052439931,1345.2,1.35203905492403095414355052439931
59,1393.35548849950275181985910382625924,1392.0,1.35548849950275181985910382625924
60,1440.95887981639821415076377287872216,1439.6,1.35887981639821415076377287872216
61,1489.36221493607792346542715582931566,1488.0,1.36221493607792346542715582931566
62,1538.56549569440407186978029295256813,1537.2,1.36549569440407186978029295256813
63,1588.56872383872071831885977459832708,1587.2,1.36872383872071831885977459832708
64,1639.37190103345896711715687063958900,1638.0,1.37190103345896711715687063958900
65,1690.97502886530524661962957930430647,1689.6,1.37502886530524661962957930430647
66,1743.37810884797294276105986504434746,1742.0,1.37810884797294276105986504434746
67,1796.58114242661337975501200208646411,1795.2,1.38114242661337975501200208646411
68,1850.58413098189838414796827627195968,1849.2,1.38413098189838414796827627195968
69,1905.38707583380335574886496306673931,1904.0,1.38707583380335574886496306673931
70,1960.98997824511684069156181672802496,1959.6,1.38997824511684069156181672802496
71,2017.39283942470000318996367539050030,2016.0,1.39283942470000318996367539050030
72,2074.59566053051709430922421541427262,2073.2,1.39566053051709430922421541427262
73,2132.59844267245596307652221749232364,2131.2,1.39844267245596307652221749232364
74,2191.40118691495583641303616695747416,2190.0,1.40118691495583641303616695747416
75,2251.00389427945796327470472555084204,2249.6,1.40389427945796327470472555084204
76,2311.40656574669326883994298179831471,2310.0,1.40656574669326883994298179831471
77,2372.60920225881986219180497149171087,2371.2,1.40920225881986219180497149171087
78,2434.61180472142207515195913102613596,2433.2,1.41180472142207515195913102613596
79,2497.41437400538166311232289973546037,2496.0,1.41437400538166311232289973546037
80,2561.01691094863086059341543792123152,2559.6,1.41691094863086059341543792123152
81,2625.41941635779613492631196167909412,2624.0,1.41941635779613492631196167909412
82,2690.62189100974072001425550682110987,2689.2,1.42189100974072001425550682110987
83,2756.62433565301332340641964924265316,2755.2,1.42433565301332340641964924265316
84,2823.42675100920977563529432999014905,2822.0,1.42675100920977563529432999014905
85,2891.02913777425383150424625078301075,2889.6,1.42913777425383150424625078301075
86,2959.43149661960281715819194303039355,2958.0,1.43149661960281715819194303039355
87,3028.63382819338335931191597350728422,3027.2,1.43382819338335931191597350728422
88,3098.63613312146200964581519293077237,3097.2,1.43613312146200964581519293077237
89,3169.43841200845519389033806670325818,3168.0,1.43841200845519389033806670325818
90,3241.04066543868257191800649808643155,3239.6,1.44066543868257191800649808643155
91,3313.44289397706757372492428173174138,3312.0,1.44289397706757372492428173174138
92,3386.64509816998858790196512995720519,3385.2,1.44509816998858790196512995720519
93,3460.64727854608401695745153904542067,3459.2,1.44727854608401695745153904542067
94,3535.44943561701417094189808948523033,3534.0,1.44943561701417094189808948523033
95,3611.05156987818274968981487789339657,3609.6,1.45156987818274968981487789339657
96,3687.45368180942046219081627416451539,3686.0,1.45368180942046219081627416451539
97,3764.65577187563314728063609529082835,3763.2,1.45577187563314728063609529082835
98,3842.65784052741658698980791115256814,3841.2,1.45784052741658698980791115256814
99,3921.45988820164005043827889791813304,3920.0,1.45988820164005043827889791813304
100,4001.06191532200045984764785666096617,3999.6,1.46191532200045984764785666096617
101,4081.46392229954894096374146468926419,4080.0,1.46392229954894096374146468926419
102,4162.66590953319139463405025624314420,4161.2,1.46590953319139463405025624314420
103,4244.66787741016461839890131481828998,4243.2,1.46787741016461839890131481828998
104,4327.46982630648939972008800685395210,4326.0,1.46982630648939972008800685395210
105,4411.07175658740190942805956957004504,4409.6,1.47175658740190942805956957004504
106,4495.47366860776463323744259057583936,4494.0,1.47366860776463323744259057583936
107,4580.67556271245800113346672181813756,4579.2,1.47556271245800113346672181813756
108,4666.67743923675379522902413750291688,4665.2,1.47743923675379522902413750291688
109,4753.47929850667134813737687038994532,4752.0,1.47929850667134813737687038994532
110,4841.08114083931748152642908798665313,4839.6,1.48114083931748152642908798665313
111,4929.48296654321106870267914103018560,4928.0,1.48296654321106870267914103018560
112,5018.68477591859305568526722122379254,5017.2,1.48477591859305568526722122379254
113,5108.68656925772271974333261215703982,5107.2,1.48656925772271974333261215703982
114,5199.48834684516089566362410458677643,5198.0,1.48834684516089566362410458677643
115,5291.09010895804085962130570138069065,5289.6,1.49010895804085962130570138069065
116,5383.49185586632751225303662708575251,5382.0,1.49185586632751225303662708575251
117,5476.69358783306547087963931135938528,5475.2,1.49358783306547087963931135938528
118,5570.69530511461663985950918778454259,5569.2,1.49530511461663985950918778454259
119,5665.49700796088779440912544080187458,5664.0,1.49700796088779440912544080187458
120,5761.09869661554868745789867135329229,5759.6,1.49869661554868745789867135329229
121,5857.50037131624115091503769150401314,5856.0,1.50037131624115091503769150401314
122,5954.70203229477964389544608881843350,5953.2,1.50203229477964389544608881843350
123,6052.70367977734366834639898025987195,6051.2,1.50367977734366834639898025987195
124,6151.50531398466245493014057594896209,6150.0,1.50531398466245493014057594896209
125,6251.10693513219229255041022383264039,6249.6,1.50693513219229255041022383264039
126,6351.50854343028685981906850863875001,6350.0,1.50854343028685981906850863875001
127,6452.71013908436089629339987977762752,6451.2,1.51013908436089629339987977762752
128,6554.71172229504752884709349438779342,6553.2,1.51172229504752884709349438779342
129,6657.51329325834955659203478161327513,6656.0,1.51329325834955659203478161327513
130,6761.11485216578497952205315438278242,6759.6,1.51485216578497952205315438278242
131,6865.51639920452704079051663815082612,6864.0,1.51639920452704079051663815082612
132,6970.71793455753903771103840041913951,6969.2,1.51793455753903771103840041913951
133,7076.71945840370414495400942481918181,7075.2,1.51945840370414495400942481918181
134,7183.52097091795048231198048081455798,7182.0,1.52097091795048231198048081455798
135,7291.12247227137164148693548764677821,7289.6,1.52247227137164148693548764677821
136,7399.52396263134288286634252524535170,7398.0,1.52396263134288286634252524535170
137,7508.72544216163320016238989329244000,7507.2,1.52544216163320016238989329244000
138,7618.72691102251343740734560606457248,7617.2,1.52691102251343740734560606457248
139,7729.52836937086064093903638204118049,7728.0,1.52836937086064093903638204118049
140,7841.12981736025881382900703071690906,7839.6,1.52981736025881382900703071690906
141,7953.53125514109623593200845553083086,7952.0,1.53125514109623593200845553083086
142,8066.73268286065950496645638301976862,8065.2,1.53268286065950496645638301976862
143,8180.73410066322444571180791730197803,8179.2,1.53410066322444571180791730197803
144,8295.53550869014402757972575024806873,8294.0,1.53550869014402757972575024806873
145,8411.13690707993342700495255465707258,8409.6,1.53690707993342700495255465707258
146,8527.53829596835236363806243967738053,8526.0,1.53829596835236363806243967738053
147,8644.73967548848483155502199679965990,8643.2,1.53967548848483155502199679965990
148,8762.74104577081634820957204306062029,8761.2,1.54104577081634820957204306062029
149,8881.54240694330883083158418987824209,8880.0,1.54240694330883083158418987824209
150,9001.14375913147321235907293589862078,8999.6,1.54375913147321235907293589862078
151,9121.54510245843990185228023668493499,9120.0,1.54510245843990185228023668493499
152,9242.74643704502718935708023623505216,9241.2,1.54643704502718935708023623505216
153,9364.74776300980769452011058912776367,9363.2,1.54776300980769452011058912776367
154,9487.54908046917295394746046891281947,9486.0,1.54908046917295394746046891281947
155,9611.15038953739623743575416491588796,9609.6,1.55038953739623743575416491588796
156,9735.55169032669368370082385862775580,9734.0,1.55169032669368370082385862775580
157,9860.75298294728384034738009934134095,9859.2,1.55298294728384034738009934134095
158,9986.75426750744569461126154661329676,9985.2,1.55426750744569461126154661329676
159,10113.5555441135752743632191342318169,10112.0,1.5555441135752743632191342318169
160,10241.1568128702409027249893898941392,10239.6,1.5568128702409027249893898941392
161,10369.5580738802371831073172273658824,10368.0,1.5580738802371831073172273658824
162,10498.7593272446377938584995187472638,10497.2,1.5593272446377938584995187472638
163,10628.7605730628471686425598872642759,10627.2,1.5605730628471686425598872642759
164,10759.5618114326511401249961728482394,10758.0,1.5618114326511401249961728482394
165,10891.1630424502666203336977933893298,10889.6,1.5630424502666203336977933893298
166,11023.5642662103903949701561000277912,11022.0,1.5642662103903949701561000277912
167,11156.7654828062471078380105509370305,11155.2,1.5654828062471078380105509370305
168,11290.7666923296365093896193683712915,11289.2,1.5666923296365093896193683712915
169,11425.5678948709800483647600214537724,11424.0,1.5678948709800483647600214537724
170,11561.1690905193668830235842366315766,11559.6,1.5690905193668830235842366315766
171,11697.5702793625993920473666427531991,11696.0,1.5702793625993920473666427531991
172,11834.7714614872382662756490195009041,11833.2,1.5714614872382662756490195009041
173,11972.7726369786472637427061235936346,11971.2,1.5726369786472637427061235936346
174,12111.5738059210377150491678150739790,12110.0,1.5738059210377150491678150739790
175,12251.1749683975128687926374570986947,12249.6,1.5749683975128687926374570986947
176,12391.5761244901121675109960180567969,12390.0,1.5761244901121675109960180567969
177,12532.7772742798555536694284163315983,12531.2,1.5772742798555536694284163315983
178,12674.7784178467879072140438143714631,12673.2,1.5784178467879072140438143714631
179,12817.5795552700237202453518411898124,12816.0,1.5795552700237202453518411898124
180,12961.1806866277921263248504989917964,12959.6,1.5806866277921263248504989917964
181,13105.5818119974824018935769845986015,13104.0,1.5818119974824018935769845986015
182,13250.7829314556900714951063542014241,13249.2,1.5829314556900714951063542014241
183,13396.7840450782637540308065791793407,13395.2,1.5840450782637540308065791793407
184,13543.5851529403528997909243261782007,13542.0,1.5851529403528997909243261782007
185,13691.1862551164565781817299694759758,13689.6,1.5862551164565781817299694759758
186,13839.5873516804734892913700326726549,13838.0,1.5873516804734892913700326726549
187,13988.7884427057533909723425622122913,13987.2,1.5884427057533909723425622122913
188,14138.7895282651501423151793407740247,14137.2,1.5895282651501423151793407740247
189,14289.5906084310765923504826816926938,14288.0,1.5906084310765923504826816926938
190,14441.1916832755615567965719128033375,14439.6,1.5916832755615567965719128033375
191,14593.5927528703091540241547738090086,14592.0,1.5927528703091540241547738090086
192,14746.7938172867607964540891794288752,14745.2,1.5938172867607964540891794288752
193,14900.7948765961601669539254132037444,14899.2,1.5948765961601669539254132037444
194,15055.5959308696215403161500100699279,15054.0,1.5959308696215403161500100699279
195,15211.1969801782018546181502900084977,15209.6,1.5969801782018546181502900084977
196,15367.5980245929769784830452706070027,15366.0,1.5980245929769784830452706070027
197,15524.7990641851226725419704559937568,15523.2,1.5990641851226725419704559937568
198,15682.8000990260008018617964928518503,15681.2,1.6000990260008018617964928518503
199,15841.6011291872514216311227363501927,15840.0,1.6011291872514216311227363501927
200,16001.2021547408914358355789016172951,15999.6,1.6021547408914358355789016172951
201,16161.6031757594206130206076728511489,16160.0,1.6031757594206130206076728511489
202,16322.8041923159358457698208276989664,16321.2,1.6041923159358457698208276989664
203,16484.8052044842546528657216787592614,16483.2,1.6052044842546528657216787592614
204,16647.6062123390490565800450261869454,16646.0,1.6062123390490565800450261869454
205,16811.2072159559911188834153086099943,16809.6,1.6072159559911188834153086099943
206,16975.6082154119116004781523702848817,16974.0,1.6082154119116004781523702848817
207,17140.8092107849734048464785353345130,17139.2,1.6092107849734048464785353345130
208,17306.8102021548617168452590939579475,17305.2,1.6102021548617168452590939579475
209,17473.6111896029930156786319376363164,17472.0,1.6111896029930156786319376363164
210,17641.2121732127454739469600916630202,17639.6,1.6121732127454739469600916630202
211,17809.6131530697136329444012396849294,17808.0,1.6131530697136329444012396849294
212,17978.8141292619906975076324251543570,17977.2,1.6141292619906975076324251543570
213,18148.8151018804823194281673449726724,18147.2,1.6151018804823194281673449726724
214,18319.6160710192563786436874703040839,18318.0,1.6160710192563786436874703040839
215,18491.2170367759340039515046249245948,18489.6,1.6170367759340039515046249245948
216,18663.6179992521279822867409565462238,18662.0,1.6179992521279822867409565462238
217,18836.8189585539357641986066998147540,18835.2,1.6189585539357641986066998147540
218,19010.8199147924955624975020960011231,19009.2,1.6199147924955624975020960011231
219,19185.6208680846155852534872292480215,19184.0,1.6208680846155852534872292480215
220,19361.2218185534883319295616864398482,19359.6,1.6218185534883319295616864398482
221,19537.6227663295041534130687097365017,19536.0,1.6227663295041534130687097365017
222,19714.8237115511810925223091771132920,19713.2,1.6237115511810925223091771132920
223,19892.8246543662314348651490981030152,19891.2,1.6246543662314348651490981030152
224,20071.6255949327896671834716053713060,20070.0,1.6255949327896671834716053713060
225,20251.2265334208318011382502775345936,20249.6,1.6265334208318011382502775345936
226,20431.6274700138226084077388838119220,20430.0,1.6274700138226084077388838119220
227,20612.8284049106355953431851530138703,20611.2,1.6284049106355953431851530138703
228,20794.8293383278010060469746561622687,20793.2,1.6293383278010060469746561622687
229,20977.6302705021504742228513587452699,20976.0,1.6302705021504742228513587452699
230,21161.2312016939440280705264405613930,21159.6,1.6312016939440280705264405613930
231,21345.6321321905872229139731171097433,21344.0,1.6321321905872229139731171097433
232,21530.8330623110749299411642127645001,21529.2,1.6330623110749299411642127645001
233,21716.8339924113360482085992859989388,21715.2,1.6339924113360482085992859989388
234,21903.6349228907034690113507593731667,21902.0,1.6349228907034690113507593731667
235,22091.2358541998005744524004986191198,22089.6,1.6358541998005744524004986191198
236,22279.6367868502261528211242138198300,22278.0,1.6367868502261528211242138198300
237,22468.8377214265435078759458850303213,22467.2,1.6377214265435078759458850303213
238,22658.8386586012510762346919133569308,22657.2,1.6386586012510762346919133569308
