Eigenstate,Energy,Kinetic Energy,Potential Energy
1,0.500000000016908289582947871631369867,0.0,0.500000000016908289582947871631369867
2,1.84623093776148307928884933786430254,1.2,0.64623093776148307928884933786430254
3,3.93633761002917372349489416459352900,3.2,0.73633761002917372349489416459352900
4,6.79966527848950553633116151616463925,6.0,0.79966527848950553633116151616463925
5,10.4480465764553841549388151036428597,9.6,0.8480465764553841549388151036428597
6,14.8870659986802578133127876687576794,14.0,0.8870659986802578133127876687576794
7,20.1197208266017260404626506985534156,19.2,0.9197208266017260404626506985534156
8,26.1477838465964380139010440800214889,25.2,0.9477838465964380139010440800214889
9,32.9723835576705039503405430720357287,32.0,0.9723835576705039503405430720357287
10,40.5942802139723909758649069038684598,39.6,0.9942802139723909758649069038684598
11,49.0140093856430677920854220103810514,48.0,1.0140093856430677920854220103810514
12,58.2319621679871136572946830275694866,57.2,1.0319621679871136572946830275694866
13,68.2484326910702978538326858763847664,67.2,1.0484326910702978538326858763847664
14,79.0636476525757341197383843300899582,78.0,1.0636476525757341197383843300899582
15,90.6777854336180612521278016364779183,89.6,1.0777854336180612521278016364779183
16,103.090988903613885549831757238187559,102.0,1.090988903613885549831757238187559
17,116.303374253743283542238073574953199,115.2,1.103374253743283542238073574953199
18,130.315037247956000462267730046468953,129.2,1.115037247956000462267730046468953
19,145.126057746075427249453367075500298,144.0,1.126057746075427249453367075500298
20,160.736503041432536604494579409221655,159.6,1.136503041432536604494579409221655
21,177.146430366947579917350888772626630,176.0,1.146430366947579917350888772626630
22,194.355888806288827235628867682520322,193.2,1.155888806288827235628867682520322
23,212.364920771809091809166568646565582,211.2,1.164920771809091809166568646565582
24,231.173563161946152173872953421480379,230.0,1.173563161946152173872953421480379
25,250.781848278018678491616407303727932,249.6,1.181848278018678491616407303727932
26,271.189804558033820265234659107132239,270.0,1.189804558033820265234659107132239
27,292.397457169649782149620907294453857,291.2,1.197457169649782149620907294453857
28,314.404828493534863772784544475337717,313.2,1.204828493534863772784544475337717
29,337.211938520569411660696990488519953,336.0,1.211938520569411660696990488519953
30,360.818805180687643791422806605954986,359.6,1.218805180687643791422806605954986
31,385.225444617010368804657753183696574,384.0,1.225444617010368804657753183696574
32,410.431871415841722308577569907595367,409.2,1.231871415841722308577569907595367
33,436.438098800793394922147969773004548,435.2,1.238098800793394922147969773004548
34,463.244138797549280425178496594446543,462.0,1.244138797549280425178496594446543
35,490.850002374444277322930588053641849,489.6,1.250002374444277322930588053641849
36,519.255699562997498253723530532665139,518.0,1.255699562997498253723530532665139
37,548.461239561736057119613481406724817,547.2,1.261239561736057119613481406724817
38,578.466630826015185077199510341794595,577.2,1.266630826015185077199510341794595
39,609.271881146042577876189546141739300,608.0,1.271881146042577876189546141739300
40,640.876997714919056249892237193581923,639.6,1.276997714919056249892237193581923
41,673.281987188190870788143350571240529,672.0,1.281987188190870788143350571240529
42,706.486855736153990121721772427931359,705.2,1.286855736153990121721772427931359
43,740.491609089944224902436399583110486,739.2,1.291609089944224902436399583110486
44,775.296252582278946047596283135451057,774.0,1.296252582278946047596283135451057
45,810.900791183578586148608624189126311,809.6,1.300791183578586148608624189126311
46,847.305229534082976660880257047819116,846.0,1.305229534082976660880257047819116
47,884.509571972484096879887365611243324,883.2,1.309571972484096879887365611243324
48,922.513822561519224344047325107148102,921.2,1.313822561519224344047325107148102
49,961.317985110903813761144603648838858,960.0,1.317985110903813761144603648838858
50,1000.92206319792930884142161074317421,999.6,1.32206319792930884142161074317421
51,1041.32606018600562445798314473537489,1040.0,1.32606018600562445798314473537489
52,1082.52997924138969134087235654131968,1081.2,1.32997924138969134087235654131968
53,1124.53382334830900539263742468745722,1123.2,1.33382334830900539263742468745722
54,1167.33759532266156258175816469197260,1166.0,1.33759532266156258175816469197260
55,1210.94129782445008487779520556831912,1209.6,1.34129782445008487779520556831912
56,1255.34493336908836812200364747866232,1254.0,1.34493336908836812200364747866232
57,1300.54850433770038376203792824240590,1299.2,1.34850433770038376203792824240590
58,1346.55201298651796919308692204282565,1345.2,1.35201298651796919308692204282565
59,1393.35546145547018750050597296457985,1392.0,1.35546145547018750050597296457985
60,1440.95885177604641289131269101859105,1439.6,1.35885177604641289131269101859105
61,1489.36218587850563387441084920678615,1488.0,1.36218587850563387441084920678615
62,1538.56546559849616524429503538489953,1537.2,1.36546559849616524429503538489953
63,1588.56869268314271803396970871457626,1587.2,1.36869268314271803396970871457626
64,1639.37186879665146412289557396361423,1638.0,1.37186879665146412289557396361423
65,1690.97499552547819734580448881568567,1689.6,1.37499552547819734580448881568567
66,1743.37807438309984560917109449441956,1742.0,1.37807438309984560917109449441956
67,1796.58110681442532623080437900844506,1795.2,1.38110681442532623080437900844506
68,1850.58409419987798055721461979518239,1849.2,1.38409419987798055721461979518239
69,1905.38703785917851124268496794252408,1904.0,1.38703785917851124268496794252408
70,1960.98993905485441730571357518232262,1959.6,1.38993905485441730571357518232262
71,2017.39279899549932337476139354485627,2016.0,1.39279899549932337476139354485627
72,2074.59561883880330129286151087275765,2073.2,1.39561883880330129286151087275765
73,2132.59839969437322924424264759597685,2131.2,1.39839969437322924424264759597685
74,2191.40114262636041471756706216921597,2190.0,1.40114262636041471756706216921597
75,2251.00384865591107651928033036384400,2249.6,1.40384865591107651928033036384400
76,2311.40651876345383149381546510494576,2310.0,1.40651876345383149381546510494576
77,2372.60915389083702920897593450073183,2371.2,1.40915389083702920897593450073183
78,2434.61175494332761206664210492174142,2433.2,1.41175494332761206664210492174142
79,2497.41432279148213147895351145919088,2496.0,1.41432279148213147895351145919088
80,2561.01685827289961262447509799422701,2559.6,1.41685827289961262447509799422701
81,2625.41936219386511095737898459783165,2624.0,1.41936219386511095737898459783165
82,2690.62183533089204219211994770145466,2689.2,1.42183533089204219211994770145466
83,2756.62427843217067875229318856067864,2755.2,1.42427843217067875229318856067864
84,2823.42669221892958138064689068052300,2822.0,1.42669221892958138064689068052300
85,2891.02907738671617533104844576173313,2889.6,1.42907738671617533104844576173313
86,2959.43143460660216469781395567278645,2958.0,1.43143460660216469781395567278645
87,3028.63376452631902096701076041089511,3027.2,1.43376452631902096701076041089511
88,3098.63606777132835849660709827825620,3097.2,1.43606777132835849660709827825620
89,3169.43834494583162613018153142070282,3168.0,1.43834494583162613018153142070282
90,3241.04059663372320093217549082189064,3239.6,1.44059663372320093217549082189064
91,3313.44282339949064858062165038814577,3312.0,1.44282339949064858062165038814577
92,3386.64502578906562665574170173078517,3385.2,1.44502578906562665574170173078517
93,3460.64720433062864480775150437860925,3459.2,1.44720433062864480775150437860925
94,3535.44935953537065285847347791124249,3534.0,1.44935953537065285847347791124249
95,3611.05149189821420673732710791892756,3609.6,1.45149189821420673732710791892756
96,3687.45360189849676033015202798714319,3686.0,1.45360189849676033015202798714319
97,3764.65569000061844697720851379142192,3763.2,1.45569000061844697720851379142192
98,3842.65775665465654148240556314596516,3841.2,1.45775665465654148240556314596516
99,3921.45980229694864002361756872910524,3920.0,1.45980229694864002361756872910524
100,4001.06182735064644901353457978136481,3999.6,1.46182735064644901353457978136481
101,4081.46383222624194465633660638415592,4080.0,1.46383222624194465633660638415592
102,4162.66581732206753937076141246191450,4161.2,1.46581732206753937076141246191450
103,4244.66778302477178333652231791910319,4243.2,1.46778302477178333652231791910319
104,4327.46972970977202215632213388231565,4326.0,1.46972970977202215632213388231565
105,4411.07165774168533855195246606872159,4409.6,1.47165774168533855195246606872159
106,4495.47356747473901524872390120765074,4494.0,1.47356747473901524872390120765074
107,4580.67545925316167812051718308896653,4579.2,1.47545925316167812051718308896653
108,4666.67733341155619942819109604579778,4665.2,1.47733341155619942819109604579778
109,4753.47919027525537239054861153643267,4752.0,1.47919027525537239054861153643267
110,4841.08103016066130590693781214236732,4839.6,1.48103016066130590693781214236732
111,4929.48285337556942238936555305991111,4928.0,1.48285337556942238936555305991111
112,5018.68466021947789222836837503316279,5017.2,1.48466021947789222836837503316279
113,5108.68645098388328288109110024467601,5107.2,1.48645098388328288109110024467601
114,5199.48822595256315181226719512476571,5198.0,1.48822595256315181226719512476571
115,5291.08998540184627207029242043162843,5289.6,1.48998540184627207029242043162843
116,5383.49172960087113094893506790720648,5382.0,1.49172960087113094893506790720648
117,5476.69345881183331047221931356838195,5475.2,1.49345881183331047221931356838195
118,5570.69517329022231740891264860910868,5569.2,1.49517329022231740891264860910868
119,5665.49687328504839680933205861252982,5664.0,1.49687328504839680933205861252982
120,5761.09855903905983721494863011454337,5759.6,1.49855903905983721494863011454337
121,5857.50023078895123742402604264653676,5856.0,1.50023078895123742402604264653676
122,5954.70188876556318578339561451195800,5953.2,1.50188876556318578339561451195800
123,6052.70353319407377078353857442459999,6051.2,1.50353319407377078353857442459999
124,6151.50516429418232405433756517266807,6150.0,1.50516429418232405433756517266807
125,6251.10678228028576729259629137082100,6249.6,1.50678228028576729259629137082100
126,6351.50838736164791945512864035582326,6350.0,1.50838736164791945512864035582326
127,6452.70997974256209997333223922260964,6451.2,1.50997974256209997333223922260964
128,6554.71155962250734115797148607861976,6553.2,1.51155962250734115797148607861976
129,6657.51312719629851088965702126848639,6656.0,1.51312719629851088965702126848639
130,6761.11468265423062830864131270563811,6759.6,1.51468265423062830864131270563811
131,6865.51622618221763981343196992793925,6864.0,1.51622618221763981343196992793925
132,6970.71775796192590770052357614575063,6969.2,1.51775796192590770052357614575063
133,7076.71927817090265199596492366814494,7075.2,1.51927817090265199596492366814494
134,7183.52078698269957475351961661728517,7182.0,1.52078698269957475351961661728517
135,7291.12228456699187798583555768944911,7289.6,1.52228456699187798583555768944911
136,7399.52377108969288270750848104156094,7398.0,1.52377108969288270750848104156094
137,7508.72524671306444326098105895408111,7507.2,1.52524671306444326098105895408111
138,7618.72671159582333748422855807784204,7617.2,1.52671159582333748422855807784204
139,7729.52816589324381117327637472693465,7728.0,1.52816589324381117327637472693465
140,7841.12960975725643984662652828075072,7839.6,1.52960975725643984662652828075072
141,7953.53104333654346626118023147739639,7952.0,1.53104333654346626118023147739639
142,8066.73246677663076405597654886372098,8065.2,1.53246677663076405597654886372098
143,8180.73388021997656924989792842481467,8179.2,1.53388021997656924989792842481467
144,8295.53528380605711413985630168856429,8294.0,1.53528380605711413985630168856429
145,8411.13667767144929395821448996864562,8409.6,1.53667767144929395821448996864562
146,8527.53806194991048877944659473235313,8526.0,1.53806194991048877944659473235313
147,8644.73943677245565496307512222530962,8643.2,1.53943677245565496307512222530962
148,8762.74080226743180146188925778598370,8761.2,1.54080226743180146188925778598370
149,8881.54215856058995279637436780508930,8880.0,1.54215856058995279637436780508930
150,9001.14350577515470233620567747100595,8999.6,1.54350577515470233620567747100595
151,9121.54484403189145180303524459835575,9120.0,1.54484403189145180303524459835575
152,9242.74617344917142729371673559051529,9241.2,1.54617344917142729371673559051529
153,9364.74749414303456077363581433041088,9363.2,1.54749414303456077363581433041088
154,9487.54880622725032093936199750318432,9486.0,1.54880622725032093936199750318432
155,9611.15010981337657168658800976234297,9609.6,1.55010981337657168658800976234297
156,9735.55140501081653604969261837881415,9734.0,1.55140501081653604969261837881415
157,9860.75269192687393665950290068935777,9859.2,1.55269192687393665950290068935777
158,9986.75397066680638453732942975496200,9985.2,1.55397066680638453732942975496200
159,10113.5552413338770798980798211472705,10112.0,1.5552413338770798980798211472705
160,10241.1565040294048912999604088129160,10239.6,1.5565040294048912999604088129160
161,10369.5577588528128716368570530295313,10368.0,1.5577588528128716368570530295313
162,10498.7590059016752704344664865211323,10497.2,1.5590059016752704344664865211323
163,10628.7602452717630973034475425694705,10627.2,1.5602452717630973034475425694705
164,10759.5614770570882911861572643077682,10758.0,1.5614770570882911861572643077682
165,10891.1627013499465439971595372687937,10889.6,1.5627013499465439971595372687937
166,11023.5639182409588291730650264551098,11022.0,1.5639182409588291730650264551098
167,11156.7651278191116823639918079513651,11155.2,1.5651278191116823639918079513651
168,11290.7663301717962769555302325178039,11289.2,1.5663301717962769555302325178039
169,11425.5675253848463394832725901394111,11424.0,1.5675253848463394832725901394111
170,11561.1687135425749446829932086434819,11559.6,1.5687135425749446829932086434819
171,11697.5698947278102303709097968725901,11696.0,1.5698947278102303709097968725901
172,11834.7710690219300700206538170578118,11833.2,1.5710690219300700206538170578118
173,11972.7722365048957384392506205970155,11971.2,1.5722365048957384392506205970155
174,12111.5733972552846063855932317868454,12110.0,1.5733972552846063855932317868454
175,12251.1745513503218981163126635938525,12249.6,1.5745513503218981163126635938525
176,12391.5756988659115415653674590097066,12390.0,1.5756988659115415653674590097066
177,12532.7768398766661444178597942008109,12531.2,1.5768398766661444178597942008109
178,12674.7779744559361252324441244325543,12673.2,1.5779744559361252324441244325543
179,12817.5791026758380260572440120761827,12816.0,1.5791026758380260572440120761827
180,12961.1802246072820374856458047644003,12959.6,1.5802246072820374856458047644003
181,13105.5813403199987588005250510665076,13104.0,1.5813403199987588005250510665076
182,13250.7824498825652209022607368159161,13249.2,1.5824498825652209022607368159161
183,13396.7835533624301950697809231160436,13395.2,1.5835533624301950697809231160436
184,13543.5846508259388117961454266582136,13542.0,1.5846508259388117961454266582136
185,13691.1857423383565115067583627366667,13689.6,1.5857423383565115067583627366667
186,13839.5868279638923481287993635927432,13838.0,1.5868279638923481287993635927432
187,13988.7879077657216693123401423960703,13987.2,1.5879077657216693123401423960703
188,14138.7889818060081887394300851938944,14137.2,1.5889818060081887394300851938944
189,14289.5900501459254742522075520198184,14288.0,1.5900501459254742522075520198184
190,14441.1911128456778674510806150987739,14439.6,1.5911128456778674510806150987739
191,14593.5921699645208539854945347622186,14592.0,1.5921699645208539854945347622186
192,14746.7932215607809009194539107939897,14745.2,1.5932215607809009194539107939897
193,14900.7942676918747794756116776525008,14899.2,1.5942676918747794756116776525008
194,15055.5953084143283864986712793069633,15054.0,1.5953084143283864986712793069633
195,15211.1963437837950825704237998687761,15209.6,1.5963437837950825704237998687761
196,15367.5973738550735604682825034967930,15366.0,1.5973738550735604682825034967930
197,15524.7983986821252583425977821387842,15523.2,1.5983986821252583425977821387842
198,15682.7994183180913317746934113810250,15681.2,1.5994183180913317746934113810250
199,15841.6004328153091975494393417130933,15840.0,1.6004328153091975494393417130933
200,16001.2014422253286630825217361094236,15999.6,1.6014422253286630825217361094236
201,16161.6024465989276524787887879426655,16160.0,1.6024465989276524787887879426655
202,16322.8034459861275425977834046003748,16321.2,1.6034459861275425977834046003748
203,16484.8044404362081197811444447674545,16483.2,1.6044404362081197811444447674545
204,16647.6054299977221688567377917005226,16646.0,1.6054299977221688567377917005226
205,16811.2064147185097043848289963389714,16809.6,1.6064147185097043848289963389714
206,16975.6073946457118571649940961149315,16974.0,1.6073946457118571649940961149315
207,17140.8083698257844218743938313656361,17139.2,1.6083698257844218743938313656361
208,17306.8093403045110800588155870918239,17305.2,1.6093403045110800588155870918239
209,17473.6103061270163042193103464411687,17472.0,1.6103061270163042193103464411687
210,17641.2112673377779544900233814223723,17639.6,1.6112673377779544900233814223723
211,17809.6122239806395752661748242390251,17808.0,1.6122239806395752661748242390251
212,17978.8131760988224020093118422792632,17977.2,1.6131760988224020093118422792632
213,18148.8141237349370826077200866352863,18147.2,1.6141237349370826077200866352863
214,18319.6150669309951282676776079197846,18318.0,1.6150669309951282676776079197846
215,18491.2160057284200931417756150541565,18489.6,1.6160057284200931417756150541565
216,18663.6169401680584966487562245129202,18662.0,1.6169401680584966487562245129202
217,18836.8178702901904924439023128205751,18835.2,1.6178702901904924439023128205751
218,19010.8187961345402930124220115341016,19009.2,1.6187961345402930124220115341016
219,19185.6197177402863531587563673393867,19184.0,1.6197177402863531587563673393867
220,19361.2206351460713248999304212455832,19359.6,1.6206351460713248999304212455832
221,19537.6215483900117816652298941831563,19536.0,1.6215483900117816652298941831563
222,19714.8224575097077289995611872529595,19713.2,1.6224575097077289995611872529595
223,19892.8233625422518953313180330657545,19891.2,1.6233625422518953313180330657545
224,20071.6242635242388178640450237161692,20070.0,1.6242635242388178640450237161692
225,20251.2251604917737261484324284724175,20249.6,1.6251604917737261484324284724175
226,20431.6260534804812268725750217110608,20430.0,1.6260534804812268725750217110608
227,20612.8269425255137985133330788315478,20611.2,1.6269425255137985133330788315478
228,20794.8278276615600976589866120569691,20793.2,1.6278276615600976589866120569691
229,20977.6287089228530841553177238401557,20976.0,1.6287089228530841553177238401557
230,21161.2295863431779697613491308156996,21159.6,1.6295863431779697613491308156996
231,21345.6304599558799921039928571555586,21344.0,1.6304599558799921039928571555586
232,21530.8313297938720243405133224787322,21529.2,1.6313297938720243405133224787322
233,21716.8321958896420155142925591346972,21715.2,1.6321958896420155142925591346972
234,21903.6330582752602777499466343827522,21902.0,1.6330582752602777499466343827522
235,22091.2339169823866134588762675770712,22089.6,1.6339169823866134588762675770712
236,22279.6347720422772922540027844571531,22278.0,1.6347720422772922540027844571531
237,22468.8356234857918811937988441257929,22467.2,1.6356234857918811937988441257929
238,22658.8364713433999300866073379556069,22657.2,1.6364713433999300866073379556069
