Eigenstate,Energy,Kinetic Energy,Potential Energy
1,0.500000000012591240910695812465643772,0.0,0.500000000012591240910695812465643772
2,1.84623093773330368058689569232742291,1.2,0.64623093773330368058689569232742291
3,3.93633760994639921999561240124843409,3.2,0.73633760994639921999561240124843409
4,6.79966527831709628598385141277344222,6.0,0.79966527831709628598385141277344222
5,10.4480465761567373518699305746663975,9.6,0.8480465761567373518699305746663975
6,14.8870659982181308835936873644336515,14.0,0.8870659982181308835936873644336515
7,20.1197208259385770692188253431933700,19.2,0.9197208259385770692188253431933700
8,26.1477838456945679012763677031040587,25.2,0.9477838456945679012763677031040587
9,32.9723835564921226829788117547204804,32.0,0.9723835564921226829788117547204804
10,40.5942802124796514181460492925449538,39.6,0.9942802124796514181460492925449538
11,49.0140093837980841872478017862970313,48.0,1.0140093837980841872478017862970313
12,58.2319621657519723370449309150062464,57.2,1.0319621657519723370449309150062464
13,68.2484326884070637063222221108106716,67.2,1.0484326884070637063222221108106716
14,79.0636476494464546165673588432246788,78.0,1.0636476494464546165673588432246788
15,90.6777854299847690028494716203327686,89.6,1.0777854299847690028494716203327686
16,103.090988899438599931596836113908631,102.0,1.090988899438599931596836113908631
17,116.303374248988011727919624730428590,115.2,1.103374248988011727919624730428590
18,130.315037242582738045280944206247704,129.2,1.115037242582738045280944206247704
19,145.126057740046158590843893870698480,144.0,1.126057740046158590843893870698480
20,160.736503034709234984192358533059473,159.6,1.136503034709234984192358533059473
21,177.146430359492207544395479314287233,176.0,1.146430359492207544395479314287233
22,194.355888798063335154896498850470417,193.2,1.155888798063335154896498850470417
23,212.364920762775419730835216418436839,211.2,1.164920762775419730835216418436839
24,231.173563152066228244311239858146943,230.0,1.173563152066228244311239858146943
25,250.781848267254419019230860009223947,249.6,1.181848267254419019230860009223947
26,271.189804546347129411230122482134842,270.0,1.189804546347129411230122482134842
27,292.397457157002551591099025316596760,291.2,1.197457157002551591099025316596760
28,314.404828479888972343789575336232431,313.2,1.204828479888972343789575336232431
29,337.211938505886724975496547965713124,336.0,1.211938505886724975496547965713124
30,360.818805164930013853336410162721182,359.6,1.218805164930013853336410162721182
31,385.225444600139633603018493568126581,384.0,1.225444600139633603018493568126581
32,410.431871397819705405862993211554245,409.2,1.231871397819705405862993211554245
33,436.438098781581905032897381196537530,435.2,1.238098781581905032897381196537530
34,463.244138777110110987991260849372999,462.0,1.244138777110110987991260849372999
35,490.850002352739206066589270973224007,489.6,1.250002352739206066589270973224007
36,519.255699539988286758289211748351889,518.0,1.255699539988286758289211748351889
37,548.461239537384450373185310319644518,547.2,1.261239537384450373185310319644518
38,578.466630800282911028907008773329039,577.2,1.266630800282911028907008773329039
39,609.271881118891346985887115551788606,608.0,1.271881118891346985887115551788606
40,640.876997686310561034945406459364318,639.6,1.276997686310561034945406459364318
41,673.281987158086785367631421763612714,672.0,1.281987158086785367631421763612714
42,706.486855704515969758328521543774380,705.2,1.286855704515969758328521543774380
43,740.491609056733905542256970735072037,739.2,1.291609056733905542256970735072037
44,775.296252547457943858052476028104679,774.0,1.296252547457943858052476028104679
45,810.900791147108497054634954078012436,809.6,1.300791147108497054634954078012436
46,847.305229495925375879518299526476779,846.0,1.305229495925375879518299526476779
47,884.509571932600538453405069686838048,883.2,1.309571932600538453405069686838048
48,922.513822519871240671682453564870148,921.2,1.313822519871240671682453564870148
49,961.317985067452915129556657879280284,960.0,1.317985067452915129556657879280284
50,1000.92206315263698295392403849245018,999.6,1.32206315263698295392403849245018
51,1041.32606013883333596261693799394846,1040.0,1.32606013883333596261693799394846
52,1082.52997919229888135737301192615911,1081.2,1.32997919229888135737301192615911
53,1124.53382329726109103833940340612951,1123.2,1.33382329726109103833940340612951
54,1167.33759526961793649647425129846378,1166.0,1.33759526961793649647425129846378
55,1210.94129776937211474770233851895366,1209.6,1.34129776937211474770233851895366
56,1255.34493331193739620256176282637198,1254.0,1.34493331193739620256176282637198
57,1300.54850427843772639996398054333632,1299.2,1.34850427843772639996398054333632
58,1346.55201292510491634740242344279243,1345.2,1.35201292510491634740242344279243
59,1393.35546139186800226267307515732074,1392.0,1.35546139186800226267307515732074
60,1440.95885171021633100447090815601430,1439.6,1.35885171021633100447090815601430
61,1489.36218581040886325172396132870394,1488.0,1.36218581040886325172396132870394
62,1538.56546552809388548641544564609696,1537.2,1.36546552809388548641544564609696
63,1588.56869261039607994562554710021329,1587.2,1.36869261039607994562554710021329
64,1639.37186872152158922860407250392067,1638.0,1.37186872152158922860407250392067
65,1690.97499544792617740471358048440776,1689.6,1.37499544792617740471358048440776
66,1743.37807430308674212902980470003018,1742.0,1.37807430308674212902980470003018
67,1796.58110673191216998106134005073290,1795.2,1.38110673191216998106134005073290
68,1850.58409411482577108124292073768382,1849.2,1.38409411482577108124292073768382
69,1905.38703777154821636913055753085835,1904.0,1.38703777154821636913055753085835
70,1960.98993896460697265896356350116624,1959.6,1.38993896460697265896356350116624
71,2017.39279890259563188452776724228589,2016.0,1.39279890259563188452776724228589
72,2074.59561874320423270287508116602685,2073.2,1.39561874320423270287508116602685
73,2132.59839959603961962005137450121291,2131.2,1.39839959603961962005137450121291
74,2191.40114252525306595343232182860626,2190.0,1.40114252525306595343232182860626
75,2251.00384855199075584416413919987677,2249.6,1.40384855199075584416413919987677
76,2311.40651865668127097645120503260332,2310.0,1.40651865668127097645120503260332
77,2372.60915378117292526201466189328757,2371.2,1.40915378117292526201466189328757
78,2434.61175483073262494986611647472005,2433.2,1.41175483073262494986611647472005
79,2497.41432267591688480154848347813720,2496.0,1.41432267591688480154848347813720
80,2561.01685815432469284635175512502803,2559.6,1.41685815432469284635175512502803
81,2625.41936207224106688953494739183198,2624.0,1.41936207224106688953494739183198
82,2690.62183520617938449603210816118729,2689.2,1.42183520617938449603210816118729
83,2756.62427830432987943833070247422651,2755.2,1.42427830432987943833070247422651
84,2823.42669208792107330549462766240942,2822.0,1.42669208792107330549462766240942
85,2891.02907725250035169413049108899038,2889.6,1.42907725250035169413049108899038
86,2959.43143446913937853670655864711379,2958.0,1.43143446913937853670655864711379
87,3028.63376438556958465183390962394574,3027.2,1.43376438556958465183390962394574
88,3098.63606762725254322338371545085356,3097.2,1.43606762725254322338371545085356
89,3169.43834479838966141315310694424529,3168.0,1.43834479838966141315310694424529
90,3241.04059648287527409506280994941773,3239.6,1.44059648287527409506280994941773
91,3313.44282324519690424681909748894673,3312.0,1.44282324519690424681909748894673
92,3386.64502563128616623743349035720459,3385.2,1.44502563128616623743349035720459
93,3460.64720416932352599393803267792552,3459.2,1.44720416932352599393803267792552
94,3535.44935937049988910189587553822231,3534.0,1.44935937049988910189587553822231
95,3611.05149172973776674027790808687902,3609.6,1.45149172973776674027790808687902
96,3687.45360172637456752915979044027430,3686.0,1.45360172637456752915979044027430
97,3764.65568982481037902658408050141104,3763.2,1.45568982481037902658408050141104
98,3842.65775647512242973663754935737339,3841.2,1.45775647512242973663754935737339
99,3921.45980211364826901860455001391493,3920.0,1.45980211364826901860455001391493
100,4001.06182716353955594664135252733849,3999.6,1.46182716353955594664135252733849
101,4081.46383203528821886526179231242242,4080.0,1.46383203528821886526179231242242
102,4162.66581712722662181120356992685033,4161.2,1.46581712722662181120356992685033
103,4244.66778282600326605863165419713603,4243.2,1.46778282600326605863165419713603
104,4327.46972950703544777992477530880969,4326.0,1.46972950703544777992477530880969
105,4411.07165753494019974053419737965129,4409.6,1.47165753494019974053419737965129
106,4495.47356726394475418216016766343489,4494.0,1.47356726394475418216016766343489
107,4580.67545903827768596653607043639837,4579.2,1.47545903827768596653607043639837
108,4666.67733319254181581255592740061966,4665.2,1.47733319254181581255592740061966
109,4753.47919005206988486594669919974054,4752.0,1.47919005206988486594669919974054
110,4841.08102993326394942056183071724517,4839.6,1.48102993326394942056183071724517
111,4929.48285314391937874917392006570444,4928.0,1.48285314391937874917392006570444
112,5018.68465998353428956801093333423828,5017.2,1.48465998353428956801093333423828
113,5108.68645074360519512348633445131029,5107.2,1.48645074360519512348633445131029
114,5199.48822570790959813181712417519149,5198.0,1.48822570790959813181712417519149
115,5291.08998515277621635372122514987853,5289.6,1.48998515277621635372122514987853
116,5383.49172934734348125473744931188893,5382.0,1.49172934734348125473744931188893
117,5476.69345855380691848870449614479877,5475.2,1.49345855380691848870449614479877
118,5570.69517302765597791082984977148073,5569.2,1.49517302765597791082984977148073
119,5665.49687301790084711306320398721446,5664.0,1.49687301790084711306320398721446
120,5761.09855876728975663225397669042019,5759.6,1.49855876728975663225397669042019
121,5857.50023051251724671432833106737332,5856.0,1.50023051251724671432833106737332
122,5954.70188848442384660458827286459621,5953.2,1.50188848442384660458827286459621
123,6052.70353290818758514130343246130089,6051.2,1.50353290818758514130343246130089
124,6151.50516400350773374995746182744588,6150.0,1.50516400350773374995746182744588
125,6251.10678198478115336924787143196810,6249.6,1.50678198478115336924787143196810
126,6351.50838706127160164264057645609148,6350.0,1.50838706127160164264057645609148
127,6452.70997943727233613139402384581214,6451.2,1.50997943727233613139402384581214
128,6554.71155931226232671777787490028989,6553.2,1.51155931226232671777787490028989
129,6657.51312688105637829397312571730003,6656.0,1.51312688105637829397312571730003
130,6761.11468233394944645027326441766120,6759.6,1.51468233394944645027326441766120
131,6865.51622585685541347208800350292499,6864.0,1.51622585685541347208800350292499
132,6970.71775763144057697805028645226656,6969.2,1.51775763144057697805028645226656
133,7076.71927783525209174994341901468808,7075.2,1.51927783525209174994341901468808
134,7183.52078664184159402920615215605497,7182.0,1.52078664184159402920615215605497
135,7291.12228422088421944643118351427070,7289.6,1.52228422088421944643118351427070
136,7399.52377073829322206274218786300891,7398.0,1.52377073829322206274218786300891
137,7508.72524635633038869399076872885695,7507.2,1.52524635633038869399076872885695
138,7618.72671123371242907672426951401161,7617.2,1.52671123371242907672426951401161
139,7729.52816552571352032896968333861627,7728.0,1.52816552571352032896968333861627
140,7841.12960938426416871291063966868760,7839.6,1.52960938426416871291063966868760
141,7953.53104295804654714904454187699216,7952.0,1.53104295804654714904454187699216
142,8066.73246639258645885813975696968607,8065.2,1.53246639258645885813975696968607
143,8180.73387983034206885714356393020574,8179.2,1.53387983034206885714356393020574
144,8295.53528341078953785555448329969647,8294.0,1.53528341078953785555448329969647
145,8411.13667727050568891101363507740129,8409.6,1.53667727050568891101363507740129
146,8527.53806154324782933411871625774255,8526.0,1.53806154324782933411871625774255
147,8644.73943636003084212949826715923628,8643.2,1.53943636003084212949826715923628
148,8762.74080184920166230215056260118755,8761.2,1.54080184920166230215056260118755
149,8881.54215813651123982997709311398991,8880.0,1.54215813651123982997709311398991
150,9001.14350534518409294336355165737805,8999.6,1.54350534518409294336355165737805
151,9121.54484359598554762603728130315083,9120.0,1.54484359598554762603728130315083
152,9242.74617300728675363634567339204973,9241.2,1.54617300728675363634567339204973
153,9364.74749369512756599862319018348593,9363.2,1.54749369512756599862319018348593
154,9487.54880577327737586386282497142273,9486.0,1.54880577327737586386282497142273
155,9611.15010935329396897565787586020232,9609.6,1.55010935329396897565787586020232
156,9735.55140454458048960774996169522460,9734.0,1.55140454458048960774996169522460
157,9860.75269145444058101975916120240912,9859.2,1.55269145444058101975916120240912
158,9986.75397018813177424916960898693835,9985.2,1.55397018813177424916960898693835
159,10113.5552408489171889123759535527011,10112.0,1.5552408489171889123759535527011
160,10241.1565035381156123523003338030476,10239.6,1.5565035381156123523003338030476
161,10369.5577583551500156286707730150608,10368.0,1.5577583551500156286707730150608
162,10498.7590053975945658120322656756900,10497.2,1.5590053975945658120322656756900
163,10628.7602447612201894347598992273848,10627.2,1.5602447612201894347598992273848
164,10759.5614765400387417356388403236150,10758.0,1.5614765400387417356388403236150
165,10891.1627008263458302981987048215046,10889.6,1.5627008263458302981987048215046
166,11023.5639177107623435983610670489155,11022.0,1.5639177107623435983610670489155
167,11156.7651272822747316936893864927126,11155.2,1.5651272822747316936893864927126
168,11290.7663296282740817431246963211466,11289.2,1.5663296282740817431246963211466
169,11425.5675248345940334192676463904133,11424.0,1.5675248345940334192676463904133
170,11561.1687129855475739562923511128967,11559.6,1.5687129855475739562923511128967
171,11697.5698941639627530279227613554026,11696.0,1.5698941639627530279227613554026
172,11834.7710684512173553220992692230944,11833.2,1.5710684512173553220992692230944
173,11972.7722359272725662146361444026579,11971.2,1.5722359272725662146361444026579
174,12111.5733966707056663853535810027728,12110.0,1.5733966707056663853535810027728
175,12251.1745507587417893615871524807490,12249.6,1.5745507587417893615871524807490
176,12391.5756982672847716953972387122335,12390.0,1.5756982672847716953972387122335
177,12532.7768392709471290349856559597496,12531.2,1.5768392709471290349856559597496
178,12674.7779738430791872446853725321287,12673.2,1.5779738430791872446853725321287
179,12817.5791020557973950184388258299179,12816.0,1.5791020557973950184388258299179
180,12961.1802239800118489331333858718964,12959.6,1.5802239800118489331333858718964
181,13105.5813396854530535903497659614745,13104.0,1.5813396854530535903497659614745
182,13250.7824492406979445418783320942105,13249.2,1.5824492406979445418783320942105
183,13396.7835527131951970482467733229035,13395.2,1.5835527131951970482467733229035
184,13543.5846501692898449117646662275324,13542.0,1.5846501692898449117646662275324
185,13691.1857416742472311921776190764508,13689.6,1.5857416742472311921776190764508
186,13839.5868272922763117735197291084740,13838.0,1.5868272922763117735197291084740
187,13988.7879070865523355826308487611919,13987.2,1.5879070865523355826308487611919
188,14138.7889811192389168956222601187869,14137.2,1.5889811192389168956222601187869
189,14289.5900494515095234633473251611995,14288.0,1.5900494515095234633473251611995
190,14441.1911121435683961069206516574331,14439.6,1.5911121435683961069206516574331
191,14593.5921692546709190058030476419180,14592.0,1.5921692546709190058030476419180
192,14746.7932208431434570606199772701493,14745.2,1.5932208431434570606199772701493
193,14900.7942669664026786345256550625166,14899.2,1.5942669664026786345256550625166
194,15055.5953076809743770138589040523800,15054.0,1.5953076809743770138589040523800
195,15211.1963430425118085204124712442487,15209.6,1.5963430425118085204124712442487
196,15367.5973731058135609671781171819750,15366.0,1.5973731058135609671781171819750
197,15524.7983979248409668328503456292181,15523.2,1.5983979248409668328503456292181
198,15682.7994175527350753170295358870363,15681.2,1.5994175527350753170295358870363
199,15841.6004320418331961099395576793858,15840.0,1.6004320418331961099395576793858
200,16001.2014414436850288168204728636577,15999.6,1.6014414436850288168204728636577
201,16161.6024458090683890133747502762456,16160.0,1.6024458090683890133747502762456
202,16322.8034451880045443083778096969111,16321.2,1.6034451880045443083778096969111
203,16484.8044396297731710681346248411300,16483.2,1.6044396297731710681346248411300
204,16647.6054291829269434176433879063635,16646.0,1.6054291829269434176433879063635
205,16811.2064138953057644837779076040478,16809.6,1.6064138953057644837779076040478
206,16975.6073938140506528991851543916467,16974.0,1.6073938140506528991851543916467
207,17140.8083689856172904375230806169953,17139.2,1.6083689856172904375230806169953
208,17306.8093394557892450014428415381073,17305.2,1.6093394557892450014428415381073
209,17473.6103052696908747061426071147946,17472.0,1.6103052696908747061426071147946
210,17641.2112664717999245540915248151809,17639.6,1.6112664717999245540915248151809
211,17809.6122231059598230598797961197811,17808.0,1.6122231059598230598797961197811
212,17978.8131752153916890523165357187936,17977.2,1.6131752153916890523165357187936
213,18148.8141228427060530316627800622249,18147.2,1.6141228427060530316627800622249
214,18319.6150660299143080576828488530619,18318.0,1.6150660299143080576828488530619
215,18491.2160048184398893747381610757235,18489.6,1.6160048184398893747381610757235
216,18663.6169392491291967283735476207588,18662.0,1.6169392491291967283735476207588
217,18836.8178693622622633324310155488748,18835.2,1.6178693622622633324310155488748
218,19010.8187951975631804591333489171898,19009.2,1.6187951975631804591333489171898
219,19185.6197167942102809250658753670963,19184.0,1.6197167942102809250658753670963
220,19361.2206341908460939811765465960775,19359.6,1.6206341908460939811765465960775
221,19537.6215474255870695090762893496298,19536.0,1.6215474255870695090762893496298
222,19714.8224565360330887209972398594762,19713.2,1.6224565360330887209972398594762
223,19892.8233615592767549242319922095462,19891.2,1.6233615592767549242319922095462
224,20071.6242625319124794093439197061742,20070.0,1.6242625319124794093439197061742
225,20251.2251594900453650186828207209473,20249.6,1.6251594900453650186828207209473
226,20431.6260524692998909331384550566171,20430.0,1.6260524692998909331384550566171
227,20612.8269415048284073199699513814678,20611.2,1.6269415048284073199699513814678
228,20794.8278266313194416519019259543032,20793.2,1.6278266313194416519019259543032
229,20977.6287078830058238496221377358549,20976.0,1.6287078830058238496221377358549
230,21161.2295852936726349339084229221301,21159.6,1.6295852936726349339084229221301
231,21345.6304588966649809766388378224583,21344.0,1.6304588966649809766388378224583
232,21530.8313287248956027595889742173027,21529.2,1.6313287248956027595889742173027
233,21716.8321948108523161265040736846365,21715.2,1.6321948108523161265040736846365
234,21903.6330571866052991744947581694215,21902.0,1.6330571866052991744947581694215
235,22091.2339158838142194558392620237598,22089.6,1.6339158838142194558392620237598
236,22279.6347709337352108889430485696154,22278.0,1.6347709337352108889430485696154
237,22468.8356223672277039985651299195096,22467.2,1.6356223672277039985651299195096
238,22658.8364702147611112163042229508692,22657.2,1.6364702147611112163042229508692
