Eigenstate,Energy,Kinetic Energy,Potential Energy
1,0.500000000234000963584523012027197450,0.0,0.500000000234000963584523012027197450
2,1.84623093917856341917476173789530049,1.2,0.64623093917856341917476173789530049
3,3.93633761419178988517326321154891107,3.2,0.73633761419178988517326321154891107
4,6.79966528715992237774230044977927737,6.0,0.79966528715992237774230044977927737
5,10.4480465914746794979823835625725230,9.6,0.8480465914746794979823835625725230
6,14.8870660219219582153457740470091501,14.0,0.8870660219219582153457740470091501
7,20.1197208599547585612355007627547161,19.2,0.9197208599547585612355007627547161
8,26.1477838919580525885490395875057040,25.2,0.9477838919580525885490395875057040
9,32.9723836169430118768723272532859556,32.0,0.9723836169430118768723272532859556
10,40.5942802890615368377261569557535494,39.6,0.9942802890615368377261569557535494
11,49.0140094784571703745535383543803232,48.0,1.0140094784571703745535383543803232
12,58.2319622804365987789645027466013278,57.2,1.0319622804365987789645027466013278
13,68.2484328250674446062722348357225428,67.2,1.0484328250674446062722348357225428
14,79.0636478100345439727380005983964499,78.0,1.0636478100345439727380005983964499
15,90.6777856164542013310463571106122616,89.6,1.0777856164542013310463571106122616
16,103.090989113744678554551708226318092,102.0,1.090989113744678554551708226318092
17,116.303374493087728056939122064284147,115.2,1.103374493087728056939122064284147
18,130.315037518434811697718763749623901,129.2,1.115037518434811697718763749623901
19,145.126058049611091912601286690148300,144.0,1.126058049611091912601286690148300
20,160.736503379949377786652896266256389,159.6,1.136503379949377786652896266256389
21,177.146430742371829254736275492335359,176.0,1.146430742371829254736275492335359
22,194.355889220548702464843837933546371,193.2,1.155889220548702464843837933546371
23,212.364921226834878408252896972730804,211.2,1.164921226834878408252896972730804
24,231.173563659670288159333273842160734,230.0,1.173563659670288159333273842160734
25,250.781848820375841700916673279353182,249.6,1.181848820375841700916673279353182
26,271.189805146961017634385013882196844,270.0,1.189805146961017634385013882196844
27,292.397457807086440622719662122218416,291.2,1.197457807086440622719662122218416
28,314.404829181422922571780337357641273,313.2,1.204829181422922571780337357641273
29,337.211939260853415710152451158179799,336.0,1.211939260853415710152451158179799
30,360.818805975314838142144297025212765,359.6,1.218805975314838142144297025212765
31,385.225445467930793936709680190203121,384.0,1.225445467930793936709680190203121
32,410.431872325008310221884957484334321,409.2,1.231872325008310221884957484334321
33,436.438099770162065944024874876115827,435.2,1.238099770162065944024874876115827
34,463.244139829079040680413656814835640,462.0,1.244139829079040680413656814835640
35,490.850003470097316824742116975172525,489.6,1.250003470097316824742116975172525
36,519.255700724739289583849974897044016,518.0,1.255700724739289583849974897044016
37,548.461240791535454673691586473587158,547.2,1.261240791535454673691586473587158
38,578.466632125844524857870352822144463,577.2,1.266632125844524857870352822144463
39,609.271882517877777821435153651490052,608.0,1.271882517877777821435153651490052
40,640.876999160739717088205598354668978,639.6,1.276999160739717088205598354668978
41,673.281988709980377415481557044366361,672.0,1.281988709980377415481557044366361
42,706.486857335899613497943578369973192,705.2,1.286857335899613497943578369973192
43,740.491610769637224467203161984738840,739.2,1.291610769637224467203161984738840
44,775.296254343914672657613595727490812,774.0,1.296254343914672657613595727490812
45,810.900793029156585539679567458593668,809.6,1.300793029156585539679567458593668
46,847.305231465607093439588345252387223,846.0,1.305231465607093439588345252387223
47,884.509573991962579050873520706963875,883.2,1.309573991962579050873520706963875
48,922.513824670964828379828510830188985,921.2,1.313824670964828379828510830188985
49,961.317987312333910222270589861679554,960.0,1.317987312333910222270589861679554
50,1000.92206549336598855550489307755999,999.6,1.32206549336598855550489307755999
51,1041.32606257747580526678510284037522,1040.0,1.32606257747580526678510284037522
52,1082.52998173092522542520082563216940,1081.2,1.32998173092522542520082563216940
53,1124.53382593794678718532060970273594,1123.2,1.33382593794678718532060970273594
54,1167.33759801444363727941773453516035,1166.0,1.33759801444363727941773453516035
55,1210.94130062042375756255569952795908,1209.6,1.34130062042375756255569952795908
56,1255.34493627130631350465354064983377,1254.0,1.34493627130631350465354064983377
57,1300.54850734822075655850529790254229,1299.2,1.34850734822075655850529790254229
58,1346.55201610740451514641627725531210,1345.2,1.35201610740451514641627725531210
59,1393.35546468879235506082336903169163,1392.0,1.35546468879235506082336903169163
60,1440.95885512387946556655102530363477,1439.6,1.35885512387946556655102530363477
61,1489.36218934293076326483650089642511,1488.0,1.36218934293076326483650089642511
62,1538.56546918160060477413480035059689,1537.2,1.36546918160060477413480035059689
63,1588.56869638701985739368425407822077,1587.2,1.36869638701985739368425407822077
64,1639.37187262340096443588494797460916,1638.0,1.37187262340096443588494797460916
65,1690.97499947720610707356481076024418,1689.6,1.37499947720610707356481076024418
66,1743.37807846191871720914882938432121,1742.0,1.37807846191871720914882938432121
67,1796.58111102245433358141875229335589,1795.2,1.38111102245433358141875229335589
68,1850.58409853924303716473883905527060,1849.2,1.38409853924303716473883905527060
69,1905.38704233201238924489737214062473,1904.0,1.38704233201238924489737214062473
70,1960.98994366329686728744480279400906,1959.6,1.38994366329686728744480279400906
71,2017.39280374169719501068291350749999,2016.0,1.39280374169719501068291350749999
72,2074.59562372491066483307540935814436,2073.2,1.39562372491066483307540935814436
73,2132.59840472255149785845159895901311,2131.2,1.39840472255149785845159895901311
74,2191.40114779877846771382004311193812,2190.0,1.40114779877846771382004311193812
75,2251.00385397474538345351059731271929,2249.6,1.40385397474538345351059731271929
76,2311.40652423088857718660703241548700,2310.0,1.40652423088857718660703241548700
77,2372.60915950906423968621932699653655,2371.2,1.40915950906423968621932699653655
78,2434.61176071454728144096550517883972,2433.2,1.41176071454728144096550517883972
79,2497.41432871790234978904423674906558,2496.0,1.41432871790234978904423674906558
80,2561.01686435673669464963680580654777,2559.6,1.41686435673669464963680580654777
81,2625.41936843734372602490590107987048,2624.0,1.41936843734372602490590107987048
82,2690.62184173624534499530655562123601,2689.2,1.42184173624534499530655562123601
83,2756.62428500164044119713986430964185,2755.2,1.42428500164044119713986430964185
84,2823.42669895476632547956742562171490,2822.0,1.42669895476632547956742562171490
85,2891.02908429117930716213505139733658,2889.6,1.42908429117930716213505139733658
86,2959.43144168196010944846865187034397,2958.0,1.43144168196010944846865187034397
87,3028.63377177484935908101107683318094,3027.2,1.43377177484935908101107683318094
88,3098.63607519531796294393584903735874,3097.2,1.43607519531796294393584903735874
89,3169.43835254757680081921836455045330,3168.0,1.43835254757680081921836455045330
90,3241.04060441552982028411952833204250,3239.6,1.44060441552982028411952833204250
91,3313.44283136367429828629288326066741,3312.0,1.44283136367429828629288326066741
92,3386.64503393795174563519013008688455,3385.2,1.44503393795174563519013008688455
93,3460.64721266655266839339156420182813,3459.2,1.44721266655266839339156420182813
94,3535.44936806067815722275425824116561,3534.0,1.44936806067815722275425824116561
95,3611.05150061526105458624774242663347,3609.6,1.45150061526105458624774242663347
96,3687.45361080964924788423600490440175,3686.0,1.45361080964924788423600490440175
97,3764.65569910825345226186208243646510,3763.2,1.45569910825345226186208243646510
98,3842.65776596116167394990053672746115,3841.2,1.45776596116167394990053672746115
99,3921.45981180472239152926329358532227,3920.0,1.45981180472239152926329358532227
100,4001.06183706209834616893127274590955,3999.6,1.46183706209834616893127274590955
101,4081.46384214379270258293953035892244,4080.0,1.46384214379270258293953035892244
102,4162.66582744814921687732646858191891,4161.2,1.46582744814921687732646858191891
103,4244.66779336182793954435267164574404,4243.2,1.46779336182793954435267164574404
104,4327.46974026025787459659295924111047,4326.0,1.46974026025787459659295924111047
105,4411.07166850806792275975232865738525,4409.6,1.47166850806792275975232865738525
106,4495.47357845949734587882253526646392,4494.0,1.47357845949734587882253526646392
107,4580.67547045878691161024750472019420,4579.2,1.47547045878691161024750472019420
108,4666.67734484055179823321805460158565,4665.2,1.47734484055179823321805460158565
109,4753.47920193013727081969150412319489,4752.0,1.47920193013727081969150412319489
110,4841.08104204395807758261309814724143,4839.6,1.48104204395807758261309814724143
111,4929.48286548982244936062715319939262,4928.0,1.48286548982244936062715319939262
112,5018.68467256724153576393959288196693,5017.2,1.48467256724153576393959288196693
113,5108.68646356772505597020846056563454,5107.2,1.48646356772505597020846056563454
114,5199.48823877506389340159135253408618,5198.0,1.48823877506389340159135253408618
115,5291.08999846560032306558450914795178,5289.6,1.48999846560032306558450914795178
116,5383.49174290848651201065002328793113,5382.0,1.49174290848651201065002328793113
117,5476.69347236593190163462885789291677,5475.2,1.49347236593190163462885789291677
118,5570.69518709344003955284263609716015,5569.2,1.49518709344003955284263609716015
119,5665.49688734003539501907908010962316,5664.0,1.49688734003539501907908010962316
120,5761.09857334848066605043225794154227,5759.6,1.49857334848066605043225794154227
121,5857.50024535548504813973376167965173,5856.0,1.50024535548504813973376167965173
122,5954.70190359190391552618827766874709,5953.2,1.50190359190391552618827766874709
123,6052.70354828293033380190685197658603,6051.2,1.50354828293033380190685197658603
124,6151.50517964827880495223110112092217,6150.0,1.50517964827880495223110112092217
125,6251.10679790236161636149210448716264,6249.6,1.50679790236161636149210448716264
126,6351.50840325445815011855947214352215,6350.0,1.50840325445815011855947214352215
127,6452.70999590887748837866106245209637,6451.2,1.50999590887748837866106245209637
128,6554.71157606511462795077816195325965,6553.2,1.51157606511462795077816195325965
129,6657.51314391800060520669157942595949,6656.0,1.51314391800060520669157942595949
130,6761.11469965784681402590101854065952,6759.6,1.51469965784681402590101854065952
131,6865.51624347058378408653450062888583,6864.0,1.51624347058378408653450062888583
132,6970.71777553789467183517739549316754,6969.2,1.51777553789467183517739549316754
133,7076.71929603734370468697601088190050,7075.2,1.51929603734370468697601088190050
134,7183.52080514249980773143120780892726,7182.0,1.52080514249980773143120780892726
135,7291.12230302305562411096407636664047,7289.6,1.52230302305562411096407636664047
136,7399.52378984494213655182057725098353,7398.0,1.52378984494213655182057725098353
137,7508.72526577043908421895496667947837,7507.2,1.52526577043908421895496667947837
138,7618.72673095828135545455227885799378,7617.2,1.52673095828135545455227885799378
139,7729.52818556376153485396284155198819,7728.0,1.52818556376153485396284155198819
140,7841.12962973882876768686797779346349,7839.6,1.52962973882876768686797779346349
141,7953.53106363218410011401954908121041,7952.0,1.53106363218410011401954908121041
142,8066.73248738937244557664923384577221,8065.2,1.53248738937244557664923384577221
143,8180.73390115287131908548741653345884,8179.2,1.53390115287131908548741653345884
144,8295.53530506217647395671271981249116,8294.0,1.53530506217647395671271981249116
145,8411.13669925388457135441051105066661,8409.6,1.53669925388457135441051105066661
146,8527.53808386177300513038757922777141,8526.0,1.53808386177300513038757922777141
147,8644.73945901687699624923968652074774,8643.2,1.53945901687699624923968652074774
148,8762.74082484756407212855527371882108,8761.2,1.54082484756407212855527371882108
149,8881.54218147960603269608396465433340,8880.0,1.54218147960603269608396465433340
150,9001.14352903624850680563839518552791,8999.6,1.54352903624850680563839518552791
151,9121.54486763827819492689714381242008,9120.0,1.54486763827819492689714381242008
152,9242.74619740408788840920957982558092,9241.2,1.54619740408788840920957982558092
153,9364.74751844973935427004968142929963,9363.2,1.54751844973935427004968142929963
154,9487.54883088902416940833292819298787,9486.0,1.54883088902416940833292819298787
155,9611.15013483352258247958485054510604,9609.6,1.55013483352258247958485054510604
156,9735.55143039266048130034193709812708,9734.0,1.55143039266048130034193709812708
157,9860.75271767376453682942554605741026,9859.2,1.55271767376453682942554605741026
158,9986.75399678211559554525537912379806,9985.2,1.55399678211559554525537912379806
159,10113.5552678210003838931194834975144,10112.0,1.5552678210003838931194834975144
160,10241.1565308917615911410532732067102,10239.6,1.5565308917615911410532732067102
161,10369.5577860938463891415806003455688,10368.0,1.5577860938463891415806003455688
162,10498.7590335248534484615795535411515,10497.2,1.5590335248534484615795535411515
163,10628.7602732805785057347590593088835,10627.2,1.5602732805785057347590593088835
164,10759.5615054550585368745560765084022,10758.0,1.5615054550585368745560765084022
165,10891.1627301406145847489137600417742,10889.6,1.5627301406145847489137600417742
166,11023.5639474278932918337981631487919,11022.0,1.5639474278932918337981631487919
167,11156.7651574059071850790745905905439,11155.2,1.5651574059071850790745905905439
168,11290.7663601620737556769873203322779,11289.2,1.5663601620737556769873203322779
169,11425.5675557822533787966931720591697,11424.0,1.5675557822533787966931720591697
170,11561.1687443507861130293583585026999,11559.6,1.5687443507861130293583585026999
171,11697.5699259505274197397036746760518,11696.0,1.5699259505274197397036746760518
172,11834.7711006628828401921141485559472,11833.2,1.5711006628828401921141485559472
173,11972.7722685678416658551356891935823,11971.2,1.5722685678416658551356891935823
174,12111.5734297440096377294012308420082,12110.0,1.5734297440096377294012308420082
175,12251.1745842686407086854807154424564,12249.6,1.5745842686407086854807154424564
176,12391.5757322176678985196087662038933,12390.0,1.5757322176678985196087662038933
177,12532.7768736657332749894639545658768,12531.2,1.5768736657332749894639545658768
178,12674.7780086862170899860718295700655,12673.2,1.5780086862170899860718295700655
179,12817.5791373512660972884944698424269,12816.0,1.5791373512660972884944698424269
180,12961.1802597318210828494609355458802,12959.6,1.5802597318210828494609355458802
181,13105.5813758976436302623231668344578,13104.0,1.5813758976436302623231668344578
182,13250.7824859173421491065635373382909,13249.2,1.5824859173421491065635373382909
183,13396.7835898583971892230135972240742,13395.2,1.5835898583971892230135972240742
184,13543.5846877871860651622500855700452,13542.0,1.5846877871860651622500855700452
185,13691.1857797690068126162687561572503,13689.6,1.5857797690068126162687561572503
186,13839.5868658681014978040769503134657,13838.0,1.5868658681014978040769503134657
187,13988.7879461476789036137781497210043,13987.2,1.5879461476789036137781497210043
188,14138.7890206699366079395845125187566,14137.2,1.5890206699366079395845125187566
189,14289.5900894960824779470191815432196,14288.0,1.5900894960824779470191815432196
190,14441.1911526863555959196107113182419,14439.6,1.5911526863555959196107113182419
191,14593.5922103000466359119091373818622,14592.0,1.5922103000466359119091373818622
192,14746.7932623955177075933611843083781,14745.2,1.5932623955177075933611843083781
193,14900.7943090302216855892810015532260,14899.2,1.5943090302216855892810015532260
194,15055.5953502607210376621480022315739,15054.0,1.5953502607210376621480022315739
195,15211.1963861427061696680999299635322,15209.6,1.5963861427061696680999299635322
196,15367.5974167310133009830893184228030,15366.0,1.5974167310133009830893184228030
197,15524.7984420796418847766589908842412,15523.2,1.5984420796418847766589908842412
198,15682.7994622417715872980131575397797,15681.2,1.5994622417715872980131575397797
199,15841.6004772697788390110066449315844,15840.0,1.6004772697788390110066449315844
200,16001.2014872152529715210831683848520,15999.6,1.6014872152529715210831683848520
201,16161.6024921290119512734879097226417,16160.0,1.6024921290119512734879097226417
202,16322.8034920611177234018867247752246,16321.2,1.6034920611177234018867247752246
203,16484.8044870608911763851620104910083,16483.2,1.6044870608911763851620104910083
204,16647.6054771769267391304228777767934,16646.0,1.6054771769267391304228777767934
205,16811.2064624571066204507886735011868,16809.6,1.6064624571066204507886735011868
206,16975.6074429486147039599781743651333,16974.0,1.6074429486147039599781743651333
207,17140.8084186979501042577446563161124,17139.2,1.6084186979501042577446563161124
208,17306.8093897509403986310663170285944,17305.2,1.6093897509403986310663170285944
209,17473.6103561527545400175118310562284,17472.0,1.6103561527545400175118310562284
210,17641.2113179479154627300644389778796,17639.6,1.6113179479154627300644389778796
211,17809.6122751803123883061387456650288,17808.0,1.6122751803123883061387456650288
212,17978.8132278932128417117892907390085,17977.2,1.6132278932128417117892907390085
213,18148.8141761292743822829746347148942,18147.2,1.6141761292743822829746347148942
214,18319.6151199305560643836369360156050,18318.0,1.6151199305560643836369360156050
215,18491.2160593385296269910078368878189,18489.6,1.6160593385296269910078368878189
216,18663.6169943940904261668833913459543,18662.0,1.6169943940904261668833913459543
217,18836.8179251375681143783082412623506,18835.2,1.6179251375681143783082412623506
218,19010.8188516087370756446322852834203,19009.2,1.6188516087370756446322852834203
219,19185.6197738468266197885097821283299,19184.0,1.6197738468266197885097821283299
220,19361.2206918905309483037208880209425,19359.6,1.6206918905309483037208880209425
221,19537.6216057780188897469862861354210,19536.0,1.6216057780188897469862861354210
222,19714.8225155469434218561519880059929,19713.2,1.6225155469434218561519880059929
223,19892.8234212344509739607164418439187,19891.2,1.6234212344509739607164418439187
224,20071.6243228771905247492808624864658,20070.0,1.6243228771905247492808624864658
225,20251.2252205113224979558885241000079,20249.6,1.6252205113224979558885241000079
226,20431.6261141725274595087610142981717,20430.0,1.6261141725274595087610142981717
227,20612.8270038960146247899977683450646,20611.2,1.6270038960146247899977683450646
228,20794.8278897165301778223138737307042,20793.2,1.6278897165301778223138737307042
229,20977.6287716683654095409922615407502,20976.0,1.6287716683654095409922615407502
230,21161.2296497853646798434864279958592,21159.6,1.6296497853646798434864279958592
231,21345.6305241009332052123049717662937,21344.0,1.6305241009332052123049717662937
232,21530.8313946480446823266360974608337,21529.2,1.6313946480446823266360974608337
233,21716.8322614592487426549299375805655,21715.2,1.6322614592487426549299375805655
234,21903.6331245666782541814120552247277,21902.0,1.6331245666782541814120552247277
235,22091.2339840020564634447183390704579,22089.6,1.6339840020564634447183390704579
236,22279.6348397967039875947142757240235,22278.0,1.6348397967039875947142757240235
237,22468.8356919815456600951237830473788,22467.2,1.6356919815456600951237830473788
238,22658.8365405871172318106829395942616,22657.2,1.6365405871172318106829395942616
