Eigenstate,Energy,Kinetic Energy,Potential Energy
1,0.500000000793851648366097099972464407,0.0,0.500000000793851648366097099972464407
2,1.84623094283309095725694314708432355,1.2,0.64623094283309095725694314708432355
3,3.93633762492718974493549124182215912,3.2,0.73633762492718974493549124182215912
4,6.79966530952201877512882646653112404,6.0,0.79966530952201877512882646653112404
5,10.4480466302136831604377637835205436,9.6,0.8480466302136831604377637835205436
6,14.8870660818732925193873491663845937,14.0,0.8870660818732925193873491663845937
7,20.1197209459954882067947229719463318,19.2,0.9197209459954882067947229719463318
8,26.1477840089890259619862174750865820,25.2,0.9477840089890259619862174750865820
9,32.9723837698808456565142114867695106,32.0,0.9723837698808456565142114867695106
10,40.5942804828348141271713988183795186,39.6,0.9942804828348141271713988183795186
11,49.0140097180046232057351772938471797,48.0,1.0140097180046232057351772938471797
12,58.2319625707063026746354451062966813,57.2,1.0319625707063026746354451062966813
13,68.2484331710165649873078043324460693,67.2,1.0484331710165649873078043324460693
14,79.0636482166294010485755300861535690,78.0,1.0636482166294010485755300861535690
15,90.6777860886705280384436913132757561,89.6,1.0777860886705280384436913132757561
16,103.090989656568000689363003580835487,102.0,1.090989656568000689363003580835487
17,116.303375111513824834887678463471844,115.2,1.103375111513824834887678463471844
18,130.315038217470231209759192554905458,129.2,1.115038217470231209759192554905458
19,145.126058834273705363185444007270482,144.0,1.126058834273705363185444007270482
20,160.736504255268962069558232688957458,159.6,1.136504255268962069558232688957458
21,177.146431713390670936422128697314631,176.0,1.146431713390670936422128697314631
22,194.355890292322218487672750313854809,193.2,1.155890292322218487672750313854809
23,212.364922404432250292511768130586722,211.2,1.164922404432250292511768130586722
24,231.173564948175107464136213676624428,230.0,1.173564948175107464136213676624428
25,250.781850224886765174104240288216062,249.6,1.181850224886765174104240288216062
26,271.189806672592430947815247428851777,270.0,1.189806672592430947815247428851777
27,292.397459458969129919534290223518981,291.2,1.197459458969129919534290223518981
28,314.404830964704753289865073281970161,313.2,1.204830964704753289865073281970161
29,337.211941180700018319659396304137245,336.0,1.211941180700018319659396304137245
30,360.818808036910300563682173211595779,359.6,1.218808036910300563682173211595779
31,385.225447676478360503584053353564030,384.0,1.225447676478360503584053353564030
32,410.431874685731087123507500340700840,409.2,1.231874685731087123507500340700840
33,436.438102288303733144546340050650988,435.2,1.238102288303733144546340050650988
34,463.244142509904570351185141334664310,462.0,1.244142509904570351185141334664310
35,490.850006318893698364540092298935117,489.6,1.250006318893698364540092298935117
36,519.255703746816261329206472002458093,518.0,1.255703746816261329206472002458093
37,548.461243992226242424836894393545817,547.2,1.261243992226242424836894393545817
38,578.466635510506587364964537964963167,577.2,1.266635510506587364964537964963167
39,609.271886091893559391869807342041506,608.0,1.271886091893559391869807342041506
40,640.877002929517407489500920578689410,639.6,1.277002929517407489500920578689410
41,673.281992678954679260218948440662693,672.0,1.281992678954679260218948440662693
42,706.486861510532517307673299816164358,705.2,1.286861510532517307673299816164358
43,740.491615155418791621665678891967640,739.2,1.291615155418791621665678891967640
44,775.296258946363826444159400161369139,774.0,1.296258946363826444159400161369139
45,810.900797853821910525660969622103490,809.6,1.300797853821910525660969622103490
46,847.305236518067643397880949602150146,846.0,1.305236518067643397880949602150146
47,884.509579277828693675687041359009047,883.2,1.309579277828693675687041359009047
48,922.513830195878959036686154326113718,921.2,1.313830195878959036686154326113718
49,961.317993081971454982551721054802298,960.0,1.317993081971454982551721054802298
50,1000.92207151343613677232263139338186,999.6,1.32207151343613677232263139338186
51,1041.32606885372239195526340403112188,1040.0,1.32606885372239195526340403112188
52,1082.52998826912759571646779298845323,1081.2,1.32998826912759571646779298845323
53,1124.53383274392067112978235147453937,1123.2,1.33383274392067112978235147453937
54,1167.33760509404203528115591619322132,1166.0,1.33760509404203528115591619322132
55,1210.94130797953783673302335142835244,1209.6,1.34130797953783673302335142835244
56,1255.34494391586631523025388832474874,1254.0,1.34494391586631523025388832474874
57,1300.54851528419691558314800656812037,1299.2,1.34851528419691558314800656812037
58,1346.55202434080799047677190283240429,1345.2,1.35202434080799047677190283240429
59,1393.35547322567617300875362710307682,1392.0,1.35547322567617300875362710307682
60,1440.95886397033947525009823411286937,1439.6,1.35886397033947525009823411286937
61,1489.36219850510660489622070583944723,1488.0,1.36219850510660489622070583944723
62,1538.56547866567669107044623786008475,1537.2,1.36547866567669107044623786008475
63,1588.56870619922636845337870190576618,1587.2,1.36870619922636845337870190576618
64,1639.37188277001485643180788351361606,1638.0,1.37188277001485643180788351361606
65,1690.97500996455213512105392757611894,1689.6,1.37500996455213512105392757611894
66,1743.37808929637047277580166505922386,1742.0,1.37808929637047277580166505922386
67,1796.58112221043529681337743056107240,1795.2,1.38112221043529681337743056107240
68,1850.58411008722764451284439664273394,1849.2,1.38411008722764451284439664273394
69,1905.38705424652711678281298051402306,1904.0,1.38705424652711678281298051402306
70,1960.98995595092133012284655039627406,1959.6,1.38995595092133012284655039627406
71,2017.39281640906526319988586945330555,2016.0,1.39281640906526319988586945330555
72,2074.59563677871159621900190389469184,2073.2,1.39563677871159621900190389469184
73,2132.59841816953108826167857511624586,2131.2,1.39841816953108826167857511624586
74,2191.40116164574021891656247544793179,2190.0,1.40116164574021891656247544793179
75,2251.00386822855168942682888595665364,2249.6,1.40386822855168942682888595665364
76,2311.40653889846192902186934152682898,2310.0,1.40653889846192902186934152682898
77,2372.60917459738844970292567398651345,2371.2,1.40917459738844970292567398651345
78,2434.61177623066872695445101027073279,2433.2,1.41177623066872695445101027073279
79,2497.41434466893123703334386960410921,2496.0,1.41434466893123703334386960410921
80,2561.01688074984834336291753401019546,2559.6,1.41688074984834336291753401019546
81,2625.41938527977987521737610528491513,2624.0,1.41938527977987521737610528491513
82,2690.62185903531548043240046820888287,2689.2,1.42185903531548043240046820888287
83,2756.62430276472314514406473582688358,2755.2,1.42430276472314514406473582688358
84,2823.42671718931064926700789418577411,2822.0,1.42671718931064926700789418577411
85,2891.02910300470616714704392862184040,2889.6,1.42910300470616714704392862184040
86,2959.43146088206370695844881918390114,2958.0,1.43146088206370695844881918390114
87,3028.63379146919862494583453780665674,3027.2,1.43379146919862494583453780665674
88,3098.63609539165802723325740996971447,3097.2,1.43609539165802723325740996971447
89,3169.43837325373048842154233696273004,3168.0,1.43837325373048842154233696273004
90,3241.04062563939917297859377838549529,3239.6,1.44062563939917297859377838549529
91,3313.44285311324212397593801532058741,3312.0,1.44285311324212397593801532058741
92,3386.64505622128319542775979474315505,3385.2,1.44505622128319542775979474315505
93,3460.64723549179684223419675757392823,3459.2,1.44723549179684223419675757392823
94,3535.44939143606973880252026291286454,3534.0,1.44939143606973880252026291286454
95,3611.05152454912197626640250005052284,3609.6,1.45152454912197626640250005052284
96,3687.45363531039038640198080108960997,3686.0,1.45363531039038640198080108960997
97,3764.65572418437635599798838314957415,3763.2,1.45572418437635599798838314957415
98,3842.65779162126032256358260073694382,3841.2,1.45779162126032256358260073694382
99,3921.45983805748498878602927288670605,3920.0,1.45983805748498878602927288670605
100,4001.06186391630914681070418026341845,3999.6,1.46186391630914681070418026341845
101,4081.46386960833387411247052304982461,4080.0,1.46386960833387411247052304982461
102,4162.66585553200273715354763878611526,4161.2,1.46585553200273715354763878611526
103,4244.66782207407753111018468033480718,4243.2,1.46782207407753111018468033480718
104,4327.46976961009097668657859575455948,4326.0,1.46976961009097668657859575455948
105,4411.07169850477770196158051979161545,4409.6,1.47169850477770196158051979161545
106,4495.47360911248474645039686365750199,4494.0,1.47360911248474645039686365750199
107,4580.67550177756274648246808604638364,4579.2,1.47550177756274648246808604638364
108,4666.67737683473888175811288478510231,4665.2,1.47737683473888175811288478510231
109,4753.47923460947259435400819599390997,4752.0,1.47923460947259435400819599390997
110,4841.08107541829502902847872778806585,4839.6,1.48107541829502902847872778806585
111,4929.48289956913307781745691940268583,4928.0,1.48289956913307781745691940268583
112,5018.68470736161886247946365098324807,5017.2,1.48470736161886247946365098324807
113,5108.68649908738543281332211136211485,5107.2,1.48649908738543281332211136211485
114,5199.48827503034941011577817328210864,5198.0,1.48827503034941011577817328210864
115,5291.09003546698126459894336900576589,5289.6,1.49003546698126459894336900576589
116,5383.49178066656386725713844833210315,5382.0,1.49178066656386725713844833210315
117,5476.69351089143992496105312237760588,5475.2,1.49351089143992496105312237760588
118,5570.69522639724886652744859209918249,5569.2,1.49522639724886652744859209918249
119,5665.49692743315371380035927010575458,5664.0,1.49692743315371380035927010575458
120,5761.09861424205844593904615008682792,5759.6,1.49861424205844593904615008682792
121,5857.50028706081632684228043261047840,5856.0,1.50028706081632684228043261047840
122,5954.70194612042964672704244209480029,5953.2,1.50194612042964672704244209480029
123,6052.70359164624129668849779223764264,6051.2,1.50359164624129668849779223764264
124,6151.50522385811857739007115624011458,6150.0,1.50522385811857739007115624011458
125,6251.10684297062961346802816834473299,6249.6,1.50684297062961346802816834473299
126,6351.50844919321273003958967737011298,6350.0,1.50844919321273003958967737011298
127,6452.71004273033912712771372904009092,6451.2,1.51004273033912712771372904009092
128,6554.71162378166916523057164175002855,6553.2,1.51162378166916523057164175002855
129,6657.51319254220256319266815548311548,6656.0,1.51319254220256319266815548311548
130,6761.11474920242279115493653800389239,6759.6,1.51474920242279115493653800389239
131,6865.51629394843592595937173095486081,6864.0,1.51629394843592595937173095486081
132,6970.71782696210422140900621437469730,6969.2,1.51782696210422140900621437469730
133,7076.71934842117463400498053588994511,7075.2,1.51934842117463400498053588994511
134,7183.52085849940253350917532800283447,7182.0,1.52085849940253350917532800283447
135,7291.12235736667080957526861406595447,7289.6,1.52235736667080957526861406595447
136,7399.52384518910458200644354475348173,7398.0,1.52384518910458200644354475348173
137,7508.72532212918170889303119046454395,7507.2,1.52532212918170889303119046454395
138,7618.72678834583927327450054629400731,7617.2,1.52678834583927327450054629400731
139,7729.52824399457622686758288550897133,7728.0,1.52824399457622686758288550897133
140,7841.12968922755235395974170288586396,7839.6,1.52968922755235395974170288586396
141,7953.53112419368371401326754447918078,7952.0,1.53112419368371401326754447918078
142,8066.73254903873471345572080754116912,8065.2,1.53254903873471345572080754116912
143,8180.73396390540694848614340242571866,8179.2,1.53396390540694848614340242571866
144,8295.53536893342495355086448348450154,8294.0,1.53536893342495355086448348450154
145,8411.13676425961898595919003061291260,8409.6,1.53676425961898595919003061291260
146,8527.53815001800496924491934575833942,8526.0,1.53815001800496924491934575833942
147,8644.73952633986170968127333661653597,8643.2,1.53952633986170968127333661653597
148,8762.74089335380550140359548842218335,8761.2,1.54089335380550140359548842218335
149,8881.54225118586222207115208242300779,8880.0,1.54225118586222207115208242300779
150,9001.14359995953702284451548029466401,8999.6,1.54359995953702284451548029466401
151,9121.54493979588170873392609882863006,9120.0,1.54493979588170873392609882863006
152,9242.74627081355989976466013859114950,9241.2,1.54627081355989976466013859114950
153,9364.74759312891006206198976945602720,9363.2,1.54759312891006206198976945602720
154,9487.54890685600649291415953495128337,9486.0,1.54890685600649291415953495128337
155,9611.15021210671833821515008614085112,9609.6,1.55021210671833821515008614085112
156,9735.55150899076672032625867408044137,9734.0,1.55150899076672032625867408044137
157,9860.75279761578004758299660992381483,9859.2,1.55279761578004758299660992381483
158,9986.75407808734757745287154331886458,9985.2,1.55407808734757745287154331886458
159,10113.5553505090712972122684473478939,10112.0,1.5553505090712972122684473478939
160,10241.1566149826161886836758185279274,10239.6,1.5566149826161886836758185279274
161,10369.5578716077589357417741966123909,10368.0,1.5578716077589357417741966123909
162,10498.7591204824351342710348511749366,10497.2,1.5591204824351342710348511749366
163,10628.7603617027850596592187368069646,10627.2,1.5603617027850596592187368069646
164,10759.5615953631980467045477988117232,10758.0,1.5615953631980467045477988117232
165,10891.1628215563555307884562922217222,10889.6,1.5628215563555307884562922217222
166,11023.5640403732728010922609405075997,11022.0,1.5640403732728010922609405075997
167,11156.7652519033395133644637399679913,11155.2,1.5652519033395133644637399679913
168,11290.7664562343590052141597466291989,11289.2,1.5664562343590052141597466291989
169,11425.5676534525864592920266448638351,11424.0,1.5676534525864592920266448638351
170,11561.1688436427659544148750373777369,11559.6,1.5688436427659544148750373777369
171,11697.5700268881664451552000176561858,11696.0,1.5700268881664451552000176561858
172,11834.7712032706167081042910888047527,11833.2,1.5712032706167081042910888047527
173,11972.7723728705392905687292901574721,11971.2,1.5723728705392905687292901574721
174,12111.5735357669834979177877104444774,12110.0,1.5735357669834979177877104444774
175,12251.1746920376574539579530034985628,12249.6,1.5746920376574539579530034985628
176,12391.5758417589592644504580365841636,12390.0,1.5758417589592644504580365841636
177,12532.7769850060073174610751164475519,12531.2,1.5769850060073174610751164475519
178,12674.7781218526697501455142206254101,12673.2,1.5781218526697501455142206254101
179,12817.5792523715931088855939974366463,12816.0,1.5792523715931088855939974366463
180,12961.1803766342302342152758840558169,12959.6,1.5803766342302342152758840558169
181,13105.5814947108673937014828391621259,13104.0,1.5814947108673937014828391621259
182,13250.7826066706506910163880650420288,13249.2,1.5826066706506910163880650420288
183,13396.7837125816117748180623270143640,13395.2,1.5837125816117748180623270143640
184,13543.5848125106928722764279226761682,13542.0,1.5848125106928722764279226761682
185,13691.1859065237711696773485762695777,13689.6,1.5859065237711696773485762695777
186,13839.5869946856825617291662497508901,13838.0,1.5869946856825617291662497508901
187,13988.7880770602447940605834713496967,13987.2,1.5880770602447940605834713496967
188,14138.7891537102800150691559155044451,14137.2,1.5891537102800150691559155044451
189,14289.5902246976367616109862328510226,14288.0,1.5902246976367616109862328510226
190,14441.1912900832113949808093847408030,14439.6,1.5912900832113949808093847408030
191,14593.5923499269690072440337351377673,14592.0,1.5923499269690072440337351377673
192,14746.7934042879638151851589780155114,14745.2,1.5934042879638151851589780155114
193,14900.7944532243590611044773448119476,14899.2,1.5944532243590611044773448119476
194,15055.5954967934464347803303633826558,15054.0,1.5954967934464347803303633826558
195,15211.1965350516650355571484460925917,15209.6,1.5965350516650355571484460925917
196,15367.5975680546198893335179997956778,15366.0,1.5975680546198893335179997956778
197,15524.7985958571000359655986329209716,15523.2,1.5985958571000359655986329209716
198,15682.7996185130962024491437868183838,15681.2,1.5996185130962024491437868183838
199,15841.6006360758180759801869583946934,15840.0,1.6006360758180759801869583946934
200,16001.2016485977111921697456881219023,15999.6,1.6016485977111921697456881219023
201,16161.6026561304734507973742009525990,16160.0,1.6026561304734507973742009525990
202,16322.8036587250712739659067782845753,16321.2,1.6036587250712739659067782845753
203,16484.8046564317554188809823719017354,16483.2,1.6046564317554188809823719017354
204,16647.6056493000764585270815071578061,16646.0,1.6056493000764585270815071578061
205,16811.2066373788999419557386712940907,16809.6,1.6066373788999419557386712940907
206,16975.6076207164212490545722803912528,16974.0,1.6076207164212490545722803912528
207,17140.8085993601801476236569491419250,17139.2,1.6085993601801476236569491419250
208,17306.8095733570750690494502585818491,17305.2,1.6095733570750690494502585818491
209,17473.6105427533771105082386905486168,17472.0,1.6105427533771105082386905486168
210,17641.2115075947437775120921234466716,17639.6,1.6115075947437775120921234466716
211,17809.6124679262324766105849238478095,17808.0,1.6124679262324766105849238478095
212,17978.8134237923137710756768115406941,17977.2,1.6134237923137710756768115406941
213,18148.8143752368844067039419540145744,18147.2,1.6143752368844067039419540145744
214,18319.6153223032801256346710079930477,18318.0,1.6153223032801256346710079930477
215,18491.2162650342882704910205032622228,18489.6,1.6162650342882704910205032622228
216,18663.6172034721601960900408427054839,18662.0,1.6172034721601960900408427054839
217,18836.8181376586234961757332124688408,18835.2,1.6181376586234961757332124688408
218,19010.8190676348940578608546911243510,19009.2,1.6190676348940578608546911243510
219,19185.6199934416879509973093982629348,19184.0,1.6199934416879509973093982629348
220,19361.2209151192331691805409591444727,19359.6,1.6209151192331691805409591444727
221,19537.6218327072812247560237573491182,19536.0,1.6218327072812247560237573491182
222,19714.8227462451186197791170399225590,19713.2,1.6227462451186197791170399225590
223,19892.8236557715781915522427165746800,19891.2,1.6236557715781915522427165746800
224,20071.6245613250503531940595488771488,20070.0,1.6245613250503531940595488771488
225,20251.2254629434942375496120025782666,20249.6,1.6254629434942375496120025782666
226,20431.6263606644487541157909060173423,20430.0,1.6263606644487541157909060173423
227,20612.8272545250435741746532108305371,20611.2,1.6272545250435741746532108305371
228,20794.8281445620100529394066677242229,20793.2,1.6281445620100529394066677242229
229,20977.6290308116921033393740523160474,20976.0,1.6290308116921033393740523160474
230,21161.2299133100570341211913075539522,21159.6,1.6299133100570341211913075539522
231,21345.6307920927063626043628577302865,21344.0,1.6307920927063626043628577302865
232,21530.8316671948866216510962003796554,21529.2,1.6316671948866216510962003796554
233,21716.8325386515001656374855449559053,21715.2,1.6325386515001656374855449559053
234,21903.6334064971160020770876578708234,21902.0,1.6334064971160020770876578708234
235,22091.2342707659806533339100628042053,22089.6,1.6342707659806533339100628042053
236,22279.6351314920290702134496154889647,22278.0,1.6351314920290702134496154889647
237,22468.8359887088956140344984612514431,22467.2,1.6359887088956140344984612514431
238,22658.8368424499251228632681033638389,22657.2,1.6368424499251228632681033638389
