Eigenstate,Energy,Kinetic Energy,Potential Energy
1,0.500000000012992374956577397412722950,0.0,0.500000000012992374956577397412722950
2,1.84623093773592206957903459760579712,1.2,0.64623093773592206957903459760579712
3,3.93633760995409050351774702459017236,3.2,0.73633760995409050351774702459017236
4,6.79966527833311628609725735434101212,6.0,0.79966527833311628609725735434101212
5,10.4480465761844871263515020009813305,9.6,0.8480465761844871263515020009813305
6,14.8870659982610709214360851957679840,14.0,0.8870659982610709214360851957679840
7,20.1197208260001956547493291111243347,19.2,0.9197208260001956547493291111243347
8,26.1477838457783679013465900246226200,25.2,0.9477838457783679013465900246226200
9,32.9723835566016153852302780053905134,32.0,0.9723835566016153852302780053905134
10,40.5942802126183533872916500195799835,39.6,0.9942802126183533872916500195799835
11,49.0140093839695155420866080179796774,48.0,1.0140093839695155420866080179796774
12,58.2319621659596557514510023153201097,57.2,1.0319621659596557514510023153201097
13,68.2484326886545238043576479897534131,67.2,1.0484326886545238043576479897534131
14,79.0636476497372175944046224315516463,78.0,1.0636476497372175944046224315516463
15,90.6777854303223623875138981626663613,89.6,1.0777854303223623875138981626663613
16,103.090988899826552425643114110928824,102.0,1.090988899826552425643114110928824
17,116.303374249429853109997915476618837,115.2,1.103374249429853109997915476618837
18,130.315037243081999108174636164042237,129.2,1.115037243081999108174636164042237
19,145.126057740606371105310718237129792,144.0,1.126057740606371105310718237129792
20,160.736503035333931680998955757085375,159.6,1.136503035333931680998955757085375
21,177.146430360184922109452754072346668,176.0,1.146430360184922109452754072346668
22,194.355888798827602234008338604448354,193.2,1.155888798827602234008338604448354
23,212.364920763614774941622559889325542,211.2,1.164920763614774941622559889325542
24,231.173563152984208193575063430707952,230.0,1.173563152984208193575063430707952
25,250.781848268254561324496294701713309,249.6,1.181848268254561324496294701713309
26,271.189804547432972725546538444494309,270.0,1.189804547432972725546538444494309
27,292.397457158177635630405991501974028,291.2,1.197457158177635630405991501974028
28,314.404828481156837916327308979416178,313.2,1.204828481156837916327308979416178
29,337.211938507250914012862275768044486,336.0,1.211938507250914012862275768044486
30,360.818805166394069442878630598211353,359.6,1.218805166394069442878630598211353
31,385.225444601707100021328734034925751,384.0,1.225444601707100021328734034925751
32,410.431871399494128153175687174571772,409.2,1.231871399494128153175687174571772
33,436.438098783366830868247412539258809,435.2,1.238098783366830868247412539258809
34,463.244138779009087965008700929626268,462.0,1.244138779009087965008700929626268
35,490.850002354755783569834130079006801,489.6,1.250002354755783569834130079006801
36,519.255699542126015540047286623776318,518.0,1.255699542126015540047286623776318
37,548.461239539646882590660634932595139,547.2,1.261239539646882590660634932595139
38,578.466630802673600281757896974766005,577.2,1.266630802673600281757896974766005
39,609.271881121413848354061986208486189,608.0,1.271881121413848354061986208486189
40,640.876997688968431116782009516623403,639.6,1.276997688968431116782009516623403
41,673.281987160883582318189108185277556,672.0,1.281987160883582318189108185277556
42,706.486855707455253327928128035566214,705.2,1.286855707455253327928128035566214
43,740.491609059819237115206930200935402,739.2,1.291609059819237115206930200935402
44,775.296252550692886491543105154430490,774.0,1.296252550692886491543105154430490
45,810.900791150496615517785640445469339,809.6,1.300791150496615517785640445469339
46,847.305229499470236692564618816440194,846.0,1.305229499470236692564618816440194
47,884.509571936305709927014799918411436,883.2,1.309571936305709927014799918411436
48,922.513822523740292946391080292769316,921.2,1.313822523740292946391080292769316
49,961.317985071489420215314340298549542,960.0,1.317985071489420215314340298549542
50,1000.92206315684451476974717098348998,999.6,1.32206315684451476974717098348998
51,1041.32606014321547037633843614883750,1040.0,1.32606014321547037633843614883750
52,1082.52997919685919622548629856502020,1081.2,1.32997919685919622548629856502020
53,1124.53382330200316624593180102335963,1123.2,1.33382330200316624593180102335963
54,1167.33759527454535399724610767991972,1166.0,1.33759527454535399724610767991972
55,1210.94129777448845860406875718376371,1209.6,1.34129777448845860406875718376371
56,1255.34493331724625262583427615933146,1254.0,1.34493331724625262583427615933146
57,1300.54850428394268379060990802398637,1299.2,1.34850428394268379060990802398637
58,1346.55201293080956533538001312031860,1345.2,1.35201293080956533538001312031860
59,1393.35546139777593574784083413717712,1392.0,1.35546139777593574784083413717712
60,1440.95885171633114419706979868089671,1439.6,1.35885171633114419706979868089671
61,1489.36218581673415371293137638285752,1488.0,1.36218581673415371293137638285752
62,1538.56546553463325316897008843694498,1537.2,1.36546553463325316897008843694498
63,1588.56869261715312723452252042795331,1587.2,1.36869261715312723452252042795331
64,1639.37186872849992098185964858307848,1638.0,1.37186872849992098185964858307848
65,1690.97499545512940099419926893874841,1689.6,1.37499545512940099419926893874841
66,1743.37807431051846748137546222033410,1742.0,1.37807431051846748137546222033410
67,1796.58110673957600961862717793719755,1795.2,1.38110673957600961862717793719755
68,1850.58409412272534016316037439251120,1849.2,1.38409412272534016316037439251120
69,1905.38703777968713273241206984412100,1904.0,1.38703777968713273241206984412100
70,1960.98993897298885685968141513901088,1959.6,1.38993897298885685968141513901088
71,2017.39279891122410723906216434156747,2016.0,1.39279891122410723906216434156747
72,2074.59561875208292532923177350150078,2073.2,1.39561875208292532923177350150078
73,2132.59839960517215847924914022312864,2131.2,1.39839960517215847924914022312864
74,2191.40114253464308289096070672532977,2190.0,1.40114253464308289096070672532977
75,2251.00384856164188563151188994112488,2249.6,1.40384856164188563151188994112488
76,2311.40651866659715135270587710003105,2310.0,1.40651866659715135270587710003105
77,2372.60915379135719697553392659503677,2371.2,1.40915379135719697553392659503677
78,2434.61175484118893180002132918061369,2433.2,1.41175484118893180002132918061369
79,2497.41432268664887368054110385246924,2496.0,1.41432268664887368054110385246924
80,2561.01685816533601378110324612057684,2559.6,1.41685816533601378110324612057684
81,2625.41936208353537308365080787673250,2624.0,1.41936208353537308365080787673250
82,2690.62183521776033237184071700377347,2689.2,1.42183521776033237184071700377347
83,2756.62427831620112867899767918794706,2755.2,1.42427831620112867899767918794706
84,2823.42669210008628689721343403267458,2822.0,1.42669210008628689721343403267458
85,2891.02907726496319596839002436210336,2889.6,1.42907726496319596839002436210336
86,2959.43143448190352321263649999368609,2958.0,1.43143448190352321263649999368609
87,3028.63376439863870287862860837959299,3027.2,1.43376439863870287862860837959299
88,3098.63606764063031162280541464668715,3097.2,1.43606764063031162280541464668715
89,3169.43834481207976012211532286544453,3168.0,1.43834481207976012211532286544453
90,3241.04059649688138680829469850745748,3239.6,1.44059649688138680829469850745748
91,3313.44282325952271825961164919759403,3312.0,1.44282325952271825961164919759403
92,3386.64502564593537248846841158879596,3385.2,1.44502564593537248846841158879596
93,3460.64720418429981910820018017700630,3459.2,1.44720418429981910820018017700630
94,3535.44935938580696743367012867517268,3534.0,1.44935938580696743367012867517268
95,3611.05149174537933241623136658872430,3609.6,1.45149174537933241623136658872430
96,3687.45360174235432649151019875926116,3686.0,1.45360174235432649151019875926116
97,3764.65568984113204107635539402183397,3763.2,1.45568984113204107635539402183397
98,3842.65775649178970857700355628821033,3841.2,1.45775649178970857700355628821033
99,3921.45980213066488229832148504032982,3920.0,1.45980213066488229832148504032982
100,4001.06182718090922530357043590501089,3999.6,1.46182718090922530357043590501089
101,4081.46383205301466996998264307435949,4080.0,1.46383205301466996998264307435949
102,4162.66581714531358441071944717093654,4161.2,1.46581714531358441071944717093654
103,4244.66778284445447402016748742422279,4243.2,1.46778284445447402016748742422279
104,4327.46972952585463913481895131083704,4326.0,1.46972952585463913481895131083704
105,4411.07165755413111672822508447970030,4409.6,1.47165755413111672822508447970030
106,4495.47356728351114329426835725640155,4494.0,1.47356728351114329426835725640155
107,4580.67545905822329799104332848678249,4579.2,1.47545905822329799104332848678249
108,4666.67733321287040587808184931988132,4665.2,1.47733321287040587808184931988132
109,4753.47919007278521248612407501052767,4752.0,1.47919007278521248612407501052767
110,4841.08102995436977853851172858070266,4839.6,1.48102995436977853851172858070266
111,4929.48285316541947778208150129611419,4928.0,1.48285316541947778208150129611419
112,5018.68466000543243145180302710484450,5017.2,1.48466000543243145180302710484450
113,5108.68645076590515735761179407297375,5107.2,1.48645076590515735761179407297375
114,5199.48822573061516282413100106568602,5198.0,1.48822573061516282413100106568602
115,5291.08998517589117026547380263227615,5289.6,1.48998517589117026547380263227615
116,5383.49172937087161584566917614293036,5382.0,1.49172937087161584566917614293036
117,5476.69345857775202996224787229548915,5475.2,1.49345857775202996224787229548915
118,5570.69517305202186725941932927040932,5569.2,1.49517305202186725941932927040932
119,5665.49687304269132016355416403504570,5664.0,1.49687304269132016355416403504570
120,5761.09855879250862409145183184369081,5759.6,1.49855879250862409145183184369081
121,5857.50023053816832421462885820449917,5856.0,1.50023053816832421462885820449917
122,5954.70188851051095474973023188942015,5953.2,1.50188851051095474973023188942015
123,6052.70353293471454955223456256409170,6051.2,1.50353293471454955223456256409170
124,6151.50516403047838511081494492743120,6150.0,1.50516403047838511081494492743120
125,6251.10678201219932747345436011289843,6249.6,1.50678201219932747345436011289843
126,6351.50838708914113943911688479909582,6350.0,1.50838708914113943911688479909582
127,6452.70997946559708377088958372981706,6451.2,1.50997946559708377088958372981706
128,6554.71155934104613559932007777640191,6553.2,1.51155934104613559932007777640191
129,6657.51312691030310511143665737437630,6656.0,1.51312691030310511143665737437630
130,6761.11468236366295323907056527050863,6759.6,1.51468236366295323907056527050863
131,6865.51622588703956765598197412779644,6864.0,1.51622588703956765598197412779644
132,6970.71775766209925141609037356875105,6969.2,1.51775766209925141609037356875105
133,7076.71927786638916478352622352247852,7075.2,1.51927786638916478352622352247852
134,7183.52078667346094952926169793243123,7182.0,1.52078667346094952926169793243123
135,7291.12228425298974686073600505545659,7289.6,1.52228425298974686073600505545659
136,7399.52377077088881646336038334136440,7398.0,1.52377077088881646336038334136440
137,7508.72524638941995082484418380819139,7507.2,1.52524638941995082484418380819139
138,7618.72671126729986540129297750288335,7617.2,1.52671126729986540129297750288335
139,7729.52816555980274307812393261338862,7728.0,1.52816555980274307812393261338862
140,7841.12960941885909593287544710446796,7839.6,1.52960941885909593287544710446796
141,7953.53104299315110274949811991192524,7952.0,1.53104299315110274949811991192524
142,8066.73246642820457266044695106514736,8065.2,1.53246642820457266044695106514736
143,8180.73387986647767664272550625283867,8179.2,1.53387986647767664272550625283867
144,8295.53528344744658141439565780158453,8294.0,1.53528344744658141439565780158453
145,8411.13667730768811609030756080899878,8409.6,1.53667730768811609030756080899878
146,8527.53806158095959408705346265364947,8526.0,1.53806158095959408705346265364947
147,8644.73943639827590456418301679266039,8643.2,1.53943639827590456418301679266039
148,8762.74080188798398873068444653018971,8761.2,1.54080188798398873068444653018971
149,8881.54215817583480281766152553232732,8880.0,1.54215817583480281766152553232732
150,9001.14350538505287135805930279214603,8999.6,1.54350538505287135805930279214603
151,9121.54484363640352668766753348586572,9120.0,1.54484363640352668766753348586572
152,9242.74617304825792496654629634196466,9241.2,1.54617304825792496654629634196466
153,9364.74749373665592767054150056735942,9363.2,1.54749373665592767054150056735942
154,9487.54880581536693245210608741645578,9486.0,1.54880581536693245210608741645578
155,9611.15010939594873160639280254315693,9609.6,1.55010939594873160639280254315693
156,9735.55140458780447600895449819900525,9734.0,1.55140458780447600895449819900525
157,9860.75269149823781557162782727667775,9859.2,1.55269149823781557162782727667775
158,9986.75397023250628803467368021195351,9985.2,1.55397023250628803467368021195351
159,10113.5552408938730197679797776968955,10112.0,1.5552408938730197679797776968955
160,10241.1565035836568049188350796398797,10239.6,1.5565035836568049188350796398797
161,10369.5577584012806214023669098930135,10368.0,1.5577584012806214023669098930135
162,10498.7590054443186431957120955147586,10497.2,1.5590054443186431957120955147586
163,10628.7602448085418037891914504402681,10627.2,1.5602448085418037891914504402681
164,10759.5614765879619654310524483505139,10758.0,1.5614765879619654310524483505139
165,10891.1627008748747427659676117154635,10889.6,1.5627008748747427659676117154635
166,11023.5639177599010313828473816652485,11022.0,1.5639177599010313828473816652485
167,11156.7651273320272885042567397424247,11155.2,1.5651273320272885042567397424247
168,11290.7663296786446085063189523709812,11289.2,1.5663296786446085063189523709812
169,11425.5675248855866383311670241523197,11424.0,1.5675248855866383311670241523197
170,11561.1687130371663725350283227406403,11559.6,1.5687130371663725350283227406403
171,11697.5698942162118681663730960338756,11696.0,1.5698942162118681663730960338756
172,11834.7710685041009173407546059718708,11833.2,1.5710685041009173407546059718708
173,11972.7722359807947129146414760909915,11971.2,1.5722359807947129146414760909915
174,12111.5733967248705431017260468971821,12110.0,1.5733967248705431017260468971821
175,12251.1745508135535490166115447838778,12249.6,1.5745508135535490166115447838778
176,12391.5756983227475748522006223869332,12390.0,1.5756983227475748522006223869332
177,12532.7768393270651439512925198693696,12531.2,1.5768393270651439512925198693696
178,12674.7779738998565899267547425849903,12673.2,1.5779738998565899267547425849903
179,12817.5791021132383692751847559454918,12816.0,1.5791021132383692751847559454918
180,12961.1802240381205864304302868436507,12959.6,1.5802240381205864304302868436507
181,13105.5813397442337539055239940414271,13104.0,1.5813397442337539055239940414271
182,13250.7824493001548152183875098204668,13249.2,1.5824493001548152183875098204668
183,13396.7835527733324536505482982545503,13395.2,1.5835527733324536505482982545503
184,13543.5846502301117110803748744028904,13542.0,1.5846502301117110803748744028904
185,13691.1857417357579386989230855637815,13689.6,1.5857417357579386989230855637815
186,13839.5868273544801005769821791948894,13838.0,1.5868273544801005769821791948894
187,13988.7879071494534538837871978762049,13987.2,1.5879071494534538837871978762049
188,14138.7889811828416211936812579409945,14137.2,1.5889811828416211936812579409945
189,14289.5900495158180786117843255611193,14288.0,1.5900495158180786117843255611193
190,14441.1911122085870753697120292799002,14439.6,1.5911122085870753697120292799002
191,14593.5921693204040041138617810049045,14592.0,1.5921693204040041138617810049045
192,14746.7932209095952382684339320971298,14745.2,1.5932209095952382684339320971298
193,14900.7942670335774547770001282904739,14899.2,1.5942670335774547770001282904739
194,15055.5953077488764555633649497222074,15054.0,1.5953077488764555633649497222074
195,15211.1963431111455056440426051537108,15209.6,1.5963431111455056440426051537108
196,15367.5973731751832015842109447635225,15366.0,1.5973731751832015842109447635225
197,15524.7983979949508846724256869998155,15523.2,1.5983979949508846724256869998155
198,15682.7994176235896129760356633543522,15681.2,1.5994176235896129760356633543522
199,15841.6004321134367051111141081359770,15840.0,1.6004321134367051111141081359770
200,16001.2014415160418696670666694631040,15999.6,1.6014415160418696670666694631040
201,16161.6024458821829312622945233431046,16160.0,1.6024458821829312622945233431046
202,16322.8034452618811666070234574839591,16321.2,1.6034452618811666070234574839591
203,16484.8044397044162612279806323440727,16483.2,1.6044397044162612279806323440727
204,16647.6054292583408984697800607999791,16646.0,1.6054292583408984697800607999791
205,16811.2064139714949907383284583663060,16809.6,1.6064139714949907383284583663060
206,16975.6073938910195660049479160981548,16974.0,1.6073938910195660049479160981548
207,17140.8083690633703154418404954794301,17139.2,1.6083690633703154418404954794301
208,17306.8093395343308164102989345293923,17305.2,1.6093395343308164102989345293923
209,17473.6103053490254365444906085560740,17472.0,1.6103053490254365444906085560740
210,17641.2112665519319304264133508101938,17639.6,1.6112665519319304264133508101938
211,17809.6122231868937362109790992195078,17808.0,1.6122231868937362109790992195078
212,17978.8131752971319824283470380456648,17977.2,1.6131752971319824283470380456648
213,18148.8141229252572093413936338814314,18147.2,1.6141229252572093413936338814314
214,18319.6150661132808198340027381214413,18318.0,1.6150661132808198340027381214413
215,18491.2160049026262590363999167068404,18489.6,1.6160049026262590363999167068404
216,18663.6169393341399366419810244764487,18662.0,1.6169393341399366419810244764487
217,18836.8178694481018958746700103383917,18835.2,1.6178694481018958746700103383917
218,19010.8187952842362380792483230149229,19009.2,1.6187952842362380792483230149229
219,19185.6197168817213062075843051760200,19184.0,1.6197168817213062075843051760200
220,19361.2206342791996397088826669072248,19359.6,1.6206342791996397088826669072248
221,19537.6215475147876987262360676172773,19536.0,1.6215475147876987262360676172773
222,19714.8224566260853747968363976849537,19713.2,1.6224566260853747968363976849537
223,19892.8233616501852816166689092143692,19891.2,1.6233616501852816166689092143692
224,20071.6242626236818409289792643721532,20070.0,1.6242626236818409289792643721532
225,20251.2251595826801660930477710528097,20249.6,1.6251595826801660930477710528097
226,20431.6260525628047468712033676513746,20430.0,1.6260525628047468712033676513746
227,20612.8269415992079440769153613690293,20611.2,1.6269415992079440769153613690293
228,20794.8278267265782958941537836268583,20793.2,1.6278267265782958941537836268583
229,20977.6287079791486430201531557713514,20976.0,1.6287079791486430201531557713514
230,21161.2295853907040773178074792634728,21159.6,1.6295853907040773178074792634728
231,21345.6304589945897157669503313143967,21344.0,1.6304589945897157669503313143967
232,21530.8313288237183101234240999270243,21529.2,1.6313288237183101234240999270243
233,21716.8321949105776872714259394809545,21715.2,1.6321949105776872714259394809545
234,21903.6330572872380364151793252798442,21902.0,1.6330572872380364151793252798442
235,22091.2339159853590362810140716829751,22089.6,1.6339159853590362810140716829751
236,22279.6347710361968320286057263341041,22278.0,1.6347710361968320286057263341041
237,22468.8356224706108654914836653417199,22467.2,1.6356224706108654914836653417199
238,22658.8364703190705604778010277358232,22657.2,1.6364703190705604778010277358232
