Eigenstate,Energy,Kinetic Energy,Potential Energy
1,0.500000000227228540317256499442514431,0.0,0.500000000227228540317256499442514431
2,1.84623093913435584211205569618814262,1.2,0.64623093913435584211205569618814262
3,3.93633761406193037728694795171535001,3.2,0.73633761406193037728694795171535001
4,6.79966528688943038385630074434275641,6.0,0.79966528688943038385630074434275641
5,10.4480465910061111153149125973694925,9.6,0.8480465910061111153149125973694925
6,14.8870660211968509532220678804379996,14.0,0.8870660211968509532220678804379996
7,20.1197208589141615565311673632592661,19.2,0.9197208589141615565311673632592661
8,26.1477838905427457753795943763872462,25.2,0.9477838905427457753795943763872462
9,32.9723836150936061058684941079732402,32.0,0.9723836150936061058684941079732402
10,40.5942802867185230355764610706678464,39.6,0.9942802867185230355764610706678464
11,49.0140094755609447106935110925588915,48.0,1.0140094755609447106935110925588915
12,58.2319622769274756024905707853280202,57.2,1.0319622769274756024905707853280202
13,68.2484328208856627214819012112705326,67.2,1.0484328208856627214819012112705326
14,79.0636478051202690775411639955588372,78.0,1.0636478051202690775411639955588372
15,90.6777856107475261369538618674827670,89.6,1.0777856107475261369538618674827670
16,103.090989107185621446735337216906729,102.0,1.090989107185621446735337216906729
17,116.303374485616230800967812397454495,115.2,1.103374485616230800967812397454495
18,130.315037509990736503269111579619206,129.2,1.115037509990736503269111579619206
19,145.126058040134218050473932618095772,144.0,1.126058040134218050473932618095772
20,160.736503369379397886899365189185812,159.6,1.136503369379397886899365189185812
21,177.146430730648345371194232735319434,176.0,1.146430730648345371194232735319434
22,194.355889207611221964270665850311341,193.2,1.155889207611221964270665850311341
23,212.364921212622809724524099906626779,211.2,1.164921212622809724524099906626779
24,231.173563644122936441321731905725589,230.0,1.173563644122936441321731905725589
25,250.781848803432404374582326998949424,249.6,1.181848803432404374582326998949424
26,271.189805128560579893983599539297992,270.0,1.189805128560579893983599539297992
27,292.397457787167970862065187190676191,291.2,1.197457787167970862065187190676191
28,314.404829159925267763642484069474881,313.2,1.204829159925267763642484069474881
29,337.211939237715296739791485659541411,336.0,1.211939237715296739791485659541411
30,360.818805950474845099451669344318537,359.6,1.218805950474845099451669344318537
31,385.225445441327381370275686877086895,384.0,1.225445441327381370275686877086895
32,410.431872296579792357447710717835560,409.2,1.231872296579792357447710717835560
33,436.438099739846611869091981586321385,435.2,1.238099739846611869091981586321385
34,463.244139796814669496336047753492364,462.0,1.244139796814669496336047753492364
35,490.850003435821892767120024872552365,489.6,1.250003435821892767120024872552365
36,519.255700688390517111836675014795063,518.0,1.255700688390517111836675014795063
37,548.461240753050873528510503503442713,547.2,1.261240753050873528510503503442713
38,578.466632085161505090660667998181387,577.2,1.266632085161505090660667998181387
39,609.271882474933514790378963913802732,608.0,1.271882474933514790378963913802732
40,640.876999115471226424757221802367161,639.6,1.276999115471226424757221802367161
41,673.281988662324489959410646549812448,672.0,1.281988662324489959410646549812448
42,706.486857285792970200813110934204324,705.2,1.286857285792970200813110934204324
43,740.491610717016271263827498082535784,739.2,1.291610717016271263827498082535784
44,775.296254288715655304977469903921330,774.0,1.296254288715655304977469903921330
45,810.900792971315544422744123544790549,809.6,1.300792971315544422744123544790549
46,847.305231405059858343362855756969855,846.0,1.305231405059858343362855756969855
47,884.509573928644763898090261310285472,883.2,1.309573928644763898090261310285472
48,922.513824604811825933521947161062011,921.2,1.313824604811825933521947161062011
49,961.317987243280886752529745827242346,960.0,1.317987243280886752529745827242346
50,1000.92206542134787846963875055624461,999.6,1.32206542134787846963875055624461
51,1041.32606250242730570211455512687029,1040.0,1.32606250242730570211455512687029
52,1082.52998165278079080366657379102367,1081.2,1.32998165278079080366657379102367
53,1124.53382585664062372907394726373681,1123.2,1.33382585664062372907394726373681
54,1167.33759792990969748654034047115486,1166.0,1.33759792990969748654034047115486
55,1210.94130053259573464203468181571723,1209.6,1.34130053259573464203468181571723
56,1255.34493618011763576971924555948103,1254.0,1.34493618011763576971924555948103
57,1300.54850725360458177742133314924355,1299.2,1.34850725360458177742133314924355
58,1346.55201600929372484979369415184650,1345.2,1.35201600929372484979369415184650
59,1393.35546458711954880451398375462949,1392.0,1.35546458711954880451398375462949
60,1440.95885501857695514915823572903445,1439.6,1.35885501857695514915823572903445
61,1489.36218923393056689886553340232533,1488.0,1.36218923393056689886553340232533
62,1538.56546906883444120978810735397597,1537.2,1.36546906883444120978810735397597
63,1588.56869627041913999429167662446111,1587.2,1.36869627041913999429167662446111
64,1639.37187250289679520394216390456808,1638.0,1.37187250289679520394216390456808
65,1690.97499935272927062633757630508886,1689.6,1.37499935272927062633757630508886
66,1743.37807833339967470278417602083838,1742.0,1.37807833339967470278417602083838
67,1796.58111088982321658248825287349771,1795.2,1.38111088982321658248825287349771
68,1850.58409840242964146812261759916519,1849.2,1.38409840242964146812261759916519
69,1905.38704219094616863690084041974849,1904.0,1.38704219094616863690084041974849
70,1960.98994351790692725302359228698116,1959.6,1.38994351790692725302359228698116
71,2017.39280359191228638363427203728252,2016.0,1.39280359191228638363427203728252
72,2074.59562357065917738803723075977569,2073.2,1.39562357065917738803723075977569
73,2132.59840456376145384353263863978959,2131.2,1.39840456376145384353263863978959
74,2191.40114763537751532266738581608709,2190.0,1.40114763537751532266738581608709
75,2251.00385380666079023560191186837257,2249.6,1.40385380666079023560191186837257
76,2311.40652405804722339453707605171220,2310.0,1.40652405804722339453707605171220
77,2372.60915933139261155873132623338534,2371.2,1.40915933139261155873132623338534
78,2434.61176053197146442045890441242137,2433.2,1.41176053197146442045890441242137
79,2497.41432853034802167227062147933237,2496.0,1.41432853034802167227062147933237
80,2561.01686416412911867027645773192666,2559.6,1.41686416412911867027645773192666
81,2625.41936823960774386669662791256230,2624.0,1.41936823960774386669662791256230
82,2690.62184153330536973437606717864261,2689.2,1.42184153330536973437606717864261
83,2756.62428479342045017217172098714778,2755.2,1.42428479342045017217172098714778
84,2823.42669874118985308840920779960027,2822.0,1.42669874118985308840920779960027
85,2891.02908407216943758343513558650094,2889.6,1.42908407216943758343513558650094
86,2959.43144145743946928690579931265233,2958.0,1.43144145743946928690579931265233
87,3028.63377154474010993465781555204832,3027.2,1.43377154474010993465781555204832
88,3098.63607495954179389227350369091699,3097.2,1.43607495954179389227350369091699
89,3169.43835230605492083029727760685941,3168.0,1.43835230605492083029727760685941
90,3241.04060416818295053933401985822913,3239.6,1.44060416818295053933401985822913
91,3313.44283111042266442121506256338925,3312.0,1.44283111042266442121506256338925
92,3386.64503367871506989488145102379814,3385.2,1.44503367871506989488145102379814
93,3460.64721240125016170058478210412699,3459.2,1.44721240125016170058478210412699
94,3535.44936778922851115727187526987996,3534.0,1.44936778922851115727187526987996
95,3611.05150033758243327399563395576184,3609.6,1.45150033758243327399563395576184
96,3687.45361052565927979408334265686041,3686.0,1.45361052565927979408334265686041
97,3764.65569881786922190868998873685755,3763.2,1.45569881786922190868998873685755
98,3842.65776566429971350207290416219607,3841.2,1.45776566429971350207290416219607
99,3921.45981150129867231874359878895499,3920.0,1.45981150129867231874359878895499
100,4001.06183675202827010223866943736379,3999.6,1.46183675202827010223866943736379
101,4081.46384182699109345110647753133987,4080.0,1.46384182699109345110647753133987
102,4162.66582712453031156298857562632894,4161.2,1.46582712453031156298857562632894
103,4244.66779303130537912406891323643495,4243.2,1.46779303130537912406891323643495
104,4327.46973992274469533646107027822858,4326.0,1.46973992274469533646107027822858
105,4411.07166816347654700235067523041913,4409.6,1.47166816347654700235067523041913
106,4495.47357810773957281947482091547958,4494.0,1.47357810773957281947482091547958
107,4580.67547009977390796057124931726325,4579.2,1.47547009977390796057124931726325
108,4666.67734447419408876988177250851231,4665.2,1.47734447419408876988177250851231
109,4753.47920155634472881626834726198768,4752.0,1.47920155634472881626834726198768
110,4841.08104166263991512238078474043159,4839.6,1.48104166263991512238078474043159
111,4929.48286510088720752812536378460072,4928.0,1.48286510088720752812536378460072
112,5018.68467217059707471305685708536128,5017.2,1.48467217059707471305685708536128
113,5108.68646316327854486652927075987610,5107.2,1.48646316327854486652927075987610
114,5199.48823836272180023669349000723097,5198.0,1.48823836272180023669349000723097
115,5291.08999804526840434093429212484605,5289.6,1.48999804526840434093429212484605
116,5383.49174248006980228869965599196848,5382.0,1.49174248006980228869965599196848
117,5476.69347192933470295467559992239788,5475.2,1.49347192933470295467559992239788
118,5570.69518664856591070916506962064585,5569.2,1.49518664856591070916506962064585
119,5665.49688688678714069881877140415064,5664.0,1.49688688678714069881877140415064
120,5761.09857288676032582864211881152516,5759.6,1.49857288676032582864211881152516
121,5857.50024488519388532896572821283303,5856.0,1.50024488519388532896572821283303
122,5954.70190311294240587794420808302937,5953.2,1.50190311294240587794420808302937
123,6052.70354779519815405722478074071809,6051.2,1.50354779519815405722478074071809
124,6151.50517915167482123862826805508851,6150.0,1.50517915167482123862826805508851
125,6251.10679739678387243343256280716698,6249.6,1.50679739678387243343256280716698
126,6351.50840273980385543856006904798004,6350.0,1.50840273980385543856006904798004
127,6452.70999538504300603609457449845622,6451.2,1.50999538504300603609457449845622
128,6554.71157553199546241537484652789791,6553.2,1.51157553199546241537484652789791
129,6657.51314337549138991368328569072786,6656.0,1.51314337549138991368328569072786
130,6761.11469910584129878969211656801520,6759.6,1.51469910584129878969211656801520
131,6865.51624290897482233972343303481975,6864.0,1.51624290897482233972343303481975
132,6970.71777496657420768969015520776968,6969.2,1.51777496657420768969015520776968
133,7076.71929545620275981401018705560924,7075.2,1.51929545620275981401018705560924
134,7183.52080455142846805684297581232570,7182.0,1.52080455142846805684297581232570
135,7291.12230242194302632266495448451694,7289.6,1.52230242194302632266495448451694
136,7399.52378923367645441568218879133849,7398.0,1.52378923367645441568218879133849
137,7508.72526514890751469965057538667689,7507.2,1.52526514890751469965057538667689
138,7618.72673032637010463769239852193433,7617.2,1.52673032637010463769239852193433
139,7729.52818492135580366580911767337473,7728.0,1.52818492135580366580911767337473
140,7841.12962908581273740783519357210049,7839.6,1.52962908581273740783519357210049
141,7953.53106296844091768209866020832177,7952.0,1.53106296844091768209866020832177
142,8066.73248671478420867680628709361700,8065.2,1.53248671478420867680628709361700
143,8180.73390046731906102101302470920806,8179.2,1.53390046731906102101302470920806
144,8295.53530436554014829841484702993084,8294.0,1.53530436554014829841484702993084
145,8411.13669854604303636345873033334799,8409.6,1.53669854604303636345873033334799
146,8527.53808314260400795053187325519561,8526.0,1.53808314260400795053187325519561
147,8644.73945828625715686403804055423142,8643.2,1.53945828625715686403804055423142
148,8762.74082410536886707915423274032725,8761.2,1.54082410536886707915423274032725
149,8881.54218072570977855500447824781651,8880.0,1.54218072570977855500447824781651
150,9001.14352827052434340192381109553146,8999.6,1.54352827052434340192381109553146
151,9121.54486686059806831788460757631787,9120.0,1.54486686059806831788460757631787
152,9242.74619661432253359408553668907249,9241.2,1.54619661432253359408553668907249
153,9364.74751764775827764024937976766747,9363.2,1.54751764775827764024937976766747
154,9487.54883007469563092973955462967193,9486.0,1.54883007469563092973955462967193
155,9611.15013400671357760137771367560113,9609.6,1.55013400671357760137771367560113
156,9735.55142955323672258523254193594629,9734.0,1.55142955323672258523254193594629
157,9860.75271682159043529991038386687924,9859.2,1.55271682159043529991038386687924
158,9986.75399591705424174039836415473666,9985.2,1.55399591705424174039836415473666
159,10113.5552669429135286302598700408101,10112.0,1.5552669429135286302598700408101
160,10241.1565300005096259767143472090747,10239.6,1.5565300005096259767143472090747
161,10369.5577851892883265257313753711087,10368.0,1.5577851892883265257313753711087
162,10498.7590326068469015792752575295750,10497.2,1.5590326068469015792752575295750
163,10628.7602723489796680290563964599336,10627.2,1.5602723489796680290563964599336
164,10759.5615045097221612444666523098288,10758.0,1.5615045097221612444666523098288
165,10891.1627291813939624160229156819253,10889.6,1.5627291813939624160229156819253
166,11023.5639464546402308710373284176186,11022.0,1.5639464546402308710373284176186
167,11156.7651564184719885949913276127422,11155.2,1.5651564184719885949913276127422
168,11290.7663591603051996487119296459420,11289.2,1.5663591603051996487119296459420
169,11425.5675547659986895446489232504965,11424.0,1.5675547659986895446489232504965
170,11561.1687433198909443266099952260093,11559.6,1.5687433198909443266099952260093
171,11697.5699249048358295486788620383293,11696.0,1.5699249048358295486788620383293
172,11834.7710996022372670212723177297045,11833.2,1.5710996022372670212723177297045
173,11972.7722674920829047279910230412791,11971.2,1.5722674920829047279910230412791
174,12111.5734286529768157581373964252791,12110.0,1.5734286529768157581373964252791
175,12251.1745831621712602412187987248193,12249.6,1.5745831621712602412187987248193
176,12391.5757310955975399912117147564544,12390.0,1.5757310955975399912117147564544
177,12532.7768725278959791225758463720331,12531.2,1.5768725278959791225758463720331
178,12674.7780075324450597939026189744937,12673.2,1.5780075324450597939026189744937
179,12817.5791361813897395256658503093958,12816.0,1.5791361813897395256658503093958
180,12961.1802585456689810400317124957500,12959.6,1.5802585456689810400317124957500
181,13105.5813746950425172729077108070820,13104.0,1.5813746950425172729077108070820
182,13250.7824846981168792552479305331841,13249.2,1.5824846981168792552479305331841
183,13396.7835886223707099145596629705106,13395.2,1.5835886223707099145596629705106
184,13543.5846865341793880398565366405805,13542.0,1.5846865341793880398565366405805
185,13691.1857784988389842199330308087031,13689.6,1.5857784988389842199330308087031
186,13839.5868645805895697253688786070727,13838.0,1.5868645805895697253688786070727
187,13988.7879448426379021365986915594973,13987.2,1.5879448426379021365986915594973
188,14138.7890193471795031562366579146736,14137.2,1.5890193471795031562366579146736
189,14289.5900881554201523386692630608033,14288.0,1.5900881554201523386692630608033
190,14441.1911513275968123899579312488452,14439.6,1.5911513275968123899579312488452
191,14593.5922089229980052626183880144500,14592.0,1.5922089229980052626183880144500
192,14746.7932609999836554295396600897945,14745.2,1.5932609999836554295396600897945
193,14900.7943076160044186430023154798668,14899.2,1.5943076160044186430023154798668
194,15055.5953488276205095217389400958725,15054.0,1.5953488276205095217389400958725
195,15211.1963846905200459006102796896267,15209.6,1.5963846905200459006102796896267
196,15367.5974152595369236370622508746101,15366.0,1.5974152595369236370622508746101
197,15524.7984405886682362520095718876665,15523.2,1.5984405886682362520095718876665
198,15682.7994607310912535695013581794607,15681.2,1.5994607310912535695013581794607
199,15841.6004757391799721914623544012827,15840.0,1.6004757391799721914623544012827
200,16001.2014856645212517502055822079423,15999.6,1.6014856645212517502055822079423
201,16161.6024905579305479176920235114601,16160.0,1.6024905579305479176920235114601
202,16322.8034904694672555503140563502297,16321.2,1.6034904694672555503140563502297
203,16484.8044854484496726266063828021761,16483.2,1.6044854484496726266063828021761
204,16647.6054755434695965955454668035758,16646.0,1.6054755434695965955454668035758
205,16811.2064608024065631036075090814039,16809.6,1.6064608024065631036075090814039
206,16975.6074412724417401222210592431040,16974.0,1.6074412724417401222210592431040
207,17140.8084170000714833492440194429322,17139.2,1.6084170000714833492440194429322
208,17306.8093880311205671089521941115233,17305.2,1.6093880311205671089521941115233
209,17473.6103544107550964965281178572445,17472.0,1.6103544107550964965281178572445
210,17641.2113161834951122658865502188467,17639.6,1.6113161834951122658865502188467
211,17809.6122733932268958231131061264226,17808.0,1.6122733932268958231131061264226
212,17978.8132260832149845560429325327419,17977.2,1.6132260832149845560429325327419
213,18148.8141742961139018813596957596533,18147.2,1.6141742961139018813596957596533
214,18319.6151180739796169884739413570339,18318.0,1.6151180739796169884739413570339
215,18491.2160574582807334900794281017854,18489.6,1.6160574582807334900794281017854
216,18663.6169924899094209376012323752929,18662.0,1.6169924899094209376012323752929
217,18836.8179232091920931644323746145888,18835.2,1.6179232091920931644323746145888
218,19010.8188496558998424333615390898636,19009.2,1.6188496558998424333615390898636
219,19185.6197718692586326651867621370074,19184.0,1.6197718692586326651867621370074
220,19361.2206898879592642608004107207060,19359.6,1.6206898879592642608004107207060
221,19537.6216037501671084233071476703729,19536.0,1.6216037501671084233071476703729
222,19714.8225134935316281819211329915035,19713.2,1.6225134935316281819211329915035
223,19892.8234191551956796829684338793849,19891.2,1.6234191551956796829684338793849
224,20071.6243207718046088119072624073549,20070.0,1.6243207718046088119072624073549
225,20251.2252183795151457076464659072503,20249.6,1.6252183795151457076464659072503
226,20431.6261120140041007119605894878646,20430.0,1.6261120140041007119605894878646
227,20612.8270017104768704018404662208120,20611.2,1.6270017104768704018404662208120
228,20794.8278875036757555201022651438449,20793.2,1.6278875036757555201022651438449
229,20977.6287694278880979616576709363441,20976.0,1.6287694278880979616576709363441
230,21161.2296475169542415070831659282134,21159.6,1.6296475169542415070831659282134
231,21345.6305218042753180982981318819002,21344.0,1.6305218042753180982981318819002
232,21530.8313923228208700709622995236663,21529.2,1.6313923228208700709622995236663
233,21716.8322591051363033349383146132603,21715.2,1.6322591051363033349383146132603
234,21903.6331221833501876548900258476099,21902.0,1.6331221833501876548900258476099
235,22091.2339815891813972082806659027288,22089.6,1.6339815891813972082806659027288
236,22279.6348373539461011258753392283667,22278.0,1.6348373539461011258753392283667
237,22468.8356895085646076413863869999629,22467.2,1.6356895085646076413863869999629
238,22658.8365380835680635879579780927829,22657.2,1.6365380835680635879579780927829
