Eigenstate,Energy,Kinetic Energy,Potential Energy
1,0.500000000053294964302119419196114463,0.0,0.500000000053294964302119419196114463
2,1.84623093799899657244743690779041737,1.2,0.64623093799899657244743690779041737
3,3.93633761072685155319511645037592150,3.2,0.73633761072685155319511645037592150
4,6.79966527994269195535284104888581846,6.0,0.79966527994269195535284104888581846
5,10.4480465789726073907071434498451643,9.6,0.8480465789726073907071434498451643
6,14.8870660025754501274756195594657535,14.0,0.8870660025754501274756195594657535
7,20.1197208321913574005154980457338620,19.2,0.9197208321913574005154980457338620
8,26.1477838541983209155854791804937326,25.2,0.9477838541983209155854791804937326
9,32.9723835676032378425195295881150252,32.0,0.9723835676032378425195295881150252
10,40.5942802265550804508181622492040039,39.6,0.9942802265550804508181622492040039
11,49.0140094011951696524491949495203788,48.0,1.0140094011951696524491949495203788
12,58.2319621868283496569689964663017409,57.2,1.0319621868283496569689964663017409
13,68.2484327135206031924316813920417531,67.2,1.0484327135206031924316813920417531
14,79.0636476789552265136582254674412837,78.0,1.0636476789552265136582254674412837
15,90.6777854642470224195088990584661727,89.6,1.0777854642470224195088990584661727
16,103.090988938812750493746509325282824,102.0,1.090988938812750493746509325282824
17,116.303374293832634906973719278915684,115.2,1.103374293832634906973719278915684
18,130.315037293256566292221632262486046,129.2,1.115037293256566292221632262486046
19,145.126057796908081092423593069136160,144.0,1.126057796908081092423593069136160
20,160.736503098118299269287083962234991,159.6,1.136503098118299269287083962234991
21,177.146430429807622423967041161190475,176.0,1.146430429807622423967041161190475
22,194.355888875644474641910564075226799,193.2,1.155888875644474641910564075226799
23,212.364920847981827692970381721853004,211.2,1.164920847981827692970381721853004
24,231.173563245257623613486920565462450,230.0,1.173563245257623613486920565462450
25,250.781848368790701430552535463705901,249.6,1.181848368790701430552535463705901
26,271.189804656588385177703867321708463,270.0,1.189804656588385177703867321708463
27,292.397457276309059944321611173966459,291.2,1.197457276309059944321611173966459
28,314.404828608621211887940654107825020,313.2,1.204828608621211887940654107825020
29,337.211938644405380314421875427697837,336.0,1.211938644405380314421875427697837
30,360.818805313595982359702188036612141,359.6,1.218805313595982359702188036612141
31,385.225444759314032305377803880732178,384.0,1.225444759314032305377803880732178
32,410.431871567863877974654371278856221,409.2,1.231871567863877974654371278856221
33,436.438098962857428850346070874479943,435.2,1.238098962857428850346070874479943
34,463.244138969978804289926377890253251,462.0,1.244138969978804289926377890253251
35,490.850002557563135146554979938508432,489.6,1.250002557563135146554979938508432
36,519.255699757129773226181666086383738,518.0,1.255699757129773226181666086383738
37,548.461239767206078462111776397933972,547.2,1.261239767206078462111776397933972
38,578.466631043147534945129474433540543,577.2,1.266631043147534945129474433540543
39,609.271881375162098297647353954512999,608.0,1.271881375162098297647353954512999
40,640.876997956350856096722849293568018,639.6,1.276997956350856096722849293568018
41,673.281987442260332776997733655749978,672.0,1.281987442260332776997733655749978
42,706.486856003186777843063322313856370,705.2,1.286856003186777843063322313856370
43,740.491609370266289875800373940517165,739.2,1.291609370266289875800373940517165
44,775.296252876216534801709792598384766,774.0,1.296252876216534801709792598384766
45,810.900791491458247325230985468441928,809.6,1.300791491458247325230985468441928
46,847.305229856231568141434046398894852,846.0,1.305229856231568141434046398894852
47,884.509572309228792934126932287047895,883.2,1.309572309228792934126932287047895
48,922.513822913187522800160254387259258,921.2,1.313822913187522800160254387259258
49,961.317985477823543196807307229403213,960.0,1.317985477823543196807307229403213
50,1000.92206358042863579543704570722317,999.6,1.32206358042863579543704570722317
51,1041.32606058441306066221983089043772,1040.0,1.32606058441306066221983089043772
52,1082.52997965603410097230185753908299,1081.2,1.32997965603410097230185753908299
53,1124.53382377951961234533452458088788,1123.2,1.33382377951961234533452458088788
54,1167.33759577076795775878591905861849,1166.0,1.33759577076795775878591905861849
55,1210.94129828978223350294713853417157,1209.6,1.34129828978223350294713853417157
56,1255.34493385197661707141899013962557,1254.0,1.34493385197661707141899013962557
57,1300.54850483847546891574376381798220,1299.2,1.34850483847546891574376381798220
58,1346.55201350551102280655452740268794,1345.2,1.35201350551102280655452740268794
59,1393.35546199301274559633776727270998,1392.0,1.35546199301274559633776727270998
60,1440.95885233247042267120208842388365,1439.6,1.35885233247042267120208842388365
61,1489.36218645414346115154010194652664,1488.0,1.36218645414346115154010194652664
62,1538.56546619368060189635650788644929,1537.2,1.36546619368060189635650788644929
63,1588.56869329820698947701404433132877,1587.2,1.36869329820698947701404433132877
64,1639.37186943192923680622634816427074,1638.0,1.37186943192923680622634816427074
65,1690.97499618130358626815358368908781,1689.6,1.37499618130358626815358368908781
66,1743.37807505980742185640202511108107,1742.0,1.37807505980742185640202511108107
67,1796.58110751235012453540266002394115,1795.2,1.38110751235012453540266002394115
68,1850.58409491935550687983501182949695,1849.2,1.38409491935550687983501182949695
69,1905.38703860054475037603533894548100,1904.0,1.38703860054475037603533894548100
70,1960.98993981844584050106385953600426,1959.6,1.38993981844584050106385953600426
71,2017.39279978165289599137468598410597,2016.0,1.39279978165289599137468598410597
72,2074.59561964785649047065162303414500,2073.2,1.39561964785649047065162303414500
73,2132.59840052666401159996976731192305,2131.2,1.39840052666401159996976731192305
74,2191.40114348222728406488952721833637,2190.0,1.40114348222728406488952721833637
75,2251.00384953569305161298679251472329,2249.6,1.40384953569305161298679251472329
76,2311.40651966749046379856732182404710,2310.0,1.40651966749046379856732182404710
77,2372.60915481946841069289541501996235,2371.2,1.40915481946841069289541501996235
78,2434.61175589689438302008646669542340,2433.2,1.41175589689438302008646669542340
79,2497.41432377032548835882071584533840,2496.0,1.41432377032548835882071584533840
80,2561.01685927736131592439080249286975,2559.6,1.41685927736131592439080249286975
81,2625.41936322428749310411930322650446,2624.0,1.41936322428749310411930322650446
82,2690.62183638761801546862855185857828,2689.2,1.42183638761801546862855185857828
83,2756.62427951554374324765542452166721,2755.2,1.42427951554374324765542452166721
84,2823.42669332929383296738756818643306,2822.0,1.42669332929383296738756818643306
85,2891.02907852441631367012380899590853,2889.6,1.42907852441631367012380899590853
86,2959.43143577198350127167195580400624,2958.0,1.43143577198350127167195580400624
87,3028.63376571972748714109756866756504,3027.2,1.43376571972748714109756866756504
88,3098.63606899311051360970122196152967,3097.2,1.43606899311051360970122196152967
89,3169.43834619633466561394043997530256,3168.0,1.43834619633466561394043997530256
90,3241.04059791329496446028306384886389,3239.6,1.44059791329496446028306384886389
91,3313.44282470847962824792822537085506,3312.0,1.44282470847962824792822537085506
92,3386.64502712782097518779173940890319,3385.2,1.44502712782097518779173940890319
93,3460.64720569950018380109729760319547,3459.2,1.44720569950018380109729760319547
94,3535.44936093470888105217655913201227,3534.0,1.44936093470888105217655913201227
95,3611.05149332837030831605234934164157,3609.6,1.45149332837030831605234934164157
96,3687.45360335982261325926252107710014,3686.0,1.45360335982261325926252107710014
97,3764.65569149346663137027283386656597,3763.2,1.45569149346663137027283386656597
98,3842.65775817938034800153192991826046,3841.2,1.45775817938034800153192991826046
99,3921.45980385390207831303295105980228,3920.0,1.45980385390207831303295105980228
100,4001.06182894018425616682980839518307,3999.6,1.46182894018425616682980839518307
101,4081.46383384871959371780194478983546,4080.0,1.46383384871959371780194478983546
102,4162.66581897784124787124021376786269,4161.2,1.46581897784124787124021376786269
103,4244.66778471419852186421361021243679,4243.2,1.46778471419852186421361021243679
104,4327.46973143320952296296646070112568,4326.0,1.46973143320952296296646070112568
105,4411.07165949949210419483833241217895,4409.6,1.47165949949210419483833241217895
106,4495.47356926727432726895572648710342,4494.0,1.47356926727432726895572648710342
107,4580.67546108078560575798875711863358,4579.2,1.47546108078560575798875711863358
108,4666.67733527462960837371216389447954,4665.2,1.47733527462960837371216389447954
109,4753.47919217413993357557534981305121,4752.0,1.47919217413993357557534981305121
110,4841.08103209571950433136156466809800,4839.6,1.48103209571950433136156466809800
111,4929.48285534716456598781744970108314,4928.0,1.48285534716456598781744970108314
112,5018.68466222797412077550109201183363,5017.2,1.48466222797412077550109201183363
113,5108.68645302964557693630242063812872,5107.2,1.48645302964557693630242063812872
114,5199.48822803595734170433356912781739,5198.0,1.48822803595734170433356912781739
115,5291.08998752323904692238434867262765,5289.6,1.48998752323904692238434867262765
116,5383.49173176063004774448964450699238,5382.0,1.49173176063004774448964450699238
117,5476.69346101032680316214904086319702,5475.2,1.49346101032680316214904086319702
118,5570.69517552781970606063312000827802,5569.2,1.49517552781970606063312000827802
119,5665.49687556211989679809495667984618,5664.0,1.49687556211989679809495667984618
120,5761.09856135597656845797028834069670,5759.6,1.49856135597656845797028834069670
121,5857.50023314608523365790549114691251,5856.0,1.50023314608523365790549114691251
122,5954.70189116328740388531991493954755,5953.2,1.50189116328740388531991493954755
123,6052.70353563276210013677718594687224,6051.2,1.50353563276210013677718594687224
124,6151.50516677420959595853130035967641,6150.0,1.50516677420959595853130035967641
125,6251.10678480202776441935048577443887,6249.6,1.50678480202776441935048577443887
126,6351.50838992548138534942417737022037,6350.0,1.50838992548138534942417737022037
127,6452.70998234886474860127205025612388,6451.2,1.50998234886474860127205025612388
128,6554.71156227165786650138437438973009,6553.2,1.51156227165786650138437438973009
129,6657.51312988867659658808476406111895,6656.0,1.51312988867659658808476406111895
130,6761.11468539021695734923911915601984,6759.6,1.51468539021695734923911915601984
131,6865.51622896219390426931674544164761,6864.0,1.51622896219390426931674544164761
132,6970.71776078627481851810887371484177,6969.2,1.51776078627481851810887371484177
133,7076.71928104000794883182538757437003,7075.2,1.51928104000794883182538757437003
134,7183.52078989694603586133265956134916,7182.0,1.52078989694603586133265956134916
135,7291.12228752676533015395226008882684,7289.6,1.52228752676533015395226008882684
136,7399.52377409538021124771000596509592,7398.0,1.52377409538021124771000596509592
137,7508.72524976505360204898186099470405,7507.2,1.52524976505360204898186099470405
138,7618.72671469450335905249201690544552,7617.2,1.52671469450335905249201690544552
139,7729.52816903900481685671327178847986,7728.0,1.52816903900481685671327178847986
140,7841.12961295048964998175154759399375,7839.6,1.52961295048964998175154759399375
141,7953.53104657764121043930635745550929,7952.0,1.53104657764121043930635745550929
142,8066.73247006598649143103232214032431,8065.2,1.53247006598649143103232214032431
143,8180.73388355798485890145714584243095,8179.2,1.53388355798485890145714584243095
144,8295.53528719311368549197510783056139,8294.0,1.53528719311368549197510783056139
145,8411.13668110795101725467538320905079,8409.6,1.53668110795101725467538320905079
146,8527.53806543625539561601449023237704,8526.0,1.53806543625539561601449023237704
147,8644.73944030904294887737540223220116,8643.2,1.53944030904294887737540223220116
148,8762.74080585466186858152313005918382,8761.2,1.54080585466186858152313005918382
149,8881.54216219886437254589220245653695,8880.0,1.54216219886437254589220245653695
150,9001.14350946487625820356411909000429,8999.6,1.54350946487625820356411909000429
151,9121.54484777346414216616978579470132,9120.0,1.54484777346414216616978579470132
152,9242.74617724300047630786639873549856,9241.2,1.54617724300047630786639873549856
153,9364.74749798952642932006261755178704,9363.2,1.54749798952642932006261755178704
154,9487.54881012681271763611316731477985,9486.0,1.54881012681271763611316731477985
155,9611.15011376641846396195479468367061,9609.6,1.55011376641846396195479468367061
156,9735.55140901774816127902548122207797,9734.0,1.55140901774816127902548122207797
157,9860.75269598810681336604832114737270,9859.2,1.55269598810681336604832114737270
158,9986.75397478275332365775983943008278,9985.2,1.55397478275332365775983943008278
159,10113.5552455049521961133939040295419,10112.0,1.5552455049521961133939040295419
160,10241.1565082560236144324374388574179,10239.6,1.5565082560236144324374388574179
161,10369.5577631353919581137546493966988,10368.0,1.5577631353919581137546493966988
162,10498.7590102406328148191578446248076,10497.2,1.5590102406328148191578446248076
163,10628.7602496675185438946999556976015,10627.2,1.5602496675185438946999556976015
164,10759.5614815100624456862606981862655,10758.0,1.5614815100624456862606981862655
165,10891.1627058605615852496202251522118,10889.6,1.5627058605615852496202251522118
166,11023.5639228096383209705853929762598,11022.0,1.5639228096383209705853929762598
167,11156.7651324462805853274650084822462,11155.2,1.5651324462805853274650084822462
168,11290.7663348578809604847841769294112,11289.2,1.5663348578809604847841769294112
169,11425.5675301302745937803048445406028,11424.0,1.5675301302745937803048445406028
170,11561.1687183477759928484456079622531,11559.6,1.5687183477759928484456079622531
171,11697.5698995932147405745379072101923,11696.0,1.5698995932147405745379072101923
172,11834.7710739479701677465540084868194,11833.2,1.5710739479701677465540084868194
173,11972.7722414920050188066141507459859,11971.2,1.5722414920050188066141507459859
174,12111.5734023038981465457643277371097,12110.0,1.5734023038981465457643277371097
175,12251.1745564608762697269347870174170,12249.6,1.5745564608762697269347870174170
176,12391.5757040388448233424092929862842,12390.0,1.5757040388448233424092929862842
177,12532.7768451124179347663200060386159,12531.2,1.5768451124179347663200060386159
178,12674.7779797549475549565415792661731,12673.2,1.5779797549475549565415792661731
179,12817.5791080385517711509077764000929,12816.0,1.5791080385517711509077764000929
180,12961.1802300341423320041271208872361,12959.6,1.5802300341423320041271208872361
181,13105.5813458114514078139612515746619,13104.0,1.5813458114514078139612515746619
182,13250.7824554390576135320290541488985,13249.2,1.5824554390576135320290541488985
183,13396.7835589844113176084883264818158,13395.2,1.5835589844113176084883264818158
184,13543.5846565138592609121086315707158,13542.0,1.5846565138592609121086315707158
185,13691.1857480926685075338367833026116,13689.6,1.5857480926685075338367833026116
186,13839.5868337850497484424515933933116,13838.0,1.5868337850497484424515933933116
187,13988.7879136541799817927836330731760,13987.2,1.5879136541799817927836330731760
188,14138.7889877622245853227918537899548,14137.2,1.5889877622245853227918537899548
189,14289.5900561703588045705627715952908,14288.0,1.5900561703588045705627715952908
190,14441.1911189387886725622845362704757,14439.6,1.5911189387886725622845362704757
191,14593.5921761267713801937221710637498,14592.0,1.5921761267713801937221710637498
192,14746.7932277926351136873710904322652,14745.2,1.5932277926351136873710904322652
193,14900.7942739937983774291099902829091,14899.2,1.5942739937983774291099902829091
194,15055.5953147867888155251090180144522,15054.0,1.5953147867888155251090180144522
195,15211.1963502272615500113239596259986,15209.6,1.5963502272615500113239596259986
196,15367.5973803700170494074488279378169,15366.0,1.5973803700170494074488279378169
197,15524.7984052690185419906193072228396,15523.2,1.5984052690185419906193072228396
198,15682.7994249774089879508174965245597,15681.2,1.5994249774089879508174965245597
199,15841.6004395475276232618035297186397,15840.0,1.6004395475276232618035297186397
200,16001.2014490309260892077443159058380,15999.6,1.6014490309260892077443159058380
201,16161.6024534783841585419281613832860,16160.0,1.6024534783841585419281613832860
202,16322.8034529399250716536869514506816,16321.2,1.6034529399250716536869514506816
203,16484.8044474648304933982174442038969,16483.2,1.6044474648304933982174442038969
204,16647.6054371016551022041738826291645,16646.0,1.6054371016551022041738826291645
205,16811.2064218982408214243539653391398,16809.6,1.6064218982408214243539653391398
206,16975.6074019017307059481859673171371,16974.0,1.6074019017307059481859673171371
207,17140.8083771585824899466526937051694,17139.2,1.6083771585824899466526937051694
208,17306.8093477145818099710681872902823,17305.2,1.6093477145818099710681872902823
209,17473.6103136148551091485450377804442,17472.0,1.6103136148551091485450377804442
210,17641.2112749038822339697630996090700,17639.6,1.6112749038822339697630996090700
211,17809.6122316255087310280064424422954,17808.0,1.6122316255087310280064424422954
212,17978.8131838229578539366023979838267,17977.2,1.6131838229578539366023979838267
213,18148.8141315388422848026625003306528,18147.2,1.6141315388422848026625003306528
214,18319.6150748151755852328193614518491,18318.0,1.6150748151755852328193614518491
215,18491.2160136933833760771970888395327,18489.6,1.6160136933833760771970888395327
216,18663.6169482143142598660769722882394,18662.0,1.6169482143142598660769722882394
217,18836.8178784182504898983060592439338,18835.2,1.6178784182504898983060592439338
218,19010.8188043449183949539038559209425,19009.2,1.6188043449183949539038559209425
219,19185.6197260334985629038085264815473,19184.0,1.6197260334985629038085264815473
220,19361.2206435226357957248951553368871,19359.6,1.6206435226357957248951553368871
221,19537.6215568504488338225621963364343,19536.0,1.6215568504488338225621963364343
222,19714.8224660545398668582560917931909,19713.2,1.6224660545398668582560917931909
223,19892.8233711720038246427715441150446,19891.2,1.6233711720038246427715441150446
224,20071.6242722394374631546306301536332,20070.0,1.6242722394374631546306301536332
225,20251.2251692929482482400897207563199,20249.6,1.6251692929482482400897207563199
226,20431.6260623681630405327199269889658,20430.0,1.6260623681630405327199269889658
227,20612.8269515002365902354138409265101,20611.2,1.6269515002365902354138409265101
228,20794.8278367238598435750239472876654,20793.2,1.6278367238598435750239472876654
229,20977.6287180732680680817820710120704,20976.0,1.6287180732680680817820710120704
230,21161.2295955822488013797421106572634,21159.6,1.6295955822488013797421106572634
231,21345.6304692841496252775156564171310,21344.0,1.6304692841496252775156564171310
232,21530.8313392118857755682190916386160,21529.2,1.6313392118857755682190916386160
233,21716.8322053979475825241355665880982,21715.2,1.6322053979475825241355665880982
234,21903.6330678744077582321562311186910,21902.0,1.6330678744077582321562311186910
235,22091.2339266729285239410995153780530,22089.6,1.6339266729285239410995153780530
236,22279.6347818247685871196749854028857,22278.0,1.6347818247685871196749854028857
237,22468.8356333607899718452178925606469,22467.2,1.6356333607899718452178925606469
238,22658.8364813114647042542037458236041,22657.2,1.6364813114647042542037458236041
