Eigenstate,Energy,Kinetic Energy,Potential Energy
1,0.500000000088332195631008146514699149,0.0,0.500000000088332195631008146514699149
2,1.84623093822770243897008593416066682,1.2,0.64623093822770243897008593416066682
3,3.93633761139866150578705209070885793,3.2,0.73633761139866150578705209070885793
4,6.79966528134200942777361975782299971,6.0,0.79966528134200942777361975782299971
5,10.4480465813965426192460941690324335,9.6,0.8480465813965426192460941690324335
6,14.8870660063263327924574207678627290,14.0,0.8870660063263327924574207678627290
7,20.1197208375739806568952857290516567,19.2,0.9197208375739806568952857290516567
8,26.1477838615187946021241267440577979,25.2,0.9477838615187946021241267440577979
9,32.9723835771684575774382326512428552,32.0,0.9723835771684575774382326512428552
10,40.5942802386724603443791296071451407,39.6,0.9942802386724603443791296071451407
11,49.0140094161724991211649801178921064,48.0,1.0140094161724991211649801178921064
12,58.2319622049737134809138467279144288,57.2,1.0319622049737134809138467279144288
13,68.2484327351423360051415283250460490,67.2,1.0484327351423360051415283250460490
14,79.0636477043618871108749451061225747,78.0,1.0636477043618871108749451061225747
15,90.6777854937473800271313821895511098,89.6,1.0777854937473800271313821895511098
16,103.090988972715778550882876232799401,102.0,1.090988972715778550882876232799401
17,116.303374332447509740431646952539231,115.2,1.103374332447509740431646952539231
18,130.315037336892669074321050460530286,129.2,1.115037336892669074321050460530286
19,145.126057845875002063584234273233960,144.0,1.126057845875002063584234273233960
20,160.736503152725843561336105894123673,159.6,1.136503152725843561336105894123673
21,177.146430490365817039991660297546208,176.0,1.146430490365817039991660297546208
22,194.355888942463576288698506714758588,193.2,1.155888942463576288698506714758588
23,212.364920921372331253748650068176858,211.2,1.164920921372331253748650068176858
24,231.173563325530271109954620112319967,230.0,1.173563325530271109954620112319967
25,250.781848456256491365015717474927295,249.6,1.181848456256491365015717474927295
26,271.189804751558582175177677977577519,270.0,1.189804751558582175177677977577519
27,292.397457379095204635001201502058765,291.2,1.197457379095204635001201502058765
28,314.404828719535130985181700140199874,313.2,1.204828719535130985181700140199874
29,337.211938763759196854101502145664357,336.0,1.211938763759196854101502145664357
30,360.818805441702126074745052448271835,359.6,1.218805441702126074745052448271835
31,385.225444896485250115140206134574896,384.0,1.225444896485250115140206134574896
32,410.431871714413244573319671550538326,409.2,1.231871714413244573319671550538326
33,436.438099119098357381887561000767536,435.2,1.238099119098357381887561000767536
34,463.244139136225057099815218560562232,462.0,1.244139136225057099815218560562232
35,490.850002734128834602428865460510663,489.6,1.250002734128834602428865460510663
36,519.255699944329412601287878266806391,518.0,1.255699944329412601287878266806391
37,548.461239965354532876601550655564759,547.2,1.261239965354532876601550655564759
38,578.466631252560072361286662151303509,577.2,1.266631252560072361286662151303509
39,609.271881596154390565941528758469790,608.0,1.271881596154390565941528758469790
40,640.876998189238990050228959486142972,639.6,1.276998189238990050228959486142972
41,673.281987687360821372254392366846548,672.0,1.281987687360821372254392366846548
42,706.486856260816571345875417989477345,705.2,1.286856260816571345875417989477345
43,740.491609640742787090848516459673647,739.2,1.291609640742787090848516459673647
44,775.296253159857594345124364164967258,774.0,1.296253159857594345124364164967258
45,810.900791788582198939534340807498599,809.6,1.300791788582198939534340807498599
46,847.305230167157224052460075547310650,846.0,1.305230167157224052460075547310650
47,884.509572634275459249700087870804780,883.2,1.309572634275459249700087870804780
48,922.513823252675010950462429445520018,921.2,1.313823252675010950462429445520018
49,961.317985832072181416485160980373242,960.0,1.317985832072181416485160980373242
50,1000.92206394975928064760843048260496,999.6,1.32206394975928064760843048260496
51,1041.32606096914710860462910842573768,1040.0,1.32606096914710860462910842573768
52,1082.52998005649349996595235337702459,1081.2,1.32998005649349996595235337702459
53,1124.53382419602687350599443308841356,1123.2,1.33382419602687350599443308841356
54,1167.33759620364616705182329180362543,1166.0,1.33759620364616705182329180362543
55,1210.94129873935506348200147416189112,1209.6,1.34129873935506348200147416189112
56,1255.34493431856833866146264346961076,1254.0,1.34493431856833866146264346961076
57,1300.54850532241096324112672989349081,1299.2,1.34850532241096324112672989349081
58,1346.55201400711579306466225561904859,1345.2,1.35201400711579306466225561904859
59,1393.35546251261292897752358449163942,1392.0,1.35546251261292897752358449163942
60,1440.95885287039280232568486446990654,1439.6,1.35885287039280232568486446990654
61,1489.36218701071547820398380006773735,1488.0,1.36218701071547820398380006773735
62,1538.56546676923036750887211734365185,1537.2,1.36546676923036750887211734365185
63,1588.56869389306329696134599377624133,1587.2,1.36869389306329696134599377624133
64,1639.37187004642157378590550395085824,1638.0,1.37187004642157378590550395085824
65,1690.97499681576214689141747284391442,1689.6,1.37499681576214689141747284391442
66,1743.37807571456311906069999565311702,1742.0,1.37807571456311906069999565311702
67,1796.58110818773460236431980868802124,1795.2,1.38110818773460236431980868802124
68,1850.58409561570115285328381597041548,1849.2,1.38409561570115285328381597041548
69,1905.38703931818470791457829764659102,1904.0,1.38703931818470791457829764659102
70,1960.98994055771402140524385736806302,1959.6,1.38994055771402140524385736806302
71,2017.39280054288399297694302517042111,2016.0,1.39280054288399297694302517042111
72,2074.59562043138598976059588352336970,2073.2,1.39562043138598976059588352336970
73,2132.59840133282820557425591184493398,2131.2,1.39840133282820557425591184493398
74,2191.40114431136328396884416169831837,2190.0,1.40114431136328396884416169831837
75,2251.00385038813880032525696646602464,2249.6,1.40385038813880032525696646602464
76,2311.40652054358474865960617561447081,2310.0,1.40652054358474865960617561447081
77,2372.60915571955087639493296999578422,2371.2,1.40915571955087639493296999578422
78,2434.61175682130554455955548085885870,2433.2,1.41175682130554455955548085885870
79,2497.41432471940674405221810631851009,2496.0,1.41432471940674405221810631851009
80,2561.01686025145496048856543418619959,2559.6,1.41686025145496048856543418619959
81,2625.41936422373673080198742074398467,2624.0,1.41936422373673080198742074398467
82,2690.62183741276697332132835867444087,2689.2,1.42183741276697332132835867444087
83,2756.62428056673748431416249429354693,2755.2,1.42428056673748431416249429354693
84,2823.42669440687836969262308420791075,2822.0,1.42669440687836969262308420791075
85,2891.02907962873862130259779516973853,2889.6,1.42907962873862130259779516973853
86,2959.43143690339153135171387203374104,2958.0,1.43143690339153135171387203374104
87,3028.63376687857018106073698471715432,3027.2,1.43376687857018106073698471715432
88,3098.63607017973781624527154142995534,3097.2,1.43607017973781624527154142995534
89,3169.43834741109753903248902483477899,3168.0,1.43834741109753903248902483477899
90,3241.04059915654540170088148552859382,3239.6,1.44059915654540170088148552859382
91,3313.44282598057066717898703628347922,3312.0,1.44282598057066717898703628347922
92,3386.64502842910671244149452448285514,3385.2,1.44502842910671244149452448285514
93,3460.64720703033578878607967404725233,3459.2,1.44720703033578878607967404725233
94,3535.44936229545061004558645833596796,3534.0,1.44936229545061004558645833596796
95,3611.05149471937551863613885104562285,3609.6,1.45149471937551863613885104562285
96,3687.45360478144977751965153515782242,3686.0,1.45360478144977751965153515782242
97,3764.65569294607535181709909659620652,3763.2,1.45569294607535181709909659620652
98,3842.65775966333137093460794318866049,3841.2,1.45775966333137093460794318866049
99,3921.45980536955730859224711679190392,3920.0,1.45980536955730859224711679190392
100,4001.06183048790677180497732945466604,3999.6,1.46183048790677180497732945466604
101,4081.46383542887366056106394276100690,4080.0,1.46383542887366056106394276100690
102,4162.66582059079233436853825889042525,4161.2,1.46582059079233436853825889042525
103,4244.66778636031331392667881047788968,4243.2,1.46778636031331392667881047788968
104,4327.46973311285593891477474200583156,4326.0,1.46973311285593891477474200583156
105,4411.07166121303930981667542478578955,4409.6,1.47166121303930981667542478578955
106,4495.47357101509275093538819824833470,4494.0,1.47357101509275093538819824833470
107,4580.67546286324695367003002050470696,4579.2,1.47546286324695367003002050470696
108,4666.67733709210687988788513746888652,4665.2,1.47733709210687988788513746888652
109,4753.47919402700743663078676857964998,4752.0,1.47919402700743663078676857964998
110,4841.08103398435287097491578387613371,4839.6,1.48103398435287097491578387613371
111,4929.48285727194076800191127662259595,4928.0,1.48285727194076800191127662259595
112,5018.68466418927148540555474279977282,5017.2,1.48466418927148540555474279977282
113,5108.68645502784380272249537619473869,5107.2,1.48645502784380272249537619473869
114,5199.48823007143751441772830074214775,5198.0,1.48823007143751441772830074214775
115,5291.08998959638365560703489489937833,5289.6,1.48998959638365560703489489937833
116,5383.49173387182300086694667066344689,5382.0,1.49173387182300086694667066344689
117,5476.69346315995344486978740859642937,5475.2,1.49346315995344486978740859642937
118,5570.69517771626683255024303655058817,5569.2,1.49517771626683255024303655058817
119,5665.49687778977577279619272241667544,5664.0,1.49687778977577279619272241667544
120,5761.09856362323094381430006690294499,5759.6,1.49856362323094381430006690294499
121,5857.50023545332936005361893773136053,5856.0,1.50023545332936005361893773136053
122,5954.70189351091405165733631211619389,5953.2,1.50189351091405165733631211619389
123,6052.70353802116557521984276707109357,6051.2,1.50353802116557521984276707109357
124,6151.50516920378575694651253486243940,6150.0,1.50516920378575694651253486243940
125,6251.10678727317403974731279031183885,6249.6,1.50678727317403974731279031183885
126,6351.50839243859679059806404455985621,6350.0,1.50839243859679059806404455985621
127,6452.70998490434990392528761482892438,6451.2,1.50998490434990392528761482892438
128,6554.71156486991501418338674893567707,6553.2,1.51156486991501418338674893567707
129,6657.51313253010961871966982877818006,6656.0,1.51313253010961871966982877818006
130,6761.11468807523139364085730326954453,6759.6,1.51468807523139364085730326954453
131,6865.51623169119696999059626869721754,6864.0,1.51623169119696999059626869721754
132,6970.71776355967542257030641818309494,6969.2,1.51776355967542257030641818309494
133,7076.71928385821671195409638432361456,7075.2,1.51928385821671195409638432361456
134,7183.52079276037530897253251880164293,7182.0,1.52079276037530897253251880164293
135,7291.12229043582921283169893193402318,7289.6,1.52229043582921283169893193402318
136,7399.52377705049457034645752574948381,7398.0,1.52377705049457034645752574948381
137,7508.72525276663609045887444611783114,7507.2,1.52525276663609045887444611783114
138,7618.72671774297343460078828173306580,7617.2,1.52671774297343460078828173306580
139,7729.52817213478376135359029702027653,7728.0,1.52817213478376135359029702027653
140,7841.12961609400058841231930332551763,7839.6,1.52961609400058841231930332551763
141,7953.53104976930913030368379219684057,7952.0,1.53104976930913030368379219684057
142,8066.73247330623826223435774371932353,8065.2,1.53247330623826223435774371932353
143,8180.73388684724925179572724944687440,8179.2,1.53388684724925179572724944687440
144,8295.53529053182139307162859417552088,8294.0,1.53529053182139307162859417552088
145,8411.13668449653467350785965877022315,8409.6,1.53668449653467350785965877022315
146,8527.53806887514959603349613618603686,8526.0,1.53806887514959603349613618603686
147,8644.73944379868427072107865671831378,8643.2,1.53944379868427072107865671831378
148,8762.74080939548889131470297822581179,8761.2,1.54080939548889131470297822581179
149,8881.54216579131769842697332521926666,8880.0,1.54216579131769842697332521926666
150,9001.14351310939853304569988704053111,8999.6,1.54351310939853304569988704053111
151,9121.54485147050007626460074150860075,9120.0,1.54485147050007626460074150860075
152,9242.74618099299686553718180142703933,9241.2,1.54618099299686553718180142703933
153,9364.74750179293217640349396150398581,9363.2,1.54750179293217640349396150398581
154,9487.54881398407885358901392334951406,9486.0,1.54881398407885358901392334951406
155,9611.15011767799816971164653931922982,9609.6,1.55011767799816971164653931922982
156,9735.55141298409678946321713877318405,9734.0,1.55141298409678946321713877318405
157,9860.75270000968191031206123883062493,9859.2,1.55270000968191031206123883062493
158,9986.75397886001465154481907389378998,9985.2,1.55397886001465154481907389378998
159,10113.5552496383617553202734085800987,10112.0,1.5552496383617553202734085800987
160,10241.1565124460456660727745600000430,10239.6,1.5565124460456660727745600000430
161,10369.5577673824930467613779827115762,10368.0,1.5577673824930467613779827115762
162,10498.7590145452817914258010557372181,10497.2,1.5590145452817914258010557372181
163,10628.7602540301865889025032794823564,10627.2,1.5602540301865889025032794823564
164,10759.5614859312230923374918271424559,10758.0,1.5614859312230923374918271424559
165,10891.1627103406907430960762103848038,10889.6,1.5627103406907430960762103848038
166,11023.5639273492142995851676810120838,11022.0,1.5639273492142995851676810120838
167,11156.7651370457841182204507635230768,11155.2,1.5651370457841182204507635230768
168,11290.7663395177952292273490242073181,11289.2,1.5663395177952292273490242073181
169,11425.5675348510852523378834004662345,11424.0,1.5675348510852523378834004662345
170,11561.1687231299711921265494469746884,11559.6,1.5687231299711921265494469746884
171,11697.5699044372851531796830771536180,11696.0,1.5699044372851531796830771536180
172,11834.7710788544090129649840489241530,11833.2,1.5710788544090129649840489241530
173,11972.7722464613080878035383396822745,11971.2,1.5722464613080878035383396822745
174,12111.5734073365638277878657983572373,12110.0,1.5734073365638277878657983572373
175,12251.1745615574055746309378574501755,12249.6,1.5745615574055746309378574501755
176,12391.5757091997414121525314644705155,12390.0,1.5757091997414121525314644705155
177,12532.7768503381881426634698758229833,12531.2,1.5768503381881426634698758229833
178,12674.7779850461004184021606610411898,12673.2,1.5779850461004184021606610411898
179,12817.5791133955990544683921777307676,12816.0,1.5791133955990544683921777307676
180,12961.1802354575985542008023538066414,12959.6,1.5802354575985542008023538066414
181,13105.5813513018338696466220394036046,13104.0,1.5813513018338696466220394036046
182,13250.7824609968864248190953173303173,13249.2,1.5824609968864248190953173303173
183,13396.7835646102094247918682384703034,13395.2,1.5835646102094247918682384703034
184,13543.5846622081524748718997068866573,13542.0,1.5846622081524748718997068866573
185,13691.1857538559855316590378932079094,13689.6,1.5857538559855316590378932079094
186,13839.5868396179222069608986420126291,13838.0,1.5868396179222069608986420126291
187,13988.7879195571424483635660191634878,13987.2,1.5879195571424483635660191634878
188,14138.7889937358146118944483362290034,14137.2,1.5889937358146118944483362290034
189,14289.5900622151169505083995328848876,14288.0,1.5900622151169505083995328848876
190,14441.1911250552585340482023394497238,14439.6,1.5911250552585340482023394497238
191,14593.5921823154996199019852418368284,14592.0,1.5921823154996199019852418368284
192,14746.7932340541714907397950273503733,14745.2,1.5932340541714907397950273503733
193,14900.7942803286957776331934160490760,14899.2,1.5942803286957776331934160490760
194,15055.5953211956032818986799481955483,15054.0,1.5953211956032818986799481955483
195,15211.1963567105523135973212865070003,15209.6,1.5963567105523135973212865070003
196,15367.5973869283465603825062814712215,15366.0,1.5973869283465603825062814712215
197,15524.7984119029525010711699784175089,15523.2,1.5984119029525010711699784175089
198,15682.7994316875163781004870081982968,15681.2,1.5994316875163781004870081982968
199,15841.6004463343807417039109490988507,15840.0,1.6004463343807417039109490988507
200,16001.2014558951005797467818819599098,15999.6,1.6014558951005797467818819599098
201,16161.6024604204590441979432779032382,16160.0,1.6024604204590441979432779032382
202,16322.8034599604827876135446328790941,16321.2,1.6034599604827876135446328790941
203,16484.8044545644569202877742703556796,16483.2,1.6044545644569202877742703556796
204,16647.6054442809395996854514110398105,16646.0,1.6054442809395996854514110398105
205,16811.2064291577762621218544158037583,16809.6,1.6064291577762621218544158037583
206,16975.6074092421135097085511900113177,16974.0,1.6074092421135097085511900113177
207,17140.8083845804126584359253436492513,17139.2,1.6083845804126584359253436492513
208,17306.8093552184629616138718273899935,17305.2,1.6093552184629616138718273899935
209,17473.6103212013945144135623131905410,17472.0,1.6103212013945144135623131905410
210,17641.2112825736908510059494603561293,17639.6,1.6112825736908510059494603561293
211,17809.6122393792012416560404587302045,17808.0,1.6122393792012416560404587302045
212,17978.8131916611527000001363473370159,17977.2,1.6131916611527000001363473370159
213,18148.8141394621617048840003851237486,18147.2,1.6141394621617048840003851237486
214,18319.6150828242456517377154126897743,18318.0,1.6150828242456517377154126897743
215,18491.2160217888340326935329001915699,18489.6,1.6160217888340326935329001915699
216,18663.6169563967793594012437676156828,18662.0,1.6169563967793594012437676156828
217,18836.8178866883678325001858465144320,18835.2,1.6178866883678325001858465144320
218,19010.8188127033297667204130322904339,19009.2,1.6188127033297667204130322904339
219,19185.6197344808497748860384339065847,19184.0,1.6197344808497748860384339065847
220,19361.2206520595767233289554320349734,19359.6,1.6206520595767233289554320349734
221,19537.6215654776334566153053536362510,19536.0,1.6215654776334566153053536362510
222,19714.8224747726263087821370423792766,19713.2,1.6224747726263087821370423792766
223,19892.8233799816543946451695718578141,19891.2,1.6233799816543946451695718578141
224,20071.6242811413186962370397208418934,20070.0,1.6242811413186962370397208418934
225,20251.2251782877309469326591810089179,20249.6,1.6251782877309469326591810089179
226,20431.6260714565223167997085454715434,20430.0,1.6260714565223167997085454715434
227,20612.8269606828519078171990335492864,20611.2,1.6269606828519078171990335492864
228,20794.8278460014150607723911997740718,20793.2,1.6278460014150607723911997740718
229,20977.6287274464514809883023987293254,20976.0,1.6287274464514809883023987293254
230,21161.2296050517531875681296662372682,21159.6,1.6296050517531875681296662372682
231,21345.6304788506722879459443838548184,21344.0,1.6304788506722879459443838548184
232,21530.8313488761285881526644954095512,21529.2,1.6313488761285881526644954095512
233,21716.8322151606170337828964843948891,21715.2,1.6322151606170337828964843948891
234,21903.6330777362149978088029723972445,21902.0,1.6330777362149978088029723972445
235,22091.2339366345894084121851443981703,22089.6,1.6339366345894084121851443981703
236,22279.6347918870037265336420411624194,22278.0,1.6347918870037265336420411624194
237,22468.8356435243247767590269853016507,22467.2,1.6356435243247767590269853016507
238,22658.8364915770294332743072263268213,22657.2,1.6364915770294332743072263268213
