Eigenstate,Energy,Kinetic Energy,Potential Energy
1,0.500000000016539616825253474046612299,0.0,0.500000000016539616825253474046612299
2,1.84623093775907657879122221638992946,1.2,0.64623093775907657879122221638992946
3,3.93633761002210483676325361397145014,3.2,0.73633761002210483676325361397145014
4,6.79966527847478189322501868382949616,6.0,0.79966527847478189322501868382949616
5,10.4480465764298798821343131042550971,9.6,0.8480465764298798821343131042550971
6,14.8870659986407923881224772832650219,14.0,0.8870659986407923881224772832650219
7,20.1197208265450933595610181882632038,19.2,0.9197208265450933595610181882632038
8,26.1477838465194185298384221719808833,25.2,0.9477838465194185298384221719808833
9,32.9723835575698703275758933871986315,32.0,0.9723835575698703275758933871986315
10,40.5942802138449109730073974767728180,39.6,0.9942802138449109730073974767728180
11,49.0140093854855058383694074777433152,48.0,1.0140093854855058383694074777433152
12,58.2319621677962317636631306370244000,57.2,1.0319621677962317636631306370244000
13,68.2484326908428561617860718894412051,67.2,1.0484326908428561617860718894412051
14,79.0636476523084912417240837173128583,78.0,1.0636476523084912417240837173128583
15,90.6777854333077744861767514380258662,89.6,1.0777854333077744861767514380258662
16,103.090988903257311015210285463381719,102.0,1.090988903257311015210285463381719
17,116.303374253337176263727806451511646,115.2,1.103374253337176263727806451511646
18,130.315037247497114420000792671606791,129.2,1.115037247497114420000792671606791
19,145.126057745560515405026625907385675,144.0,1.126057745560515405026625907385675
20,160.736503040858350910356709736735176,159.6,1.136503040858350910356709736735176
21,177.146430366310871314142498911726367,176.0,1.146430366310871314142498911726367
22,194.355888805586345640680570952489462,193.2,1.155888805586345640680570952489462
23,212.364920771037586098395399031677097,211.2,1.164920771037586098395399031677097
24,231.173563161102370158672710499986886,230.0,1.173563161102370158672710499986886
25,250.781848277099366891897601672174509,249.6,1.181848277099366891897601672174509
26,271.189804557035724679464019970557901,270.0,1.189804557035724679464019970557901
27,292.397457168569647022494363550423685,291.2,1.197457168569647022494363550423685
28,314.404828492369432361012534019877678,313.2,1.204828492369432361012534019877678
29,337.211938519315425997268081958844772,336.0,1.211938519315425997268081958844772
30,360.818805179341844648628377794854059,359.6,1.218805179341844648628377794854059
31,385.225444615569495656098334635492084,384.0,1.225444615569495656098334635492084
32,410.431871414302513290324560617936529,409.2,1.231871414302513290324560617936529
33,436.438098799152586793198656744955229,435.2,1.238098799152586793198656744955229
34,463.244138795803608527314758359992727,462.0,1.244138795803608527314758359992727
35,490.850002372590475540070248421633421,489.6,1.250002372590475540070248421633421
36,519.255699561032298970836547028192216,518.0,1.255699561032298970836547028192216
37,548.461239559656191181261892994439513,547.2,1.261239559656191181261892994439513
38,578.466630823817381745749515791548587,577.2,1.266630823817381745749515791548587
39,609.271881143723564789735625400161357,608.0,1.271881143723564789735625400161357
40,640.876997712475559379926402892025165,639.6,1.276997712475559379926402892025165
41,673.281987185619614396997075853446850,672.0,1.281987185619614396997075853446850
42,706.486855733451696719803612204537800,705.2,1.286855733451696719803612204537800
43,740.491609087107615205284609910961333,739.2,1.291609087107615205284609910961333
44,775.296252579304738932762668973349597,774.0,1.296252579304738932762668973349597
45,810.900791180463498612387302025303928,809.6,1.300791180463498612387302025303928
46,847.305229530823723774892893087037394,846.0,1.305229530823723774892893087037394
47,884.509571969077391747534671745092313,883.2,1.309571969077391747534671745092313
48,922.513822557961778056835096619403522,921.2,1.313822557961778056835096619403522
49,961.317985107192335354891320075212576,960.0,1.317985107192335354891320075212576
50,1000.92206319406050525235354517757498,999.6,1.32206319406050525235354517757498
51,1041.32606018197620047872201761453278,1040.0,1.32606018197620047872201761453278
52,1082.52997923719634957631978397362907,1081.2,1.32997923719634957631978397362907
53,1124.53382334394844621575974638311709,1123.2,1.33382334394844621575974638311709
54,1167.33759531813048408927465834654003,1166.0,1.33759531813048408927465834654003
55,1210.94129781974518284577219548608450,1209.6,1.34129781974518284577219548608450
56,1255.34493336420633596135658835820013,1254.0,1.34493336420633596135658835820013
57,1300.54850433263791247394316639012272,1299.2,1.34850433263791247394316639012272
58,1346.55201298127174732430451105000782,1345.2,1.35201298127174732430451105000782
59,1393.35546145003690109861463934151552,1392.0,1.35546145003690109861463934151552
60,1440.95885177042274545985779051652187,1439.6,1.35885177042274545985779051652187
61,1489.36218587268826632796593741232537,1488.0,1.36218587268826632796593741232537
62,1538.56546559248177586343748414266784,1537.2,1.36546559248177586343748414266784
63,1588.56869267692798242017062469106270,1587.2,1.36869267692798242017062469106270
64,1639.37186879023305515332412904382214,1638.0,1.37186879023305515332412904382214
65,1690.97499551885278512804663549786514,1689.6,1.37499551885278512804663549786514
66,1743.37807437626409743586251901863952,1742.0,1.37807437626409743586251901863952
67,1796.58110680737590653417744147583157,1795.2,1.38110680737590653417744147583157
68,1850.58409419261155086355893005232416,1849.2,1.38409419261155086355893005232416
69,1905.38703785169173012672116504205469,1904.0,1.38703785169173012672116504205469
70,1960.98993904714394034487979987567480,1959.6,1.38993904714394034487979987567480
71,2017.39279898756180310341187176534072,2016.0,1.39279898756180310341187176534072
72,2074.59561883063538715637660712215627,2073.2,1.39561883063538715637660712215627
73,2132.59839968597156755304968951622897,2131.2,1.39839968597156755304968951622897
74,2191.40114261772164860107118285554653,2190.0,1.40114261772164860107118285554653
75,2251.00384864703184587970453377563119,2249.6,1.40384864703184587970453377563119
76,2311.40651875433077295994907154784905,2310.0,1.40651875433077295994907154784905
77,2372.60915388146677608983053096598667,2371.2,1.40915388146677608983053096598667
78,2434.61175493370679430501408000480075,2433.2,1.41175493370679430501408000480075
79,2497.41432278160737560489223296945132,2496.0,1.41432278160737560489223296945132
80,2561.01685826276754170865575206203016,2559.6,1.41685826276754170865575206203016
81,2625.41936218347234456437907018457647,2624.0,1.41936218347234456437907018457647
82,2690.62183532023519633359839855130594,2689.2,1.42183532023519633359839855130594
83,2756.62427842124636584007106000262618,2755.2,1.42427842124636584007106000262618
84,2823.42669220773441017968854241421275,2822.0,1.42669220773441017968854241421275
85,2891.02907737524675091234211569692033,2889.6,1.42907737524675091234211569692033
86,2959.43143459485508839115060822013931,2958.0,1.43143459485508839115060822013931
87,3028.63376451429089031366007350286334,3027.2,1.43376451429089031366007350286334
88,3098.63606775901576720188943533559474,3097.2,1.43606775901576720188943533559474
89,3169.43834493323116401593472593284476,3168.0,1.43834493323116401593472593284476
90,3241.04059662083145388911526509613153,3239.6,1.44059662083145388911526509613153
91,3313.44282338630419852059446008247690,3312.0,1.44282338630419852059446008247690
92,3386.64502577558105146386880027196161,3385.2,1.44502577558105146386880027196161
93,3460.64720431684251829446299426321914,3459.2,1.44720431684251829446299426321914
94,3535.44935952127954471143111445796822,3534.0,1.44935952127954471143111445796822
95,3611.05149188381468247323460209564912,3609.6,1.45149188381468247323460209564912
96,3687.45360188378538124645158447506547,3686.0,1.45360188378538124645158447506547
97,3764.65568998559177010366232995439206,3763.2,1.45568998559177010366232995439206
98,3842.65775663931111953256100853635025,3841.2,1.45775663931111953256100853635025
99,3921.45980228128102134615474407725671,3920.0,1.45980228128102134615474407725671
100,4001.06182733465317754349494834602722,3999.6,1.46182733465317754349494834602722
101,4081.46383220991955986623139192599695,4080.0,1.46383220991955986623139192599695
102,4162.66581730541257622155842774014199,4161.2,1.46581730541257622155842774014199
103,4244.66778300778077222850989612498067,4243.2,1.46778300778077222850989612498067
104,4327.46972969244148887984881457142605,4326.0,1.46972969244148887984881457142605
105,4411.07165772401180423804108743974089,4409.6,1.47165772401180423804108743974089
106,4495.47356745671899631955873439826780,4494.0,1.47356745671899631955873439826780
107,4580.67545923479168623980273631204295,4579.2,1.47545923479168623980273631204295
108,4666.67733339283274145138121178691681,4665.2,1.47733339283274145138121178691681
109,4753.47919025617495031494447576188535,4752.0,1.47919025617495031494447576188535
110,4841.08103014122041682165346317321228,4839.6,1.48103014122041682165346317321228
111,4929.48285335576455842515950120041479,4928.0,1.48285335576455842515950120041479
112,5018.68466019930554050733991479794286,5017.2,1.48466019930554050733991479794286
113,5108.68645096333992546623989378215893,5107.2,1.48645096333992546623989378215893
114,5199.48822593164526565691470006783226,5198.0,1.48822593164526565691470006783226
115,5291.08998538055032896736372291695385,5289.6,1.48998538055032896736372291695385
116,5383.49172957919359748009967774534725,5382.0,1.49172957919359748009967774534725
117,5476.69345878977064795688946806002695,5475.2,1.49345878977064795688946806002695
118,5570.69517326777098185309766039935302,5569.2,1.49517326777098185309766039935302
119,5665.49687326220483885434724732623487,5664.0,1.49687326220483885434724732623487
120,5761.09855901582050208597735030133019,5759.6,1.49855901582050208597735030133019
121,5857.50023076531256487853332833370036,5856.0,1.50023076531256487853332833370036
122,5954.70188874152161005939194761160709,5953.2,1.50188874152161005939194761160709
123,6052.70353316962572054769227268327122,6051.2,1.50353316962572054769227268327122
124,6151.50516426932422234993428345626068,6150.0,1.50516426932422234993428345626068
125,6251.10678225501403148734411467903109,6249.6,1.50678225501403148734411467903109
126,6351.50838733595896118880724960800941,6350.0,1.50838733595896118880724960800941
127,6452.70997971645232510528460875594807,6451.2,1.50997971645232510528460875594807
128,6554.71155959597314971443657480187751,6553.2,1.51155959597314971443657480187751
129,6657.51312716933629701094190906356908,6656.0,1.51312716933629701094190906356908
130,6761.11468262683678019613122144694409,6759.6,1.51468262683678019613122144694409
131,6865.51622615438853967643660051795852,6864.0,1.51622615438853967643660051795852
132,6970.71775793365793170295818547587560,6969.2,1.51775793365793170295818547587560
133,7076.71927814219217020286456797791712,7075.2,1.51927814219217020286456797791712
134,7183.52078695354295107738495962813124,7182.0,1.52078695354295107738495962813124
135,7291.12228453738547013280864091852077,7289.6,1.52228453738547013280864091852077
136,7399.52377105963304212337686046879323,7398.0,1.52377105963304212337686046879323
137,7508.72524668254751507700867612558632,7507.2,1.52524668254751507700867612558632
138,7618.72671156484566046281172660890662,7617.2,1.52671156484566046281172660890662
139,7729.52816586180171765342324593802898,7728.0,1.52816586180171765342324593802898
140,7841.12960972534625568925839013679426,7839.6,1.52960972534625568925839013679426
141,7953.53104330416151079425299469967759,7952.0,1.53104330416151079425299469967759
142,8066.73246674377335001942074749668932,8065.2,1.53246674377335001942074749668932
143,8180.73388018664000274037557331182007,8179.2,1.53388018664000274037557331182007
144,8295.53528377223769455533290471932660,8294.0,1.53528377223769455533290471932660
145,8411.13667763714331394234456255869673,8409.6,1.53667763714331394234456255869673
146,8527.53806191511423416577093385730451,8526.0,1.53806191511423416577093385730451
147,8644.73943673716540471902817000664600,8643.2,1.53943673716540471902817000664600
148,8762.74080223164382763261481717837856,8761.2,1.54080223164382763261481717837856
149,8881.54215852430052044834794914738754,8880.0,1.54215852430052044834794914738754
150,9001.14350573836006950066174098058748,8999.6,1.54350573836006950066174098058748
151,9121.54484399458786941919758972524342,9120.0,1.54484399458786941919758972524342
152,9242.74617341135513915183028137864936,9241.2,1.54617341135513915183028137864936
153,9364.74749410470180345779800628516721,9363.2,1.54749410470180345779800628516721
154,9487.54880618839732377015208270687837,9486.0,1.54880618839732377015208270687837
155,9611.15010977399955666349236512864801,9609.6,1.55010977399955666349236512864801
156,9735.55140497091171779332434124475185,9734.0,1.55140497091171779332434124475185
157,9860.75269188643752235361388969900899,9859.2,1.55269188643752235361388969900899
158,9986.75397062583457387061309418217318,9985.2,1.55397062583457387061309418217318
159,10113.5552412923660650057626230129615,10112.0,1.5552412923660650057626230129615
160,10241.1565039873508567051803951252108,10239.6,1.5565039873508567051803951252108
161,10369.5577588102119941918275225062211,10368.0,1.5577588102119941918275225062211
162,10498.7590058585237192614229365519059,10497.2,1.5590058585237192614229365519059
163,10628.7602452280570337353760349586145,10627.2,1.5602452280570337353760349586145
164,10759.5614770128238687073023219639901,10758.0,1.5614770128238687073023219639901
165,10891.1627013051199081833096907701115,10889.6,1.5627013051199081833096907701115
166,11023.5639181955661176316140856259096,11022.0,1.5639181955661176316140856259096
167,11156.7651277731490246737739798234742,11155.2,1.5651277731490246737739798234742
168,11290.7663301252597946064271379018125,11289.2,1.5663301252597946064271379018125
169,11425.5675253377321458155902441452113,11424.0,1.5675253377321458155902441452113
170,11561.1687134948791448266070371130267,11559.6,1.5687134948791448266070371130267
171,11697.5698946795289211841757053751220,11696.0,1.5698946795289211841757053751220
172,11834.7710689730593400290833612294921,11833.2,1.5710689730593400290833612294921
173,11972.7722364554316677739482918279656,11971.2,1.5722364554316677739482918279656
174,12111.5733972052232667214538476801615,12110.0,1.5733972052232667214538476801615
175,12251.1745512996593526099768912437480,12249.6,1.5745512996593526099768912437480
176,12391.5756988146438447929334229560457,12390.0,1.5756988146438447929334229560457
177,12532.7768398247893423123487489533615,12531.2,1.5768398247893423123487489533615
178,12674.7779744034462550210181582535799,12673.2,1.5779744034462550210181582535799
179,12817.5791026227311161981737052956510,12816.0,1.5791026227311161981737052956510
180,12961.1802245535541076050258032440214,12959.6,1.5802245535541076050258032440214
181,13105.5813402656458196287354540496705,13104.0,1.5813402656458196287354540496705
182,13250.7824498275832742101722089633919,13249.2,1.5824498275832742101722089633919
183,13396.7835533068152336047014410513258,13395.2,1.5835533068152336047014410513258
184,13543.5846507696868192175065159691466,13542.0,1.5846507696868192175065159691466
185,13691.1857422814634623215387064546180,13689.6,1.5857422814634623215387064546180
186,13839.5868279063542076266836454993782,13838.0,1.5868279063542076266836454993782
187,13988.7879077075343935006109505086184,13987.2,1.5879077075343935006109505086184
188,14138.7889817471677242775907054118989,14137.2,1.5889817471677242775907054118989
189,14289.5900500864277583863334897030628,14288.0,1.5900500864277583863334897030628
190,14441.1911127855188279478975998313287,14439.6,1.5911127855188279478975998313287
191,14593.5921699036964090661808380424759,14592.0,1.5921699036964090661808380424759
192,14746.7932214992869591931647155352300,14745.2,1.5932214992869591931647155352300
193,14900.7942676297072398727232880405240,14899.2,1.5942676297072398727232880405240
194,15055.5953083514831382037428911671929,15054.0,1.5953083514831382037428911671929
195,15211.1963437202680049548745678107732,15209.6,1.5963437202680049548745678107732
196,15367.5973737908605230227816205602599,15366.0,1.5973737908605230227816205602599
197,15524.7983986172221206091652837351116,15523.2,1.5983986172221206091652837351116
198,15682.7994182524939432785093604666791,15681.2,1.5994182524939432785093604666791
199,15841.6004327490133977303590894294388,15840.0,1.6004327490133977303590894294388
200,16001.2014421583302812262949004839304,15999.6,1.6014421583302812262949004839304
201,16161.6024465312225076479796146178780,16160.0,1.6024465312225076479796146178780
202,16322.8034459177114435623900832006255,16321.2,1.6034459177114435623900832006255
203,16484.8044403670768649489150396053189,16483.2,1.6044403670768649489150396053189
204,16647.6054299278715462031803611519199,16646.0,1.6054299278715462031803611519199
205,16811.2064146479354913829134720480508,16809.6,1.6064146479354913829134720480508
206,16975.6073945744098207145434930694696,16974.0,1.6073945744098207145434930694696
207,17140.8083697537503182311623222399087,17139.2,1.6083697537503182311623222399087
208,17306.8093402317406547632509866622886,17305.2,1.6093402317406547632509866622886
209,17473.6103060535052920249985008612153,17472.0,1.6103060535052920249985008612153
210,17641.2112672635220792918119689256746,17639.6,1.6112672635220792918119689256746
211,17809.6122239056345500279740389828194,17808.0,1.6122239056345500279740389828194
212,17978.8131760230639286915694394543399,17977.2,1.6131760230639286915694394543399
213,18148.8141236584208520945682029383972,18147.2,1.6141236584208520945682029383972
214,18319.6150668537168202937488245397931,18318.0,1.6150668537168202937488245397931
215,18491.2160056503753762186856365451040,18489.6,1.6160056503753762186856365451040
216,18663.6169400892430279912505876065461,18662.0,1.6169400892430279912505876065461
217,18836.8178702105999178956644954310413,18835.2,1.6178702105999178956644954310413
218,19010.8187960541702469715403027724356,19009.2,1.6187960541702469715403027724356
219,19185.6197176591324585028468234395871,19184.0,1.6197176591324585028468234395871
220,19361.2206350641291929109132580769950,19359.6,1.6206350641291929109132580769950
221,19537.6215483072770119537565729314748,19536.0,1.6215483072770119537565729314748
222,19714.8224574261759094290895284520970,19713.2,1.6224574261759094290895284520970
223,19892.8233624579186019418325858156464,19891.2,1.6233624579186019418325858156464
224,20071.6242634390996147954199498020628,20070.0,1.6242634390996147954199498020628
225,20251.2251604058241655634341413959588,20249.6,1.6251604058241655634341413959588
226,20431.6260533937168488795017625580204,20430.0,1.6260533937168488795017625580204
227,20612.8269424379301310882886525351884,20611.2,1.6269424379301310882886525351884
228,20794.8278275731526565677854071993813,20793.2,1.6278275731526565677854071993813
229,20977.6287088336173728750182080517699,20976.0,1.6287088336173728750182080517699
230,21161.2295862531094794014129322849876,21159.6,1.6295862531094794014129322849876
231,21345.6304598649742013270665384675119,21344.0,1.6304598649742013270665384675119
232,21530.8313297021243992828299401018052,21529.2,1.6313297021243992828299401018052
233,21716.8321957970480097056900870786934,21715.2,1.6321957970480097056900870786934
234,21903.6330581818153320335002777750375,21902.0,1.6330581818153320335002777750375
235,22091.2339168880861559101417223567470,22089.6,1.6339168880861559101417223567470
236,22279.6347719471167380998673958724918,22278.0,1.6347719471167380998673958724918
237,22468.8356233897666327309377381049091,22467.2,1.6356233897666327309377381049091
238,22658.8364712465053765995413909229051,22657.2,1.6364712465053765995413909229051
