Eigenstate,Energy,Kinetic Energy,Potential Energy
1,0.500000000106255508464927779032491443,0.0,0.500000000106255508464927779032491443
2,1.84623093834469730908690662854852136,1.2,0.64623093834469730908690662854852136
3,3.93633761174232825661695159964762359,3.2,0.73633761174232825661695159964762359
4,6.79966528205783875867509871348240474,6.0,0.79966528205783875867509871348240474
5,10.4480465826365291897947263720765739,9.6,0.8480465826365291897947263720765739
6,14.8870660082451463656278531784724049,14.0,0.8870660082451463656278531784724049
7,20.1197208403275575882283750524284432,19.2,0.9197208403275575882283750524284432
8,26.1477838652637525066861064319928199,25.2,0.9477838652637525066861064319928199
9,32.9723835820618250555635248951411232,32.0,0.9723835820618250555635248951411232
10,40.5942802448715415625884654271612174,39.6,0.9942802448715415625884654271612174
11,49.0140094238348018792283128625440067,48.0,1.0140094238348018792283128625440067
12,58.2319622142569096329691224675036216,57.2,1.0319622142569096329691224675036216
13,68.2484327462042394969808280826916398,67.2,1.0484327462042394969808280826916398
14,79.0636477173604421578900661320537027,78.0,1.0636477173604421578900661320537027
15,90.6777855088406554124889829033750037,89.6,1.0777855088406554124889829033750037
16,103.090988990061965770724247981597703,102.0,1.090988990061965770724247981597703
17,116.303374352204923654146233720332925,115.2,1.103374352204923654146233720332925
18,130.315037359219750237450801975241057,129.2,1.115037359219750237450801975241057
19,145.126057870930320222513057388107752,144.0,1.126057870930320222513057388107752
20,160.736503180668101970262189627233211,159.6,1.136503180668101970262189627233211
21,177.146430521353857373162156625064674,176.0,1.146430521353857373162156625064674
22,194.355888976656383992616375464468924,193.2,1.155888976656383992616375464468924
23,212.364920958929041230955709682314166,211.2,1.164920958929041230955709682314166
24,231.173563366610173657346801389889799,230.0,1.173563366610173657346801389889799
25,250.781848501019038311036902612540090,249.6,1.181848501019038311036902612540090
26,271.189804800163393175104075323526826,270.0,1.189804800163393175104075323526826
27,292.397457431702073594034730315715923,291.2,1.197457431702073594034730315715923
28,314.404828776304032586612013078676187,313.2,1.204828776304032586612013078676187
29,337.211938824850293175286396598051779,336.0,1.211938824850293175286396598051779
30,360.818805507275773277708606991938756,359.6,1.218805507275773277708606991938756
31,385.225444966702005201611503551994523,384.0,1.225444966702005201611503551994523
32,410.431871789433872196317941500976465,409.2,1.231871789433872196317941500976465
33,436.438099199083836707701557449549869,435.2,1.238099199083836707701557449549869
34,463.244139221336588715566971381640646,462.0,1.244139221336588715566971381640646
35,490.850002824527847465455796048837527,489.6,1.250002824527847465455796048837527
36,519.255700040177571027396117308076617,518.0,1.255700040177571027396117308076617
37,548.461240066813743564890861329606717,547.2,1.261240066813743564890861329606717
38,578.466631359792491453763484066698800,577.2,1.266631359792491453763484066698800
39,609.271881709322430740550996266019105,608.0,1.271881709322430740550996266019105
40,640.876998308505327646271773616703591,639.6,1.276998308505327646271773616703591
41,673.281987812888403547427072892076832,672.0,1.281987812888403547427072892076832
42,706.486856392768623264395852107179453,705.2,1.286856392768623264395852107179453
43,740.491609779282819142312895182664888,739.2,1.291609779282819142312895182664888
44,775.296253305149409393894274563887057,774.0,1.296253305149409393894274563887057
45,810.900791940789899604580282337095426,809.6,1.300791940789899604580282337095426
46,847.305230326445220017694573406554952,846.0,1.305230326445220017694573406554952
47,884.509572800808474604923868975772499,883.2,1.309572800808474604923868975772499
48,922.513823426618091563123792178082129,921.2,1.313823426618091563123792178082129
49,961.317986013590702334518116744269095,960.0,1.317986013590702334518116744269095
50,1000.92206413901895353367141124704955,999.6,1.32206413901895353367141124704955
51,1041.32606116631398920211463085618337,1040.0,1.32606116631398920211463085618337
52,1082.52998026173399559718023206640448,1081.2,1.32998026173399559718023206640448
53,1124.53382440950775060303805700263723,1123.2,1.33382440950775060303805700263723
54,1167.33759642553455872045094824617182,1166.0,1.33759642553455872045094824617182
55,1210.94129896981847709924349024433367,1209.6,1.34129896981847709924349024433367
56,1255.34493455777466350734069902412794,1254.0,1.34493455777466350734069902412794
57,1300.54850557052847816510467893728800,1299.2,1.34850557052847816510467893728800
58,1346.55201426431317418739860137294119,1345.2,1.35201426431317418739860137294119
59,1393.35546277905925742852452250501120,1392.0,1.35546277905925742852452250501120
60,1440.95885314625757201747408325718560,1439.6,1.35885314625757201747408325718560
61,1489.36218729616860364342115699499622,1488.0,1.36218729616860364342115699499622
62,1538.56546706444219164626800663152276,1537.2,1.36546706444219164626800663152276
63,1588.56869419820459907803196543575979,1587.2,1.36869419820459907803196543575979
64,1639.37187036166357742093461059463691,1638.0,1.37187036166357742093461059463691
65,1690.97499714127652780808004469709225,1689.6,1.37499714127652780808004469709225
66,1743.37807605052201325355214456198956,1742.0,1.37807605052201325355214456198956
67,1796.58110853431061410743304673954832,1795.2,1.38110853431061410743304673954832
68,1850.58409597306736279043484091682112,1849.2,1.38409597306736279043484091682112
69,1905.38703968651468119210838768165480,1904.0,1.38703968651468119210838768165480
70,1960.98994093718181584832719842144050,1959.6,1.38994093718181584832719842144050
71,2017.39280093366416731001322387016795,2016.0,1.39280093366416731001322387016795
72,2074.59562083365361187268935129106802,2073.2,1.39562083365361187268935129106802
73,2132.59840174675886083004033359772583,2131.2,1.39840174675886083004033359772583
74,2191.40114473713308356610948736959946,2190.0,1.40114473713308356610948736959946
75,2251.00385082592438969965561330022882,2249.6,1.40385082592438969965561330022882
76,2311.40652099356331593743818323175897,2310.0,1.40652099356331593743818323175897
77,2372.60915618190016089478101008821010,2371.2,1.40915618190016089478101008821010
78,2434.61175729620384534358366787796074,2433.2,1.41175729620384534358366787796074
79,2497.41432520703292852795762138323690,2496.0,1.41432520703292852795762138323690
80,2561.01686075198847306201903252400783,2559.6,1.41686075198847306201903252400783
81,2625.41936473735760158289405225022475,2624.0,1.41936473735760158289405225022475
82,2690.62183793965582688143825695127639,2689.2,1.42183793965582688143825695127639
83,2756.62428110707554849938229288546420,2755.2,1.42428110707554849938229288546420
84,2823.42669496084748448989982338815218,2822.0,1.42669496084748448989982338815218
85,2891.02908019652124776242000838715749,2889.6,1.42908019652124776242000838715749
86,2959.43143748517076056711743099442440,2958.0,1.43143748517076056711743099442440
87,3028.63376747452974320371293596729596,3027.2,1.43376747452974320371293596729596
88,3098.63607079006208966148272742856677,3097.2,1.43607079006208966148272742856677
89,3169.43834803597155939521213508209199,3168.0,1.43834803597155939521213508209199
90,3241.04059979615487122510098792569366,3239.6,1.44059979615487122510098792569366
91,3313.44282663510196389657759200909656,3312.0,1.44282663510196389657759200909656
92,3386.64502909874689953843835144915654,3385.2,1.44502909874689953843835144915654
93,3460.64720771527262400267594402658553,3459.2,1.44720771527262400267594402658553
94,3535.44936299587255514061993985165083,3534.0,1.44936299587255514061993985165083
95,3611.05149543547174891598572608569083,3609.6,1.45149543547174891598572608569083
96,3687.45360551341019143331101938807470,3686.0,1.45360551341019143331101938807470
97,3764.65569369409058061815034987154127,3763.2,1.45569369409058061815034987154127
98,3842.65776042759278841110276801575958,3841.2,1.45776042759278841110276801575958
99,3921.45980615025704086556028399977516,3920.0,1.45980615025704086556028399977516
100,4001.06183128523770719864751014616149,3999.6,1.46183128523770719864751014616149
101,4081.46383624302945954067010275959703,4080.0,1.46383624302945954067010275959703
102,4162.66582142196743955366782799008611,4161.2,1.46582142196743955366782799008611
103,4244.66778720870296017605598930814535,4243.2,1.46778720870296017605598930814535
104,4327.46973397865616348562936678722055,4326.0,1.46973397865616348562936678722055
105,4411.07166209644696259944534401779167,4409.6,1.47166209644696259944534401779167
106,4495.47357191630550476486012842631110,4494.0,1.47357191630550476486012842631110
107,4580.67546378246331471403714412017704,4579.2,1.47546378246331471403714412017704
108,4666.67733802952619811469212447135966,4665.2,1.47733802952619811469212447135966
109,4753.47919498282991635630631653922413,4752.0,1.47919498282991635630631653922413
110,4841.08103495877958149091397884158907,4839.6,1.48103495877958149091397884158907
111,4929.48285826517365428637266383446198,4928.0,1.48285826517365428637266383446198
112,5018.68466520151337891639176461014555,5017.2,1.48466520151337891639176461014555
113,5108.68645605929843227580077649089080,5107.2,1.48645605929843227580077649089080
114,5199.48823112230951715178348002015048,5198.0,1.48823112230951715178348002015048
115,5291.08999066687858803330145334195032,5289.6,1.48999066687858803330145334195032
116,5383.49173496214735000928316031452194,5382.0,1.49173496214735000928316031452194
117,5476.69346427031463949314833214246560,5475.2,1.49346427031463949314833214246560
118,5570.69517884687325448013225515546422,5569.2,1.49517884687325448013225515546422
119,5665.49687894083676833015876738452665,5664.0,1.49687894083676833015876738452665
120,5761.09856479495683522677675139655971,5759.6,1.49856479495683522677675139655971
121,5857.50023664593145719543043536408619,5856.0,1.50023664593145719543043536408619
122,5954.70189472460466365120221867510890,5953.2,1.50189472460466365120221867510890
123,6052.70353925615802225323502019929385,6051.2,1.50353925615802225323502019929385
124,6151.50517046029438216323293065837682,6150.0,1.50517046029438216323293065837682
125,6251.10678855141422123917679371304782,6249.6,1.50678855141422123917679371304782
126,6351.50839373878495349809404428110756,6350.0,1.50839373878495349809404428110756
127,6452.70998622670353260383614970507729,6451.2,1.50998622670353260383614970507729
128,6554.71156621465266454862836325885017,6553.2,1.51156621465266454862836325885017
129,6657.51313389745093062391827509720472,6656.0,1.51313389745093062391827509720472
130,6761.11468946539710339418337151006899,6759.6,1.51468946539710339418337151006899
131,6865.51623310440892298324028662378405,6864.0,1.51623310440892298324028662378405
132,6970.71776499615658600539868048873342,6969.2,1.51776499615658600539868048873342
133,7076.71928531819118769221801626864378,7075.2,1.51928531819118769221801626864378
134,7183.52079424406834648966934554810623,7182.0,1.52079424406834648966934554810623
135,7291.12229194346722229216070386374565,7289.6,1.52229194346722229216070386374565
136,7399.52377858230513579235544213612079,7398.0,1.52377858230513579235544213612079
137,7508.72525432284798311777082930631568,7507.2,1.52525432284798311777082930631568
138,7618.72671932381662631315304196844134,7617.2,1.52671932381662631315304196844134
139,7729.52817374048943812172049987602943,7728.0,1.52817374048943812172049987602943
140,7841.12961772480116407240014816815857,7839.6,1.52961772480116407240014816815857
141,7953.53105142543826032269112341802344,7952.0,1.53105142543826032269112341802344
142,8066.73247498793085763352513129652625,8065.2,1.53247498793085763352513129652625
143,8180.73388855474149320232339653632736,8179.2,1.53388855474149320232339653632736
144,8295.53529226535074490081436472294861,8294.0,1.53529226535074490081436472294861
145,8411.13668625633989827641753799759446,8409.6,1.53668625633989827641753799759446
146,8527.53807066147076880724933354039882,8526.0,1.53807066147076880724933354039882
147,8644.73944561176279369784125824620547,8643.2,1.53944561176279369784125824620547
148,8762.74081123556750854462777292916383,8761.2,1.54081123556750854462777292916383
149,8881.54216765864051067218920844856635,8880.0,1.54216765864051067218920844856635
150,9001.14351500421101278115653046361998,8999.6,1.54351500421101278115653046361998
151,9121.54485339304908282206452509471565,9120.0,1.54485339304908282206452509471565
152,9242.74618294353066039435349091401345,9241.2,1.54618294353066039435349091401345
153,9364.74750377170043862024606695177340,9363.2,1.54750377170043862024606695177340
154,9487.54881599133269539277286478387139,9486.0,1.54881599133269539277286478387139
155,9611.15011971399015223397318384230675,9609.6,1.55011971399015223397318384230675
156,9735.55141504908093862966752375274555,9734.0,1.55141504908093862966752375274555
157,9860.75270210391373288743845215153506,9859.2,1.55270210391373288743845215153506
158,9986.75398098375115133595685016015176,9985.2,1.55398098375115133595685016015176
159,10113.5552517918614495385217971578912,10112.0,1.5552517918614495385217971578912
160,10241.1565146295686018583886896595257,10239.6,1.5565146295686018583886896595257
161,10369.5577695963008178720419625217121,10368.0,1.5577695963008178720419625217121
162,10498.7590167896375550915508354437506,10497.2,1.5590167896375550915508354437506
163,10628.7602563053550828493438849098353,10627.2,1.5602563053550828493438849098353
164,10759.5614882374706519820377308013261,10758.0,1.5614882374706519820377308013261
165,10891.1627126782853189135762749007391,10889.6,1.5627126782853189135762749007391
166,11023.5639297184254746533102790533366,11022.0,1.5639297184254746533102790533366
167,11156.7651394468831259413788878311856,11155.2,1.5651394468831259413788878311856
168,11290.7663419510549712303500127178214,11289.2,1.5663419510549712303500127178214
169,11425.5675373167803165652541506164068,11424.0,1.5675373167803165652541506164068
170,11561.1687256283778711051732401667737,11559.6,1.5687256283778711051732401667737
171,11697.5699069686814624808917335318075,11696.0,1.5699069686814624808917335318075
172,11834.7710814190747098553162334049525,11833.2,1.5710814190747098553162334049525
173,11972.7722490595246900890427340109101,11971.2,1.5722490595246900890427340109101
174,12111.5734099686146328546374404432544,12110.0,1.5734099686146328546374404432544
175,12251.1745642235756786846144178406084,12249.6,1.5745642235756786846144178406084
176,12391.5757119003177296595169974792325,12390.0,1.5757119003177296595169974792325
177,12532.7768530734594259966941077725733,12531.2,1.5768530734594259966941077725733
178,12674.7779878163572776942237292511426,12673.2,1.5779878163572776942237292511426
179,12817.5791162011339776749864946814383,12816.0,1.5791162011339776749864946814383
180,12961.1802382987059273773470043138100,12959.6,1.5802382987059273773470043138100
181,13105.5813541788099974410879889354679,13104.0,1.5813541788099974410879889354679
182,13250.7824639100295511840451811769929,13249.2,1.5824639100295511840451811769929
183,13396.7835675598197539187789037255491,13395.2,1.5835675598197539187789037255491
184,13543.5846651945321923508828897167321,13542.0,1.5846651945321923508828897167321
185,13691.1857568794388258671201038895197,13689.6,1.5857568794388258671201038895197
186,13839.5868426787552906820698827002213,13838.0,1.5868426787552906820698827002213
187,13988.7879226556635806438554404623760,13987.2,1.5879226556635806438554404623760
188,14138.7889968723341201353344030965462,14137.2,1.5889968723341201353344030965462
189,14289.5900653899472528019124993945790,14288.0,1.5900653899472528019124993945790
190,14441.1911282687141617571281846568867,14439.6,1.5911282687141617571281846568867
191,14593.5921855678972404886322385718498,14592.0,1.5921855678972404886322385718498
192,14746.7932373458299308468374987032004,14745.2,1.5932373458299308468374987032004
193,14900.7942836599360464201610553808711,14899.2,1.5942836599360464201610553808711
194,15055.5953245667485946377160740941811,15054.0,1.5953245667485946377160740941811
195,15211.1963601219281155318894351713417,15209.6,1.5963601219281155318894351713417
196,15367.5973903802805508527816048910555,15366.0,1.5973903802805508527816048910555
197,15524.7984153957746579099101700399862,15523.2,1.5984153957746579099101700399862
198,15682.7994352215589823032357620241651,15681.2,1.5994352215589823032357620241651
199,15841.6004499099784023774482148839483,15840.0,1.6004499099784023774482148839483
200,16001.2014595125902593397955048493116,15999.6,1.6014595125902593397955048493116
201,16161.6024640801800840179593998448422,16160.0,1.6024640801800840179593998448422
202,16322.8034636627769336342177866381472,16321.2,1.6034636627769336342177866381472
203,16484.8044583096683492507022752958818,16483.2,1.6044583096683492507022752958818
204,16647.6054480694149455007465195738115,16646.0,1.6054480694149455007465195738115
205,16811.2064329898646425717688701270437,16809.6,1.6064329898646425717688701270437
206,16975.6074131181665534585237977678943,16974.0,1.6074131181665534585237977678943
207,17140.8083885007845323574847604401855,17139.2,1.6083885007845323574847604401855
208,17306.8093591835103984239038227327112,17305.2,1.6093591835103984239038227327112
209,17473.6103252114768406345194129053864,17472.0,1.6103252114768406345194129053864
210,17641.2112866291700152516553604074151,17639.6,1.6112866291700152516553604074151
211,17809.6122434804418432478164346786070,17808.0,1.6122434804418432478164346786070
212,17978.8131958085220179180524425130650,17977.2,1.6131958085220179180524425130650
213,18148.8141436560297270581326213359378,18147.2,1.6141436560297270581326213359378
214,18319.6150870649851046843682500503853,18318.0,1.6150870649851046843682500503853
215,18491.2160260768204115014677755979266,18489.6,1.6160260768204115014677755979266
216,18663.6169607323909580730351833590308,18662.0,1.6169607323909580730351833590308
217,18836.8178910719857746539115343282455,18835.2,1.6178910719857746539115343282455
218,19010.8188171353380366569683014415840,19009.2,1.6188171353380366569683014415840
219,19185.6197389616352490274525918355973,19184.0,1.6197389616352490274525918355973
220,19361.2206565895292020331759098326824,19359.6,1.6206565895292020331759098326824
221,19537.6215700571456963730054887372807,19536.0,1.6215700571456963730054887372807
222,19714.8224794020940548011942755955580,19713.2,1.6224794020940548011942755955580
223,19892.8233846614764138285561034393482,19891.2,1.6233846614764138285561034393482
224,20071.6242858718968105599602876881119,20070.0,1.6242858718968105599602876881119
225,20251.2251830694700672248699126236646,20249.6,1.6251830694700672248699126236646
226,20431.6260762898304769390481122879380,20430.0,1.6260762898304769390481122879380
227,20612.8269655681402993404649831176431,20611.2,1.6269655681402993404649831176431
228,20794.8278509390980679097966160703764,20793.2,1.6278509390980679097966160703764
229,20977.6287324369467161278523644082777,20976.0,1.6287324369467161278523644082777
230,21161.2296100954815271563642951052990,21159.6,1.6296100954815271563642951052990
231,21345.6304839480579088316032172293754,21344.0,1.6304839480579088316032172293754
232,21530.8313540275990043799383867000320,21529.2,1.6313540275990043799383867000320
233,21716.8322203666031338410453686621064,21715.2,1.6322203666031338410453686621064
234,21903.6330829971510823450334855337246,21902.0,1.6330829971510823450334855337246
235,22091.2339419509132284147994362957487,22089.6,1.6339419509132284147994362957487
236,22279.6347972591565219925880753639602,22278.0,1.6347972591565219925880753639602
237,22468.8356489527513158111033156467290,22467.2,1.6356489527513158111033156467290
238,22658.8364970621780518403993140421811,22657.2,1.6364970621780518403993140421811
