Eigenstate,Energy,Kinetic Energy,Potential Energy
1,0.500000000136521965656418380045413978,0.0,0.500000000136521965656418380045413978
2,1.84623093854226273966835280834091369,1.2,0.64623093854226273966835280834091369
3,3.93633761232266884480167771245979854,3.2,0.73633761232266884480167771245979854
4,6.79966528326664498832483412453516652,6.0,0.79966528326664498832483412453516652
5,10.4480465847304798239287384239023444,9.6,0.8480465847304798239287384239023444
6,14.8870660114854446097554972980746391,14.0,0.8870660114854446097554972980746391
7,20.1197208449775544078043601559614742,19.2,0.9197208449775544078043601559614742
8,26.1477838715879600181264866124228699,25.2,0.9477838715879600181264866124228699
9,32.9723835903254619485628892282370040,32.0,0.9723835903254619485628892282370040
10,40.5942802553403062504869264363879238,39.6,0.9942802553403062504869264363879238
11,49.0140094367747528592827004795254486,48.0,1.0140094367747528592827004795254486
12,58.2319622299344004851112521575613242,57.2,1.0319622299344004851112521575613242
13,68.2484327648858836339785814753309559,67.2,1.0484327648858836339785814753309559
14,79.0636477393130947035723597987738114,78.0,1.0636477393130947035723597987738114
15,90.6777855343314054191785084405673357,89.6,1.0777855343314054191785084405673357
16,103.090989019358134937509524277367712,102.0,1.090989019358134937509524277367712
17,116.303374385574069280208250993500670,115.2,1.103374385574069280208250993500670
18,130.315037396929671021940337354123374,129.2,1.115037396929671021940337354123374
19,145.126057913249064031776030399759438,144.0,1.126057913249064031776030399759438
20,160.736503227863974999442741574927563,159.6,1.136503227863974999442741574927563
21,177.146430573695434319160371013308762,176.0,1.146430573695434319160371013308762
22,194.355889034412518976508981900559102,193.2,1.155889034412518976508981900559102
23,212.364921022368879287179438072381342,211.2,1.164921022368879287179438072381342
24,231.173563436003162659889508115342056,230.0,1.173563436003162659889508115342056
25,250.781848576634941243005179406365129,249.6,1.181848576634941243005179406365129
26,271.189804882272300673141374685933327,270.0,1.189804882272300673141374685933327
27,292.397457520574416716808352093512909,291.2,1.197457520574416716808352093512909
28,314.404828872210595769324100825228890,313.2,1.204828872210595769324100825228890
29,337.211938928062227341437398085906289,336.0,1.211938928062227341437398085906289
30,360.818805618064609086182438380218379,359.6,1.218805618064609086182438380218379
31,385.225445085339666412259805949676973,384.0,1.225445085339666412259805949676973
32,410.431871916192689141078426445419528,409.2,1.231871916192689141078426445419528
33,436.438099334236559857229656727517081,435.2,1.238099334236559857229656727517081
34,463.244139365156402333629297680825319,462.0,1.244139365156402333629297680825319
35,490.850002977288383345099357663528254,489.6,1.250002977288383345099357663528254
36,519.255700202152922304292697897793635,518.0,1.255700202152922304292697897793635
37,548.461240238278478604352390274732566,547.2,1.261240238278478604352390274732566
38,578.466631541021667808798627423931446,577.2,1.266631541021667808798627423931446
39,609.271881900591609179035919956612914,608.0,1.271881900591609179035919956612914
40,640.876998510090586245876842683218443,639.6,1.276998510090586245876842683218443
41,673.281988025066351857404861082424168,672.0,1.281988025066351857404861082424168
42,706.486856615816416533716362953565945,705.2,1.286856615816416533716362953565945
43,740.491610013478172613946197769194669,739.2,1.291610013478172613946197769194669
44,775.296253550770612665302149499283984,774.0,1.296253550770612665302149499283984
45,810.900792198115831054697226045736935,809.6,1.300792198115831054697226045736935
46,847.305230595755361300862803671327484,846.0,1.305230595755361300862803671327484
47,884.509573082382925212403135189027743,883.2,1.309573082382925212403135189027743
48,922.513823720737583452930162729350684,921.2,1.313823720737583452930162729350684
49,961.317986320536614630460386910248027,960.0,1.317986320536614630460386910248027
50,1000.92206445907332729455276639293125,999.6,1.32206445907332729455276639293125
51,1041.32606149975954226215346631286512,1040.0,1.32606149975954226215346631286512
52,1082.52998060885413747877957327602082,1081.2,1.32998060885413747877957327602082
53,1124.53382477058659750309974690331841,1123.2,1.33382477058659750309974690331841
54,1167.33759680085694857149017766602498,1166.0,1.33759680085694857149017766602498
55,1210.94129935966998470661238841465778,1209.6,1.34129935966998470661238841465778
56,1255.34493496244161576391773173775715,1254.0,1.34493496244161576391773173775715
57,1300.54850599029796934485021149090178,1299.2,1.34850599029796934485021149090178
58,1346.55201469947308131921707977067979,1345.2,1.35201469947308131921707977067979
59,1393.35546322989825575191057543646126,1392.0,1.35546322989825575191057543646126
60,1440.95885361306515052145421940772883,1439.6,1.35885361306515052145421940772883
61,1489.36218777923508069033489728226896,1488.0,1.36218777923508069033489728226896
62,1538.56546756405873068196266577301246,1537.2,1.36546756405873068196266577301246
63,1588.56869471466322443007405939665060,1587.2,1.36869471466322443007405939665060
64,1639.37187089525719018646838291285111,1638.0,1.37187089525719018646838291285111
65,1690.97499769229892183299015383292132,1689.6,1.37499769229892183299015383292132
66,1743.37807661926789120461305144370295,1742.0,1.37807661926789120461305144370295
67,1796.58110912107560363915253875740095,1795.2,1.38110912107560363915253875740095
68,1850.58409657814803280832337896407829,1849.2,1.38409657814803280832337896407829
69,1905.38704031020855821412991577617183,1904.0,1.38704031020855821412991577617183
70,1960.98994157978740046631027609941809,1959.6,1.38994157978740046631027609941809
71,2017.39280159548095075282478745751499,2016.0,1.39280159548095075282478745751499
72,2074.59562151498209267299618899083634,2073.2,1.39562151498209267299618899083634
73,2132.59840244790056159650642812279163,2131.2,1.39840244790056159650642812279163
74,2191.40114545839056786290003620807449,2190.0,1.40114545839056786290003620807449
75,2251.00385156760127903514151909642256,2249.6,1.40385156760127903514151909642256
76,2311.40652175596430686401749460326808,2310.0,1.40652175596430686401749460326808
77,2372.60915696533104222175686808881775,2371.2,1.40915696533104222175686808881775
78,2434.61175810097151546506132778746804,2433.2,1.41175810097151546506132778746804
79,2497.41432603344541286774646846626347,2496.0,1.41432603344541286774646846626347
80,2561.01686160035494163754872383564148,2559.6,1.41686160035494163754872383564148
81,2625.41936560798838669017783997783857,2624.0,1.41936560798838669017783997783857
82,2690.62183883286244090314012101256915,2689.2,1.42183883286244090314012101256915
83,2756.62428202317070183806906758354463,2755.2,1.42428202317070183806906758354463
84,2823.42669590014510362858362358108028,2822.0,1.42669590014510362858362358108028
85,2891.02908115933649345452128266565267,2889.6,1.42908115933649345452128266565267
86,2959.43143847182004615800390932872345,2958.0,1.43143847182004615800390932872345
87,3028.63376848533075308599535236515709,3027.2,1.43376848533075308599535236515709
88,3098.63607182533379786627399727445879,3097.2,1.43607182533379786627399727445879
89,3169.43834909603424832158278760361177,3168.0,1.43834909603424832158278760361177
90,3241.04060088133015050999039230325752,3239.6,1.44060088133015050999039230325752
91,3313.44282774571278942744753354845732,3312.0,1.44282774571278942744753354845732
92,3386.64503023511759261098297191278495,3385.2,1.44503023511759261098297191278495
93,3460.64720887772889062592992263773926,3459.2,1.44720887772889062592992263773926
94,3535.44936418474150549183527835967257,3534.0,1.44936418474150549183527835967257
95,3611.05149665108191694767624404438974,3609.6,1.45149665108191694767624404438974
96,3687.45360675609155463489284819187617,3686.0,1.45360675609155463489284819187617
97,3764.65569496417457993463702191537657,3763.2,1.45569496417457993463702191537657
98,3842.65776172541234832134312721287636,3841.2,1.45776172541234832134312721287636
99,3921.45980747614658962253884906964252,3920.0,1.45980747614658962253884906964252
100,4001.06183263953319723439802572811505,3999.6,1.46183263953319723439802572811505
101,4081.46383762606838803838495883523518,4080.0,1.46383762606838803838495883523518
102,4162.66582283408886918961847271890263,4161.2,1.46582283408886918961847271890263
103,4244.66778865024754003397253221061250,4243.2,1.46778865024754003397253221061250
104,4327.46973544996615014622131986962411,4326.0,1.46973544996615014622131986962411
105,4411.07166359786624140777913313686534,4409.6,1.47166359786624140777913313686534
106,4495.47357344817961127834460745095596,4494.0,1.47357344817961127834460745095596
107,4580.67546534513945633380301711372779,4579.2,1.47546534513945633380301711372779
108,4666.67733962335327590318752016070283,4665.2,1.47733962335327590318752016070283
109,4753.47919660815854704396760762495462,4752.0,1.47919660815854704396760762495462
110,4841.08103661596211967480794682503527,4839.6,1.48103661596211967480794682503527
111,4929.48285995456421482374421276102246,4928.0,1.48285995456421482374421276102246
112,5018.68466692346785951609021877072055,5017.2,1.48466692346785951609021877072055
113,5108.68645781417453629059692863850134,5107.2,1.48645781417453629059692863850134
114,5199.48823291046677657462953316725647,5198.0,1.48823291046677657462953316725647
115,5291.08999248867838670062720301031149,5289.6,1.48999248867838670062720301031149
116,5383.49173681795294701446288353179557,5382.0,1.49173681795294701446288353179557
117,5476.69346616049119281331508242627174,5475.2,1.49346616049119281331508242627174
118,5570.69518077178784481955942732106956,5569.2,1.49518077178784481955942732106956
119,5665.49688090085842318347259498740903,5664.0,1.49688090085842318347259498740903
120,5761.09856679045655316530760447746232,5759.6,1.49856679045655316530760447746232
121,5857.50023867728223238005669350567950,5856.0,1.50023867728223238005669350567950
122,5954.70189679218151057508608803009066,5953.2,1.50189679218151057508608803009066
123,6052.70354136033800071789712297399717,6051.2,1.50354136033800071789712297399717
124,6151.50517260145662249145983249542213,6150.0,1.50517260145662249145983249542213
125,6251.10679072993994972830495407534792,6249.6,1.50679072993994972830495407534792
126,6351.50839595505751811726269101552212,6350.0,1.50839595505751811726269101552212
127,6452.70998848110842893885232840572163,6451.2,1.50998848110842893885232840572163
128,6554.71156850757756199813870388848635,6553.2,1.51156850757756199813870388848635
129,6657.51313622928569885063456947231084,6656.0,1.51313622928569885063456947231084
130,6761.11469183653383903496165033511795,6759.6,1.51469183653383903496165033511795
131,6865.51623551524197662186811572824674,6864.0,1.51623551524197662186811572824674
132,6970.71776744708258941200019736375763,6969.2,1.51776744708258941200019736375763
133,7076.71928780960908133324208268830715,7075.2,1.51928780960908133324208268830715
134,7183.52079677637940731248406827547638,7182.0,1.52079677637940731248406827547638
135,7291.12229451707509178833554287880040,7289.6,1.52229451707509178833554287880040
136,7399.52378119761584834377118513668340,7398.0,1.52378119761584834377118513668340
137,7508.72525698026999462975833030299723,7507.2,1.52525698026999462975833030299723
138,7618.72672202376084313892326140997783,7617.2,1.52672202376084313892326140997783
139,7729.52817648336924628241066422053854,7728.0,1.52817648336924628241066422053854
140,7841.12962051103245877712477918761946,7839.6,1.52962051103245877712477918761946
141,7953.53105425543947579305147408752578,7952.0,1.53105425543947579305147408752578
142,8066.73247786212299723709681456535364,8065.2,1.53247786212299723709681456535364
143,8180.73389147354815989970922852802788,8179.2,1.53389147354815989970922852802788
144,8295.53529522919817201091790361431141,8294.0,1.53529522919817201091790361431141
145,8411.13668926565698056466254829621515,8409.6,1.53668926565698056466254829621515
146,8527.53807371668909390154178343922869,8526.0,1.53807371668909390154178343922869
147,8644.73944871331667383714240116710320,8643.2,1.53944871331667383714240116710320
148,8762.74081438389401266508099035985417,8761.2,1.54081438389401266508099035985417
149,8881.54217085417949683581806574102631,8880.0,1.54217085417949683581806574102631
150,9001.14351824740516095222778466113326,8999.6,1.54351824740516095222778466113326
151,9121.54485668434392799628848279257690,9120.0,1.54485668434392799628848279257690
152,9242.74618628337462608617224074369243,9241.2,1.54618628337462608617224074369243
153,9364.74750716054487071354189627145819,9363.2,1.54750716054487071354189627145819
154,9487.54881942963189636041091312841452,9486.0,1.54881942963189636041091312841452
155,9611.15012320220141573167628329735559,9609.6,1.55012320220141573167628329735559
156,9735.55141858766458446980645898883120,9734.0,1.55141858766458446980645898883120
157,9860.75270569333314239840792967018697,9859.2,1.55270569333314239840792967018697
158,9986.75398462447280311289628941219835,9985.2,1.55398462447280311289628941219835
159,10113.5552554843549555912292034007419,10112.0,1.5552554843549555912292034007419
160,10241.1565183743067441623692866953574,10239.6,1.5565183743067441623692866953574
161,10369.5577733937595853287257603159883,10368.0,1.5577733937595853287257603159883
162,10498.7590206402961809038090008068141,10497.2,1.5590206402961809038090008068141
163,10628.7602602096960823185309194871167,10627.2,1.5602602096960823185309194871167
164,10759.5614921959798607328858263238129,10758.0,1.5614921959798607328858263238129
165,10891.1627166914519315533684555819051,10889.6,1.5627166914519315533684555819051
166,11023.5639337867420838718620496722634,11022.0,1.5639337867420838718620496722634
167,11156.7651435708457620584628101712653,11155.2,1.5651435708457620584628101712653
168,11290.7663461311631421973044825725836,11289.2,1.5663461311631421973044825725836
169,11425.5675415535370484276254595959905,11424.0,1.5675415535370484276254595959905
170,11561.1687299222897489333524183557018,11559.6,1.5687299222897489333524183557018
171,11697.5699113202586717758189521009596,11696.0,1.5699113202586717758189521009596
172,11834.7710858288310784364413265767102,11833.2,1.5710858288310784364413265767102
173,11972.7722535279777304718477306796883,11971.2,1.5722535279777304718477306796883
174,12111.5734144962855851251460971717280,12110.0,1.5734144962855851251460971717280
175,12251.1745688109895538784358281747937,12249.6,1.5745688109895538784358281747937
176,12391.5757165480033536530940500877260,12390.0,1.5757165480033536530940500877260
177,12532.7768577819494839185548337129028,12531.2,1.5768577819494839185548337129028
178,12674.7779925861883588641614214525397,12673.2,1.5779925861883588641614214525397
179,12817.5791210328466210792269259547564,12816.0,1.5791210328466210792269259547564
180,12961.1802431928446676878940852427433,12959.6,1.5802431928446676878940852427433
181,13105.5813591359234115875769701518345,13104.0,1.5813591359234115875769701518345
182,13250.7824689306703054865701852752722,13249.2,1.5824689306703054865701852752722
183,13396.7835726445446517903048702615175,13395.2,1.5835726445446517903048702615175
184,13543.5846703439022225779958107522758,13542.0,1.5846703439022225779958107522758
185,13691.1857620940192114780172802482238,13689.6,1.5857620940192114780172802482238
186,13839.5868479591155384108423542772211,13838.0,1.5868479591155384108423542772211
187,13988.7879280023775310002679361110652,13987.2,1.5879280023775310002679361110652
188,14138.7890022859799980894644961333739,14137.2,1.5890022859799980894644961333739
189,14289.5900708711077190931702452806059,14288.0,1.5900708711077190931702452806059
190,14441.1911338179763648373398096699279,14439.6,1.5911338179763648373398096699279
191,14593.5921911858528691090374026433391,14592.0,1.5921911858528691090374026433391
192,14746.7932430330752672990189588209838,14745.2,1.5932430330752672990189588209838
193,14900.7942894170720204410973562860134,14899.2,1.5942894170720204410973562860134
194,15055.5953303943808379893244334238407,15054.0,1.5953303943808379893244334238407
195,15211.1963660206670172656044299326157,15209.6,1.5963660206670172656044299326157
196,15367.5973963507413132698995354337168,15366.0,1.5973963507413132698995354337168
197,15524.7984214385773532286139177729177,15523.2,1.5984214385773532286139177729177
198,15682.7994413373286100434067419097877,15681.2,1.5994413373286100434067419097877
199,15841.6004560993449474745653402453336,15840.0,1.6004560993449474745653402453336
200,16001.2014657761887509994192173677777,15999.6,1.6014657761887509994192173677777
201,16161.6024704186506553225010632570364,16160.0,1.6024704186506553225010632570364
202,16322.8034700767648819139008712146216,16321.2,1.6034700767648819139008712146216
203,16484.8044647998241972308316878202847,16483.2,1.6044647998241972308316878202847
204,16647.6054546363945032376177903559569,16646.0,1.6054546363945032376177903559569
205,16811.2064396343290701897669865847566,16809.6,1.6064396343290701897669865847566
206,16975.6074198407824247011851277036490,16974.0,1.6074198407824247011851277036490
207,17140.8083953022238989655239901352600,17139.2,1.6083953022238989655239901352600
208,17306.8093660644508553534396562644403,17305.2,1.6093660644508553534396562644403
209,17473.6103321726015921289709519268948,17472.0,1.6103321726015921289709519268948
210,17641.2112936711679417810227720380628,17639.6,1.6112936711679417810227720380628
211,17809.6122506040075693293072200247657,17808.0,1.6122506040075693293072200247657
212,17978.8132030143559808322665458758275,17977.2,1.6132030143559808322665458758275
213,18148.8141509448382464752779735807169,18147.2,1.6141509448382464752779735807169
214,18319.6150944374804532152406712361021,18318.0,1.6150944374804532152406712361021
215,18491.2160335337208861881975135405660,18489.6,1.6160335337208861881975135405660
216,18663.6169682744209528348773844398216,18662.0,1.6169682744209528348773844398216
217,18836.8178986998758537036362968691864,18835.2,1.6178986998758537036362968691864
218,19010.8188248498250089036926464224392,19009.2,1.6188248498250089036926464224392
219,19185.6197467634622434820481963003582,19184.0,1.6197467634622434820481963003582
220,19361.2206644794457442326834122262287,19359.6,1.6206644794457442326834122262287
221,19537.6215780359077858407911376206009,19536.0,1.6215780359077858407911376206009
222,19714.8224874704642435598949552290465,19713.2,1.6224874704642435598949552290465
223,19892.8233928202238859831749751936810,19891.2,1.6233928202238859831749751936810
224,20071.6242941217974629688003487232340,20070.0,1.6242941217974629688003487232340
225,20251.2251914113065912763227246207385,20249.6,1.6251914113065912763227246207385
226,20431.6260847243924414525926485848550,20430.0,1.6260847243924414525926485848550
227,20612.8269740962242346105763303965582,20611.2,1.6269740962242346105763303965582
228,20794.8278595615075509118175884517113,20793.2,1.6278595615075509118175884517113
229,20977.6287411544924569052397351766099,20976.0,1.6287411544924569052397351766099
230,21161.2296189089814564090897782773517,21159.6,1.6296189089814564090897782773517
231,21345.6304928583372667258647553566321,21344.0,1.6304928583372667258647553566321
232,21530.8313630354904305997210756631507,21529.2,1.6313630354904305997210756631507
233,21716.8322294729467589024634971062454,21715.2,1.6322294729467589024634971062454
234,21903.6330922027946201947856333180286,21902.0,1.6330922027946201947856333180286
235,22091.2339512567120703344778540153049,22089.6,1.6339512567120703344778540153049
236,22279.6348066659738318310020667173687,22278.0,1.6348066659738318310020667173687
237,22468.8356584614581265672037859974942,22467.2,1.6356584614581265672037859974942
238,22658.8365066736533636198282995883640,22657.2,1.6365066736533636198282995883640
