Eigenstate,Energy,Kinetic Energy,Potential Energy
1,0.500000004064726042839065864834843920,0.0,0.500000004064726042839065864834843920
2,1.84623096418571087786045312938649973,1.2,0.64623096418571087786045312938649973
3,3.93633768765816945290168654873496171,3.2,0.73633768765816945290168654873496171
4,6.79966544021026677949634762089773309,6.0,0.79966544021026677949634762089773309
5,10.4480468566516063028933812131366384,9.6,0.8480468566516063028933812131366384
6,14.8870664323772412459028022852085385,14.0,0.8870664323772412459028022852085385
7,20.1197214491579348519603467788740552,19.2,0.9197214491579348519603467788740552
8,26.1477846935810118443019887442256536,25.2,0.9477846935810118443019887442256536
9,32.9723846648119759225850199725750664,32.0,0.9723846648119759225850199725750664
10,40.5942816171379215385205204622818038,39.6,0.9942816171379215385205204622818038
11,49.0140111208320838960894076917364696,48.0,1.0140111208320838960894076917364696
12,58.2319642713323301661970068254231194,57.2,1.0319642713323301661970068254231194
13,68.2484351988428008416296047623739529,67.2,1.0484351988428008416296047623739529
14,79.0636506011924460857616079916989611,78.0,1.0636506011924460857616079916989611
15,90.6777888596506887881201712135114939,89.6,1.0777888596506887881201712135114939
16,103.090992843798844784396340644963055,102.0,1.090992843798844784396340644963055
17,116.303378744992309194501214224347970,115.2,1.103378744992309194501214224347970
18,130.315042327367261856188688813385224,129.2,1.115042327367261856188688813385224
19,145.126063450945042952653192207447479,144.0,1.126063450945042952653192207447479
20,160.736509409266420518497895173088232,159.6,1.136509409266420518497895173088232
21,177.146437435473577268129682953344309,176.0,1.146437435473577268129682953344309
22,194.355896613469115344322458675354868,193.2,1.155896613469115344322458675354868
23,212.364929355852831358391141327868316,211.2,1.164929355852831358391141327868316
24,231.173572561322382025102276771110295,230.0,1.173572561322382025102276771110295
25,250.781858531469452215024496327014848,249.6,1.181858531469452215024496327014848
26,271.189815704587586192188210914325756,270.0,1.189815704587586192188210914325756
27,292.397469248635011439684869175411130,291.2,1.197469248635011439684869175411130
28,314.404841544593933017277567830767457,313.2,1.204841544593933017277567830767457
29,337.211952583672748130873075956637708,336.0,1.211952583672748130873075956637708
30,360.818820296148142720066576967301300,359.6,1.218820296148142720066576967301300
31,385.225460825498093159795689560632390,384.0,1.225460825498093159795689560632390
32,410.431888758398896442613418461521379,409.2,1.231888758398896442613418461521379
33,436.438117318849704305146775467943734,435.2,1.238117318849704305146775467943734
34,463.244158532937490430261807759933445,462.0,1.244158532937490430261807759933445
35,490.850023369416184748848269695101609,489.6,1.250023369416184748848269695101609
36,519.255721860240229962449497887025899,518.0,1.255721860240229962449497887025899
37,548.461263204388730848740625717177070,547.2,1.261263204388730848740625717177070
38,578.466655857685948168367402096016137,577.2,1.266655857685948168367402096016137
39,609.271907610826040349974491707766471,608.0,1.271907610826040349974491707766471
40,640.877025657414135361150614053217982,639.6,1.277025657414135361150614053217982
41,673.282016653519064919274098230933371,672.0,1.282016653519064919274098230933371
42,706.486886769978100619420070682192111,705.2,1.286886769978100619420070682192111
43,740.491641738487545240447644947820669,739.2,1.291641738487545240447644947820669
44,775.296286892344938507523912191967257,774.0,1.296286892344938507523912191967257
45,810.900827202571067056543657761371717,809.6,1.300827202571067056543657761371717
46,847.305267310026832102894617776564441,846.0,1.305267310026832102894617776564441
47,884.509611554046551747575848669340506,883.2,1.309611554046551747575848669340506
48,922.513863998031688535637511650687080,921.2,1.313863998031688535637511650687080
49,961.318028452384330387551702307170179,960.0,1.318028452384330387551702307170179
50,1000.92210849510563036342568669334213,999.6,1.32210849510563036342568669334213
51,1041.32610749033894381400996331932484,1040.0,1.32610749033894381400996331932484
52,1082.53002860509905631832162632057368,1081.2,1.33002860509905631832162632057368
53,1124.53387482439644575320438363857530,1123.2,1.33387482439644575320438363857530
54,1167.33764896493796077680345461232778,1166.0,1.33764896493796077680345461232778
55,1210.94135368756182258781914874705955,1209.6,1.34135368756182258781914874705955
56,1255.34499150854478232924670095529000,1254.0,1.34499150854478232924670095529000
57,1300.54856480990206762196159164213635,1299.2,1.34856480990206762196159164213635
58,1346.55207584878595461421101627281052,1345.2,1.35207584878595461421101627281052
59,1393.35552676607604807818016466143396,1392.0,1.35552676607604807818016466143396
60,1440.95891959424332767542410566978903,1439.6,1.35891959424332767542410566978903
61,1489.36225626456045439001604402056320,1488.0,1.36225626456045439001604402056320
62,1538.56553861372253023438631246547609,1537.2,1.36553861372253023438631246547609
63,1588.56876838993526256224334116554699,1587.2,1.36876838993526256224334116554699
64,1639.37194725852117196914966831093674,1638.0,1.37194725852117196914966831093674
65,1690.97507680708894805572211263591782,1689.6,1.37507680708894805572211263591782
66,1743.37815855030621013252838887214366,1742.0,1.37815855030621013252838887214366
67,1796.58119393431166780712210269940617,1795.2,1.38119393431166780712210269940617
68,1850.58418434079892039570875096082680,1849.2,1.38418434079892039570875096082680
69,1905.38713109080082160505469312005653,1904.0,1.38713109080082160505469312005653
70,1960.99003544820040784754123317390707,1959.6,1.39003544820040784754123317390707
71,2017.39289862299179004690741569730884,2016.0,1.39289862299179004690741569730884
72,2074.59572177431211076170076532115890,2073.2,1.39572177431211076170076532115890
73,2132.59850601326361567379670325604494,2131.2,1.39850601326361567379670325604494
74,2191.40125240554306988324743305892667,2190.0,1.40125240554306988324743305892667
75,2251.00396197389411860930058011985878,2249.6,1.40396197389411860930058011985878
76,2311.40663570039674261873565050406312,2310.0,1.40663570039674261873565050406312
77,2372.60927452860665660233641679325217,2371.2,1.40927452860665660233641679325217
78,2434.61187936555633324171361567625973,2433.2,1.41187936555633324171361567625973
79,2497.41445108362828923163711194704123,2496.0,1.41445108362828923163711194704123
80,2561.01699052231033176552390665822597,2559.6,1.41699052231033176552390665822597
81,2625.41949848984161504572580587646169,2624.0,1.41949848984161504572580587646169
82,2690.62197576475759535474462763166007,2689.2,1.42197576475759535474462763166007
83,2756.62442309734128494684692844767721,2755.2,1.42442309734128494684692844767721
84,2823.42684121098758121979001244176421,2822.0,1.42684121098758121979001244176421
85,2891.02923080348688887993372687520718,2889.6,1.42923080348688887993372687520718
86,2959.43159254823373751938935934446838,2958.0,1.43159254823373751938935934446838
87,3028.63392709536564016855497844091885,3027.2,1.43392709536564016855497844091885
88,3098.63623507283701567359612017515218,3097.2,1.43623507283701567359612017515218
89,3169.43851708743261496318473958955432,3168.0,1.43851708743261496318473958955432
90,3241.04077372572454882657370170120917,3239.6,1.44077372572454882657370170120917
91,3313.44300555497669421040989361485506,3312.0,1.44300555497669421040989361485506
92,3386.64521312399996865001182190038176,3385.2,1.44521312399996865001182190038176
93,3460.64739696396170117661544190710918,3459.2,1.44739696396170117661544190710918
94,3535.44955758915208617601733947716921,3534.0,1.44955758915208617601733947716921
95,3611.05169549771048667221929961387712,3609.6,1.45169549771048667221929961387712
96,3687.45381117231415293780636940539269,3686.0,1.45381117231415293780636940539269
97,3764.65590508083173934844025444392195,3763.2,1.45590508083173934844025444392195
98,3842.65797767694383099998847791099420,3841.2,1.45797767694383099998847791099420
99,3921.46002940073253973963809688585534,3920.0,1.46002940073253973963809688585534
100,4001.06206067924208466881312135552071,3999.6,1.46206067924208466881312135552071
101,4081.46407192701214477496755976549171,4080.0,1.46407192701214477496755976549171
102,4162.66606354658564784993834517325786,4161.2,1.46606354658564784993834517325786
103,4244.66803592899255420384355641894842,4243.2,1.46803592899255420384355641894842
104,4327.46998945421108889291559500341068,4326.0,1.46998945421108889291559500341068
105,4411.07192449160778581065094751486664,4409.6,1.47192449160778581065094751486664
106,4495.47384140035761918750654589160120,4494.0,1.47384140035761918750654589160120
107,4580.67574052984542320457526783189515,4579.2,1.47574052984542320457526783189515
108,4666.67762222004972474189512782220408,4665.2,1.47762222004972474189512782220408
109,4753.47948680191004958991029652066924,4752.0,1.47948680191004958991029652066924
110,4841.08133459767870431841440138418598,4839.6,1.48133459767870431841440138418598
111,4929.48316592125797484951304858394836,4928.0,1.48316592125797484951304858394836
112,5018.68498107852363853641211962362306,5017.2,1.48498107852363853641211962362306
113,5108.68678036763563673264927588759863,5107.2,1.48678036763563673264927588759863
114,5199.48856407933671238762360920918845,5198.0,1.48856407933671238762360920918845
115,5291.09033249723978372451859229515290,5289.6,1.49033249723978372451859229515290
116,5383.49208589810478443084804006009657,5382.0,1.49208589810478443084804006009657
117,5476.69382455210567761010713618401922,5475.2,1.49382455210567761010713618401922
118,5570.69554872308831916817788198031050,5569.2,1.49554872308831916817788198031050
119,5665.49725866881982308930211109702216,5664.0,1.49725866881982308930211109702216
120,5761.09895464123006687612794440575153,5759.6,1.49895464123006687612794440575153
121,5857.50063688664595013717679532752934,5856.0,1.50063688664595013717679532752934
122,5954.70230564601901484921001466213591,5953.2,1.50230564601901484921001466213591
123,6052.70396115514701975842691859701825,6051.2,1.50396115514701975842691859701825
124,6151.50560364489006172546648721789512,6150.0,1.50560364489006172546648721789512
125,6251.10723334138182741512841550164717,6249.6,1.50723334138182741512841550164717
126,6351.50885046623656612651838924879856,6350.0,1.50885046623656612651838924879856
127,6452.71045523675237933417696978592519,6451.2,1.51045523675237933417696978592519
128,6554.71204786611142841918925938455152,6553.2,1.51204786611142841918925938455152
129,6657.51362856357768207473832708090410,6656.0,1.51362856357768207473832708090410
130,6761.11519753469284266157923822163471,6759.6,1.51519753469284266157923822163471
131,6865.51675498147111624235833153305530,6864.0,1.51675498147111624235833153305530
132,6970.71830110259352227708763988260236,6969.2,1.51830110259352227708763988260236
133,7076.71983609360247958366555379949222,7075.2,1.51983609360247958366555379949222
134,7183.52136014709745340185594474236308,7182.0,1.52136014709745340185594474236308
135,7291.12287345293249800085958295248780,7289.6,1.52287345293249800085958295248780
136,7399.52437619841660277379569800487158,7398.0,1.52437619841660277379569800487158
137,7508.72586856851782463216268287046050,7507.2,1.52586856851782463216268287046050
138,7618.72735074607227683922662908543916,7617.2,1.52735074607227683922662908543916
139,7729.52882291199915811045656876369952,7728.0,1.52882291199915811045656876369952
140,7841.13028524552312349755407371880601,7839.6,1.53028524552312349755407371880601
141,7953.53173792440544743758738481076196,7952.0,1.53173792440544743758738481076196
142,8066.73318112518559849939204624071758,8065.2,1.53318112518559849939204624071758
143,8180.73461502343504193034019788825172,8179.2,1.53461502343504193034019788825172
144,8295.53603979402531717476454393714878,8294.0,1.53603979402531717476454393714878
145,8411.13745561141271066720796808641845,8409.6,1.53745561141271066720796808641845
146,8527.53886264994216001794469841146658,8526.0,1.53886264994216001794469841146658
147,8644.74026108417339637507620770702648,8643.2,1.54026108417339637507620770702648
148,8762.74165108923277756237198064105605,8761.2,1.54165108923277756237198064105605
149,8881.54303284119477480095405868924645,8880.0,1.54303284119477480095405868924645
150,9001.14440651749769634476400318811692,8999.6,1.54440651749769634476400318811692
151,9121.54577229739895689092830370022870,9120.0,1.54577229739895689092830370022870
152,9242.74713036247606805469940447967376,9241.2,1.54713036247606805469940447967376
153,9364.74848089718056467053715614569918,9363.2,1.54848089718056467053715614569918
154,9487.54982408945332354365695120773466,9486.0,1.54982408945332354365695120773466
155,9611.15116013141122525896425523886433,9609.6,1.55116013141122525896425523886433
156,9735.55248922011692025119221224708596,9734.0,1.55248922011692025119221224708596
157,9860.75381155844564976503022839696043,9859.2,1.55381155844564976503022839696043
158,9986.75512735606574849844269225206758,9985.2,1.55512735606574849844269225206758
159,10113.5564368305527219048549139978466,10112.0,1.5564368305527219048549139978466
160,10241.1577402086608208297064562668004,10239.6,1.5577402086608208297064562668004
161,10369.5590377277810066433964429302425,10368.0,1.5590377277810066433964429302425
162,10498.7603296376203887423543091439825,10497.2,1.5603296376203887423543091439825
163,10628.7616162021459466158769465623148,10627.2,1.5616162021459466158769465623148
164,10759.5628977018450757334883304408163,10758.0,1.5628977018450757334883304408163
165,10891.1641744363678011592758057502128,10889.6,1.5641744363678011592758057502128
166,11023.5654467276311898879559645630719,11022.0,1.5654467276311898879559645630719
167,11156.7667149234866169120039611421282,11155.2,1.5667149234866169120039611421282
168,11290.7679794020765586563277447250597,11289.2,1.5679794020765586563277447250597
169,11425.5692405770415070748059355687673,11424.0,1.5692405770415070748059355687673
170,11561.1704989037821781340021434370462,11559.6,1.5704989037821781340021434370462
171,11697.5717548870413363824931560878867,11696.0,1.5717548870413363824931560878867
172,11834.7730090901487905937780739859721,11833.2,1.5730090901487905937780739859721
173,11972.7742621463803775603747151492197,11971.2,1.5742621463803775603747151492197
174,12111.5755147730286061854956522752444,12110.0,1.5755147730286061854956522752444
175,12251.1767677889861484633594116068937,12249.6,1.5767677889861484633594116068937
176,12391.5780221369291339444027683613822,12390.0,1.5780221369291339444027683613822
177,12532.7792789115942576830316389373486,12531.2,1.5792789115942576830316389373486
178,12674.7805393962325876051543096468685,12673.2,1.5805393962325876051543096468685
179,12817.5818051101895051490536805652487,12816.0,1.5818051101895051490536805652487
180,12961.1830778718594194151406848001434,12959.6,1.5830778718594194151406848001434
181,13105.5843598832523496516759985554717,13104.0,1.5843598832523496516759985554717
182,13250.7856538455233405869516593926683,13249.2,1.5856538455233405869516593926683
183,13396.7869631198181004861916121515048,13395.2,1.5869631198181004861916121515048
184,13543.5882919560588741782808920387520,13542.0,1.5882919560588741782808920387520
185,13691.1896458264208201390371524326320,13689.6,1.5896458264208201390371524326320
186,13839.5910319252910229459735886765624,13838.0,1.5910319252910229459735886765624
187,13988.7924599438421131445342745140169,13987.2,1.5924599438421131445342745140169
188,14138.7939433175175512119939482278366,14137.2,1.5939433175175512119939482278366
189,14289.5955013309221075730304659272413,14288.0,1.5955013309221075730304659272413
190,14441.1971628777658045585581848259810,14439.6,1.5971628777658045585581848259810
191,14593.5989736753297724687225026147387,14592.0,1.5989736753297724687225026147387
192,14746.8010114522908431841777042409182,14745.2,1.6010114522908431841777042409182
193,14900.8034221994358143339597308569358,14899.2,1.6034221994358143339597308569358
194,15055.6065238925947231469353126938931,15054.0,1.6065238925947231469353126938931
195,15211.2112034683521733434616445903236,15209.6,1.6112034683521733434616445903236
196,15367.6216314571867431867976553688920,15366.0,1.6216314571867431867976553688920
