Eigenstate,Energy,Kinetic Energy,Potential Energy
1,0.500000000059278269763322414016918146,0.0,0.500000000059278269763322414016918146
2,1.84623093803805260335118351504393882,1.2,0.64623093803805260335118351504393882
3,3.93633761084157608990625941880448232,3.2,0.73633761084157608990625941880448232
4,6.79966528018165177026273725937668902,6.0,0.79966528018165177026273725937668902
5,10.4480465793865384526891451357305071,9.6,0.8480465793865384526891451357305071
6,14.8870660032159787302407806693760553,14.0,0.8870660032159787302407806693760553
7,20.1197208331105292696513273995984481,19.2,0.9197208331105292696513273995984481
8,26.1477838554484051145960439374480613,25.2,0.9477838554484051145960439374480613
9,32.9723835692366358534414892792373271,32.0,0.9723835692366358534414892792373271
10,40.5942802286242802723610391481440808,39.6,0.9942802286242802723610391481440808
11,49.0140094037527210906303622691247492,48.0,1.0140094037527210906303622691247492
12,58.2319621899268504154186804878499456,57.2,1.0319621899268504154186804878499456
13,68.2484327172126908423755672913964949,67.2,1.0484327172126908423755672913964949
14,79.0636476832935738479632682618334440,78.0,1.0636476832935738479632682618334440
15,90.6777854692843348485740846866885351,89.6,1.0777854692843348485740846866885351
16,103.090988944601764724288883828870487,102.0,1.090988944601764724288883828870487
17,116.303374300426118455635761332495258,115.2,1.103374300426118455635761332495258
18,130.315037300707317559350169926842096,129.2,1.115037300707317559350169926842096
19,145.126057805268929822050381800320664,144.0,1.126057805268929822050381800320664
20,160.736503107442107281877383674539716,159.6,1.136503107442107281877383674539716
21,177.146430440147284546050985817148507,176.0,1.146430440147284546050985817148507
22,194.355888887052919780656797864447538,193.2,1.155888887052919780656797864447538
23,212.364920860512020019415239636979667,211.2,1.164920860512020019415239636979667
24,231.173563258962563828597866445463049,230.0,1.173563258962563828597866445463049
25,250.781848383723428095444613676467816,249.6,1.181848383723428095444613676467816
26,271.189804672801976094289837018775680,270.0,1.189804672801976094289837018775680
27,292.397457293856633576183193744204928,291.2,1.197457293856633576183193744204928
28,314.404828627555928813725170754507831,313.2,1.204828627555928813725170754507831
29,337.211938664780444707900725785910036,336.0,1.211938664780444707900725785910036
30,360.818805335464643491978893335993352,359.6,1.218805335464643491978893335993352
31,385.225444782729586065742078986467393,384.0,1.225444782729586065742078986467393
32,410.431871592879668407340205542359682,409.2,1.231871592879668407340205542359682
33,436.438098989526849705032716185027598,435.2,1.238098989526849705032716185027598
34,463.244138998355300584268614727090018,462.0,1.244138998355300584268614727090018
35,490.850002587700204739376868138314499,489.6,1.250002587700204739376868138314499
36,519.255699789080968400240681875768869,518.0,1.255699789080968400240681875768869
37,548.461239801025007515555749336464226,547.2,1.261239801025007515555749336464226
38,578.466631078887863790940336925457859,577.2,1.266631078887863790940336925457859
39,609.271881412877552070503336941175788,608.0,1.271881412877552070503336941175788
40,640.876997996095220766821864974237408,639.6,1.276997996095220766821864974237408
41,673.281987484087456770474974958895573,672.0,1.281987484087456770474974958895573
42,706.486856047150573668709897247062668,705.2,1.286856047150573668709897247062668
43,740.491609416420735757850519206184094,739.2,1.291609416420735757850519206184094
44,775.296252924615676318514356700587261,774.0,1.296252924615676318514356700587261
45,810.900791542156199053676604459013231,809.6,1.300791542156199053676604459013231
46,847.305229909282515307002293838927035,846.0,1.305229909282515307002293838927035
47,884.509572364686993066516988366093439,883.2,1.309572364686993066516988366093439
48,922.513822971107307394423334729134015,921.2,1.313822971107307394423334729134015
49,961.317985538259319379962038423434329,960.0,1.317985538259319379962038423434329
50,1000.92206364343488799855279503196518,999.6,1.32206364343488799855279503196518
51,1041.32606065004435229797025401852116,1040.0,1.32606065004435229797025401852116
52,1082.52997972434507611800404815640192,1081.2,1.32997972434507611800404815640192
53,1124.53382385056499743150045691348730,1123.2,1.33382385056499743150045691348730
54,1167.33759584460256326322267691315069,1166.0,1.33759584460256326322267691315069
55,1210.94129836646095565045097670265206,1209.6,1.34129836646095565045097670265206
56,1255.34493393155443953911575424151466,1254.0,1.34493393155443953911575424151466
57,1300.54850492100746454413472089255074,1299.2,1.34850492100746454413472089255074
58,1346.55201359105235531633250968106191,1345.2,1.35201359105235531633250968106191
59,1393.35546208161867131104360317964293,1392.0,1.35546208161867131104360317964293
60,1440.95885242419629224579591881480035,1439.6,1.35885242419629224579591881480035
61,1489.36218654904472130696623727055040,1488.0,1.36218654904472130696623727055040
62,1538.56546629181279716018418963775481,1537.2,1.36546629181279716018418963775481
63,1588.56869339962576393023976081325854,1587.2,1.36869339962576393023976081325854
64,1639.37186953669033583632640849053388,1638.0,1.37186953669033583632640849053388
65,1690.97499628946285832847839279927853,1689.6,1.37499628946285832847839279927853
66,1743.37807517142082023200601800477812,1742.0,1.37807517142082023200601800477812
67,1796.58110762747370911540617914337908,1795.2,1.38110762747370911540617914337908
68,1850.58409503804544593641658279673920,1849.2,1.38409503804544593641658279673920
69,1905.38703872285732235015480999062095,1904.0,1.38703872285732235015480999062095
70,1960.98993994443743579501870177657362,1959.6,1.38993994443743579501870177657362
71,2017.39279991138001876829358229108319,2016.0,1.39279991138001876829358229108319
72,2074.59561978137576046103108428716257,2073.2,1.39561978137576046103108428716257
73,2132.59840066403216591536111999146698,2131.2,1.39840066403216591536111999146698
74,2191.40114362350117901884515116524618,2190.0,1.40114362350117901884515116524618
75,2251.00384968092966454937588903877304,2249.6,1.40384968092966454937588903877304
76,2311.40651981674689492737290697939219,2310.0,1.40651981674689492737290697939219
77,2372.60915497280188493360559019655917,2371.2,1.40915497280188493360559019655917
78,2434.61175605436225185279430402864378,2433.2,1.41175605436225185279430402864378
79,2497.41432393198523168314838261940417,2496.0,1.41432393198523168314838261940417
80,2561.01685944327054392635475979800785,2559.6,1.41685944327054392635475979800785
81,2625.41936339450394813105466644253460,2624.0,1.41936339450394813105466644253460
82,2690.62183656219957391229187430208046,2689.2,1.42183656219957391229187430208046
83,2756.62427969454841743562636174900457,2755.2,1.42427969454841743562636174900457
84,2823.42669351277977306289102660130409,2822.0,1.42669351277977306289102660130409
85,2891.02907871244180958039533228469285,2889.6,1.42907871244180958039533228469285
86,2959.43143596460698456499029163937779,2958.0,1.43143596460698456499029163937779
87,3028.63376591700753297260942828271599,3027.2,1.43376591700753297260942828271599
88,3098.63606919510584265616446873350853,3097.2,1.43606919510584265616446873350853
89,3169.43834640310414601751299025539814,3168.0,1.43834640310414601751299025539814
90,3241.04059812489761378148596601689000,3239.6,1.44059812489761378148596601689000
91,3313.44282492497461542791252412381368,3312.0,1.44282492497461542791252412381368
92,3386.64502734926762252003986465565218,3385.2,1.44502734926762252003986465565218
93,3460.64720592595796891269082329372801,3459.2,1.44720592595796891269082329372801
94,3535.44936116623743889476338749226003,3534.0,1.44936116623743889476338749226003
95,3611.05149356502943316664748576507135,3609.6,1.45149356502943316664748576507135
96,3687.45360360167226073101779426783317,3686.0,1.45360360167226073101779426783317
97,3764.65569174056692043335206667662504,3763.2,1.45569174056692043335206667662504
98,3842.65775843179156301422924164945786,3841.2,1.45775843179156301422924164945786
99,3921.45980411168467106327311987993995,3920.0,1.45980411168467106327311987993995
100,4001.06182920339884792419073037333261,3999.6,1.46182920339884792419073037333261
101,4081.46383411742697729620052879428119,4080.0,1.46383411742697729620052879428119
102,4162.66581925210238970242423071393477,4161.2,1.46581925210238970242423071393477
103,4244.66778499407456408220318573791771,4243.2,1.46778499407456408220318573791771
104,4327.46973171876178549959035282437941,4326.0,1.46973171876178549959035282437941
105,4411.07165979078208688651119166426029,4409.6,1.47165979078208688651119166426029
106,4495.47356956436371197484390705296623,4494.0,1.47356956436371197484390705296623
107,4580.67546138373625848971353788711496,4579.2,1.47546138373625848971353788711496
108,4666.67733558350358143674052855504390,4665.2,1.47733558350358143674052855504390
109,4753.47919248899946772244987449856395,4752.0,1.47919248899946772244987449856395
110,4841.08103241662703092692213832418182,4839.6,1.48103241662703092692213832418182
111,4929.48285567418270918656911721506746,4928.0,1.48285567418270918656911721506746
112,5018.68466256116569971128351564089028,5017.2,1.48466256116569971128351564089028
113,5108.68645336907360792441796344923532,5107.2,1.48645336907360792441796344923532
114,5199.48822838168504045629235812004201,5198.0,1.48822838168504045629235812004201
115,5291.08998787532983077342609375615354,5289.6,1.48998787532983077342609375615354
116,5383.49173211914753789404348493057136,5382.0,1.49173211914753789404348493057136
117,5476.69346137533482692739414455544604,5475.2,1.49346137533482692739414455544604
118,5570.69517589938229914332420482066665,5569.2,1.49517589938229914332420482066665
119,5665.49687594030130556481849191787125,5664.0,1.49687594030130556481849191787125
120,5761.09856174084125223399857700588814,5759.6,1.49856174084125223399857700588814
121,5857.50023353769786703481740064878672,5856.0,1.50023353769786703481740064878672
122,5954.70189156171287904255868655864654,5953.2,1.50189156171287904255868655864654
123,6052.70353603806552917731714735842448,6051.2,1.50353603806552917731714735842448
124,6151.50516718645631325882712921384954,6150.0,1.50516718645631325882712921384954
125,6251.10678522128332899374418810124463,6249.6,1.50678522128332899374418810124463
126,6351.50839035181158322918661537344363,6350.0,1.50839035181158322918661537344363
127,6452.70998278233559522845749752625434,6451.2,1.50998278233559522845749752625434
128,6554.71156271233560913767840240472051,6553.2,1.51156271233560913767840240472051
129,6657.51313033662771673882733554143161,6656.0,1.51313033662771673882733554143161
130,6761.11468584550817320280659411785316,6759.6,1.51468584550817320280659411785316
131,6865.51622942489217315204825244126686,6864.0,1.51622942489217315204825244126686
132,6970.71776125644733936496435436320337,6969.2,1.51776125644733936496435436320337
133,7076.71928151772216467296433872967731,7075.2,1.51928151772216467296433872967731
134,7183.52079038226963632480450943084688,7182.0,1.52079038226963632480450943084688
135,7291.12228801976625398469118700815515,7289.6,1.52228801976625398469118700815515
136,7399.52377459612664884302888972195773,7398.0,1.52377459612664884302888972195773
137,7508.72525027361399801076194532479038,7507.2,1.52525027361399801076194532479038
138,7618.72671521094641475626688814609883,7617.2,1.52671521094641475626688814609883
139,7729.52816956339949303784771674244841,7728.0,1.52816956339949303784771674244841
140,7841.12961348290516933891777279643956,7839.6,1.52961348290516933891777279643956
141,7953.53104711814706025546218667528625,7952.0,1.53104711814706025546218667528625
142,8066.73247061465242621210798098163667,8065.2,1.53247061465242621210798098163667
143,8180.73388411488090303295937896023772,8179.2,1.53388411488090303295937896023772
144,8295.53528775831013591371945003935631,8294.0,1.53528775831013591371945003935631
145,8411.13668168151844615385962392445321,8409.6,1.53668168151844615385962392445321
146,8527.53806601826465313884838140540139,8526.0,1.53806601826465313884838140540139
147,8644.73944089956516585948412091987663,8643.2,1.53944089956516585948412091987663
148,8762.74080645376845929734396531431633,8761.2,1.54080645376845929734396531431633
149,8881.54216280662703747728643593444997,8880.0,1.54216280662703747728643593444997
150,9001.14351008136698682786819824114626,8999.6,1.54351008136698682786819824114626
151,9121.54484839875521576391234971473277,9120.0,1.54484839875521576391234971473277
152,9242.74617787716447079038002004498662,9241.2,1.54617787716447079038002004498662
153,9364.74749863263621807722147019228310,9363.2,1.54749863263621807722147019228310
154,9487.54881077894147440443033463796483,9486.0,1.54881077894147440443033463796483
155,9611.15011442763966571327533975049049,9609.6,1.55011442763966571327533975049049
156,9735.55140968813559113005402079273147,9734.0,1.55140968813559113005402079273147
157,9860.75269666773456350895217084275099,9859.2,1.55269666773456350895217084275099
158,9986.75397547169579831209154913601930,9985.2,1.55397547169579831209154913601930
159,10113.5552462032841144995795501528934,10112.0,1.5552462032841144995795501528934
160,10241.1565089638200137670795194735507,10239.6,1.5565089638200137670795194735507
161,10369.5577638527281966270014792118651,10368.0,1.5577638527281966270014792118651
162,10498.7590109675845747943935518246708,10497.2,1.5590109675845747943935518246708
163,10628.7602504041618347308124474919225,10627.2,1.5602504041618347308124474919225
164,10759.5614822564736069827473186538909,10758.0,1.5614822564736069827473186538909
165,10891.1627066168172899147940417651663,10889.6,1.5627066168172899147940417651663
166,11023.5639235758155783531475335379006,11022.0,1.5639235758155783531475335379006
167,11156.7651332224567443717116159361801,11155.2,1.5651332224567443717116159361801
168,11290.7663356441337129097195259218397,11289.2,1.5663356441337129097195259218397
169,11425.5675309266819772829349460127382,11424.0,1.5675309266819772829349460127382
170,11561.1687191544163943315298651440959,11559.6,1.5687191544163943315298651440959
171,11697.5699004101668993990793476984209,11696.0,1.5699004101668993990793476984209
172,11834.7710747753131790093117450704574,11833.2,1.5710747753131790093117450704574
173,11972.7722423298183366429249034974567,11971.2,1.5722423298183366429249034974567
174,12111.5734031522615874579630628613870,12110.0,1.5734031522615874579630628613870
175,12251.1745573198700159386676417733437,12249.6,1.5745573198700159386676417733437
176,12391.5757049085494261791354823435014,12390.0,1.5757049085494261791354823435014
177,12532.7768459929143180623025422230457,12531.2,1.5768459929143180623025422230457
178,12674.7779806463170184886301054972355,12673.2,1.5779806463170184886301054972355
179,12817.5791089408759940994202907459443,12816.0,1.5791089408759940994202907459443
180,12961.1802309475033764411406929639982,12959.6,1.5802309475033764411406929639982
181,13105.5813467359317222193255694610256,13104.0,1.5813467359317222193255694610256
182,13250.7824563747400363374200804041162,13249.2,1.5824563747400363374200804041162
183,13396.7835599313790807698229626173983,13395.2,1.5835599313790807698229626173983
184,13543.5846574721959935106451335653932,13542.0,1.5846574721959935106451335653932
185,13691.1857490624582394062891891092967,13689.6,1.5857490624582394062891891092967
186,13839.5868347663769138404503798766994,13838.0,1.5868347663769138404503798766994
187,13988.7879146471294230720185094534975,13987.2,1.5879146471294230720185094534975
188,14138.7889887668815566621766973237642,14137.2,1.5889887668815566621766973237642
189,14289.5900571868089757217663903434421,14288.0,1.5900571868089757217663903434421
190,14441.1911199671181326299752332469509,14439.6,1.5911199671181326299752332469509
191,14593.5921771670666414468779713119331,14592.0,1.5921771670666414468779713119331
192,14746.7932288449831154020115883510876,14745.2,1.5932288449831154020115883510876
193,14900.7942750582864897628100932610059,14899.2,1.5942750582864897628100932610059
194,15055.5953158635048434236589581519888,15054.0,1.5953158635048434236589581519888
195,15211.1963513162937371479043654683928,15209.6,1.5963513162937371479043654683928
196,15367.5973814714540821546939197998454,15366.0,1.5973814714540821546939197998454
197,15524.7984063829495534259457535482563,15523.2,1.5984063829495534259457535482563
198,15682.7994261039235618954008503844925,15681.2,1.5994261039235618954008503844925
199,15841.6004406867157983535889021113024,15840.0,1.6004406867157983535889021113024
200,16001.2014501828783630088823228646135,15999.6,1.6014501828783630088823228646135
201,16161.6024546431914916810321135159599,16160.0,1.6024546431914916810321135159599
202,16322.8034541176788920033117430315300,16321.2,1.6034541176788920033117430315300
203,16484.8044486556227002879656463684416,16483.2,1.6044486556227002879656463684416
204,16647.6054383055780706698392813636130,16646.0,1.6054383055780706698392813636130
205,16811.2064231153874064935177503706087,16809.6,1.6064231153874064935177503706087
206,16975.6074031321942469626858516062169,16974.0,1.6074031321942469626858516062169
207,17140.8083784024568149223504712521250,17139.2,1.6083784024568149223504712521250
208,17306.8093489719612399953457675774319,17305.2,1.6093489719612399953457675774319
209,17473.6103148858344628159655102923004,17472.0,1.6103148858344628159655102923004
210,17641.2112761885568318563370659958909,17639.6,1.6112761885568318563370659958909
211,17809.6122329239744002045107936894215,17808.0,1.6122329239744002045107936894215
212,17978.8131851353109325214032611801893,17977.2,1.6131851353109325214032611801893
213,18148.8141328651796265544997243958218,18147.2,1.6141328651796265544997243958218
214,18319.6150761555945641840159447190920,18318.0,1.6150761555945641840159447190920
215,18491.2160150479818912077622188270011,18489.6,1.6160150479818912077622188270011
216,18663.6169495831907398191775726631266,18662.0,1.6169495831907398191775726631266
217,18836.8178798015038977375873973369869,18835.2,1.6178798015038977375873973369869
218,19010.8188057426482329631454327060526,19009.2,1.6188057426482329631454327060526
219,19185.6197274458048774294082972699488,19184.0,1.6197274458048774294082972699488
220,19361.2206449496191820616806868630984,19359.6,1.6206449496191820616806868630984
221,19537.6215582922104411434333166024325,19536.0,1.6215582922104411434333166024325
222,19714.8224675111814031881711835117112,19713.2,1.6224675111814031881711835117112
223,19892.8233726436275618775944264625927,19891.2,1.6233726436275618775944264625927
224,20071.6242737261462421253628461334997,20070.0,1.6242737261462421253628461334997
225,20251.2251707948454838230188555376256,20249.6,1.6251707948454838230188555376256
226,20431.6260638853527268060214957858390,20430.0,1.6260638853527268060214957858390
227,20612.8269530328233056827513643715634,20611.2,1.6269530328233056827513643715634
228,20794.8278382719487563366983054290058,20793.2,1.6278382719487563366983054290058
229,20977.6287196369649412539885933493967,20976.0,1.6287196369649412539885933493967
230,21161.2295971616599983625008097271501,21159.6,1.6295971616599983625008097271501
231,21345.6304708793821151718472599759515,21344.0,1.6304708793821151718472599759515
232,21530.8313408230471386231468206951094,21529.2,1.6313408230471386231468206951094
233,21716.8322070251460156341002654511000,21715.2,1.6322070251460156341002654511000
234,21903.6330695177520804854396874632671,21902.0,1.6330695177520804854396874632671
235,22091.2339283325281822198585936991091,22089.6,1.6339283325281822198585936991091
236,22279.6347835007336617521971169084014,22278.0,1.6347835007336617521971169084014
237,22468.8356350532311823110162698494384,22467.2,1.6356350532311823110162698494384
238,22658.8364830204934149425784270295247,22657.2,1.6364830204934149425784270295247
