Eigenstate,Energy,Kinetic Energy,Potential Energy
1,0.500000004127501601116933605146704673,0.0,0.500000004127501601116933605146704673
2,1.84623096459553486283817313475079919,1.2,0.64623096459553486283817313475079919
3,3.93633768886225830338655625446874042,3.2,0.73633768886225830338655625446874042
4,6.79966544271899994709211490507503766,6.0,0.79966544271899994709211490507503766
5,10.4480468609989097727219911150552914,9.6,0.8480468609989097727219911150552914
6,14.8870664391074424601046152530131835,14.0,0.8870664391074424601046152530131835
7,20.1197214588210961388692503615573757,19.2,0.9197214588210961388692503615573757
8,26.1477847067311486297047518155893833,25.2,0.9477847067311486297047518155893833
9,32.9723846820063803317305831510685347,32.0,0.9723846820063803317305831510685347
10,40.5942816389369605092610596898170454,39.6,0.9942816389369605092610596898170454
11,49.0140111477992221220542703666657906,48.0,1.0140111477992221220542703666657906
12,58.2319643040342691275695835324416407,57.2,1.0319643040342691275695835324416407
13,68.2484352378496826105795137028172215,67.2,1.0484352378496826105795137028172215
14,79.0636506470780960384332558537904728,78.0,1.0636506470780960384332558537904728
15,90.6777889129928834645995999111259556,89.6,1.0777889129928834645995999111259556
16,103.090992905179597265846707706920641,102.0,1.090992905179597265846707706920641
17,116.303378814998167636696442223366807,115.2,1.103378814998167636696442223366807
18,130.315042406589618646935914701184161,129.2,1.115042406589618646935914701184161
19,145.126063539980453026095274119336483,144.0,1.126063539980453026095274119336483
20,160.736509508716928004157778156204774,159.6,1.136509508716928004157778156204774
21,177.146437545947050056865488577906195,176.0,1.146437545947050056865488577906195
22,194.355896735579587415616334097217604,193.2,1.155896735579587415616334097217604
23,212.364929490220852889393122604827223,211.2,1.164929490220852889393122604827223
24,231.173572708575377424188408292264493,230.0,1.173572708575377424188408292264493
25,250.781858692242086310897342988855347,249.6,1.181858692242086310897342988855347
26,271.189815879522138875833709559215093,270.0,1.189815879522138875833709559215093
27,292.397469438381761108430985263091556,291.2,1.197469438381761108430985263091556
28,314.404841749811549212705980979538776,313.2,1.204841749811549212705980979538776
29,337.211952805028693798676115680469976,336.0,1.211952805028693798676115680469976
30,360.818820534319086552294931421663849,359.6,1.218820534319086552294931421663849
31,385.225461081170332509833777496551321,384.0,1.225461081170332509833777496551321
32,410.431889032268791331691214392562390,409.2,1.231889032268791331691214392562390
33,436.438117611624123067029510432161871,435.2,1.238117611624123067029510432161871
34,463.244158845334267568495144273695867,462.0,1.244158845334267568495144273695867
35,490.850023702164591609031260148778628,489.6,1.250023702164591609031260148778628
36,519.255722214081458850760086463761204,518.0,1.255722214081458850760086463761204
37,548.461263580076393257658441668174295,547.2,1.261263580076393257658441668174295
38,578.466656255986587801423810814855517,577.2,1.266656255986587801423810814855517
39,609.271908032519661669622469048447010,608.0,1.271908032519661669622469048447010
40,640.877026103294748417674650114241647,639.6,1.277026103294748417674650114241647
41,673.282017124395247254201323858584097,672.0,1.282017124395247254201323858584097
42,706.486887266673577074330334765777814,705.2,1.286887266673577074330334765777814
43,740.491642261841786541562167087208343,739.2,1.291642261841786541562167087208343
44,775.296287443213779538141790876171852,774.0,1.296287443213779538141790876171852
45,810.900827781827345773459958686861807,809.6,1.300827781827345773459958686861807
46,847.305267918561050099540901911536137,846.0,1.305267918561050099540901911536137
47,884.509612192767557515955002088481699,883.2,1.309612192767557515955002088481699
48,922.513864667867384531367790856010173,921.2,1.313864667867384531367790856010173
49,961.318029154282405057677315457913223,960.0,1.318029154282405057677315457913223
50,1000.92210923003431635532502798405191,999.6,1.32210923003431635532502798405191
51,1041.32610825928780364593996686779063,1040.0,1.32610825928780364593996686779063
52,1082.53002940907979685812432190527155,1081.2,1.33002940907979685812432190527155
53,1124.53387566444376292174360383309860,1123.2,1.33387566444376292174360383309860
54,1167.33764984211041596703057671416543,1166.0,1.33764984211041596703057671416543
55,1210.94135460294275236933256054529539,1209.6,1.34135460294275236933256054529539
56,1255.34499246324324309206881216781838,1254.0,1.34499246324324309206881216781838
57,1300.54856580505381690241389573445869,1299.2,1.34856580505381690241389573445869
58,1346.55207688555447094052426302453360,1345.2,1.35207688555447094052426302453360
59,1393.35552784565359127427136593758853,1392.0,1.35552784565359127427136593758853
60,1440.95892071785204166852263463941383,1439.6,1.35892071785204166852263463941383
61,1489.36225743345351468195099415380388,1488.0,1.36225743345351468195099415380388
62,1538.56553982918533831790828212883171,1537.2,1.36553982918533831790828212883171
63,1588.56876965328668969321921152801222,1587.2,1.36876965328668969321921152801222
64,1639.37194857111485484346087781112887,1638.0,1.37194857111485484346087781112887
65,1690.97507817031463908680579228781155,1689.6,1.37507817031463908680579228781155
66,1743.37815996559118518242002089505238,1742.0,1.37815996559118518242002089505238
67,1796.58119540312219439129941684395277,1795.2,1.38119540312219439129941684395277
68,1850.58418586464178956079983819774268,1849.2,1.38418586464178956079983819774268
69,1905.38713267122494686941007589581211,1904.0,1.38713267122494686941007589581211
70,1960.99003708679849479869339820996291,1959.6,1.39003708679849479869339820996291
71,2017.39290032140208040807306377344374,2016.0,1.39290032140208040807306377344374
72,2074.59572353422020497280275462102957,2073.2,1.39572353422020497280275462102957
73,2132.59850783640437828216423142327076,2131.2,1.39850783640437828216423142327076
74,2191.40125429370262230650449850516835,2190.0,1.40125429370262230650449850516835
75,2251.00396392891192411936013317166422,2249.6,1.40396392891192411936013317166422
76,2311.40663772416778870278369207361174,2310.0,1.40663772416778870278369207361174
77,2372.60927662308374018591028228379745,2371.2,1.40927662308374018591028228379745
78,2434.61188153275245461221657384387393,2433.2,1.41188153275245461221657384387393
79,2497.41445332561916087989679767057282,2496.0,1.41445332561916087989679767057282
80,2561.01699284123700877038712526602317,2559.6,1.41699284123700877038712526602317
81,2625.41950088791325406459793924445262,2624.0,1.41950088791325406459793924445262
82,2690.62197824425434975392192789366457,2689.2,1.42197824425434975392192789366457
83,2756.62442566061734411231897805598948,2755.2,1.42442566061734411231897805598948
84,2823.42684386047436263491332399779819,2822.0,1.42684386047436263491332399779819
85,2891.02923354169639214440327675135179,2889.6,1.42923354169639214440327675135179
86,2959.43159537776207011791779387717936,2958.0,1.43159537776207011791779387717936
87,3028.63393001889672548163221656084182,3027.2,1.43393001889672548163221656084182
88,3098.63623809314649446112182877495476,3097.2,1.43623809314649446112182877495476
89,3169.43852020739195234943437902697188,3168.0,1.43852020739195234943437902697188
90,3241.04077694830535967734790466315885,3239.6,1.44077694830535967734790466315885
91,3313.44300888325530072606226912572754,3312.0,1.44300888325530072606226912572754
92,3386.64521656116220500797230070770710,3385.2,1.44521656116220500797230070770710
93,3460.64740051330798115115316255043415,3459.2,1.44740051330798115115316255043415
94,3535.44956125410275084910115849997287,3534.0,1.44956125410275084910115849997287
95,3611.05169928181145063635706780705052,3609.6,1.45169928181145063635706780705052
96,3687.45381507924286878912185556836973,3686.0,1.45381507924286878912185556836973
97,3764.65590911440350178672692697909371,3763.2,1.45590911440350178672692697909371
98,3842.65798184111844350396840863842822,3841.2,1.45798184111844350396840863842822
99,3921.46003369962136858299357876553069,3920.0,1.46003369962136858299357876553069
100,4001.06206511711552700064119864890611,3999.6,1.46206511711552700064119864890611
101,4081.46407650830753962293406373130414,4080.0,1.46407650830753962293406373130414
102,4162.66606827591566123379594104869927,4161.2,1.46606827591566123379594104869927
103,4244.66804081115407209103712058424898,4243.2,1.46804081115407209103712058424898
104,4327.46999449419465450895871184951898,4326.0,1.46999449419465450895871184951898
105,4411.07192969460762085984166292860029,4409.6,1.47192969460762085984166292860029
106,4495.47384677178227187198553621153910,4494.0,1.47384677178227187198553621153910
107,4580.67574607532908958293833268728894,4579.2,1.47574607532908958293833268728894
108,4666.67762794546429397726323574377738,4665.2,1.47762794546429397726323574377738
109,4753.47949271337792804058276133356182,4752.0,1.47949271337792804058276133356182
110,4841.08134070158647826574349159444985,4839.6,1.48134070158647826574349159444985
111,4929.48317222427097698678690631580878,4928.0,1.48317222427097698678690631580878
112,5018.68498758760148921457774528605637,5017.2,1.48498758760148921457774528605637
113,5108.68678709004883743606277468270824,5107.2,1.48678709004883743606277468270824
114,5199.48857102268437606633573052060031,5198.0,1.48857102268437606633573052060031
115,5291.09033966946859451822347701129658,5289.6,1.49033966946859451822347701129658
116,5383.49209330752928807382843827470741,5382.0,1.49209330752928807382843827470741
117,5476.69383220743001350823996121514311,5475.2,1.49383220743001350823996121514311
118,5570.69555663342951590436724528380637,5569.2,1.49555663342951590436724528380637
119,5665.49726684373279107397344829507800,5664.0,1.49726684373279107397344829507800
120,5761.09896309073443516501253060491680,5759.6,1.49896309073443516501253060491680
121,5857.50064562125490926018333074420998,5856.0,1.50064562125490926018333074420998
122,5954.70231467677034402698722579795911,5953.2,1.50231467677034402698722579795911
123,6052.70397049363649535120163083068757,6051.2,1.50397049363649535120163083068757
124,6151.50561330330746441721425632835957,6150.0,1.50561330330746441721425632835957
125,6251.10724333254978877989406306455231,6249.6,1.50724333254978877989406306455231
126,6351.50886080365252119031956570787498,6350.0,1.50886080365252119031956570787498
127,6452.71046593463392092575875445997390,6451.2,1.51046593463392092575875445997390
128,6554.71205893944539194533356195042872,6553.2,1.51205893944539194533356195042872
129,6657.51364002817332638226762208905707,6656.0,1.51364002817332638226762208905707
130,6761.11520940723953446141485754585931,6759.6,1.51520940723953446141485754585931
131,6865.51676727960097287309431347010146,6864.0,1.51676727960097287309431347010146
132,6970.71831384494952119213728927213880,6969.2,1.51831384494952119213728927213880
133,7076.71984929991260381019100243999216,7075.2,1.51984929991260381019100243999216
134,7183.52137383825551145539220748786022,7182.0,1.52137383825551145539220748786022
135,7291.12288765108633565250894329698359,7289.6,1.52288765108633565250894329698359
136,7399.52439092706451419222930359445298,7398.0,1.52439092706451419222930359445298
137,7508.72588385261407356770690941175370,7507.2,1.52588385261407356770690941175370
138,7618.72736661214275681804954140909735,7617.2,1.52736661214275681804954140909735
139,7729.52883938826835659183632809540564,7728.0,1.52883938826835659183632809540564
140,7841.13030236205371161939490472318683,7839.6,1.53030236205371161939490472318683
141,7953.53175571325199791169515773353422,7952.0,1.53175571325199791169515773353422
142,8066.73319962056414369015759055193499,8065.2,1.53319962056414369015759055193499
143,8180.73463426191042727688193957763459,8179.2,1.53463426191042727688193957763459
144,8295.53605981471858804860293453868882,8294.0,1.53605981471858804860293453868882
145,8411.13747645623110091308852457486434,8409.6,1.53747645623110091308852457486434
146,8527.53888436383463677916336628392343,8526.0,1.53888436383463677916336628392343
147,8644.74028371541516925380445475751301,8643.2,1.54028371541516925380445475751301
148,8762.74167468974271398904610502696897,8761.2,1.54167468974271398904610502696897
149,8881.54305746689029392911856024010366,8880.0,1.54305746689029392911856024010366
150,9001.14443222869246079794730574795244,8999.6,1.54443222869246079794730574795244
151,9121.54579915924956986505881010163462,9120.0,1.54579915924956986505881010163462
152,9242.74715844548504308832213746728387,9241.2,1.54715844548504308832213746728387
153,9364.74851027776410473055619684827316,9363.2,1.54851027776410473055619684827316
154,9487.54985485058397229399419406185151,9486.0,1.54985485058397229399419406185151
155,9611.15119236334729595586012535101655,9609.6,1.55119236334729595586012535101655
156,9735.55252302123284170064325247406974,9734.0,1.55252302123284170064325247406974
157,9860.75384703618008942979400202185668,9859.2,1.55384703618008942979400202185668
158,9986.75516462800770166800783929845958,9985.2,1.55516462800770166800783929845958
159,10113.5564760256898487931150329104469,10112.0,1.5564760256898487931150329104469
160,10241.1577814688193718965063501483931,10239.6,1.5577814688193718965063501483931
161,10369.5590812092929620055627498093129,10368.0,1.5590812092929620055627498093129
162,10498.7603755132612925657813004555022,10497.2,1.5603755132612925657813004555022
163,10628.7616646633967928920951306187220,10627.2,1.5616646633967928920951306187220
164,10759.5629489615440965801145206204298,10758.0,1.5629489615440965801145206204298
165,10891.1642287318339238719391763578268,10889.6,1.5642287318339238719391763578268
166,11023.5655043243613453587098910167796,11022.0,1.5655043243613453587098910167796
167,11156.7667761195554712177770087250391,11155.2,1.5667761195554712177770087250391
168,11290.7680445334016237445850245790598,11289.2,1.5680445334016237445850245790598
169,11425.5693100237217723455711792753418,11424.0,1.5693100237217723455711792753418
170,11561.1705730977783301915017355003389,11559.6,1.5705730977783301915017355003389
171,11697.5718343215458874189911596065102,11696.0,1.5718343215458874189911596065102
172,11834.7730943311030443121766323109101,11833.2,1.5730943311030443121766323109101
173,11972.7743538467438095344902133770554,11971.2,1.5743538467438095344902133770554
174,12111.5756136906121719908623885946026,12110.0,1.5756136906121719908623885946026
175,12251.1768748089501130065893450755831,12249.6,1.5768748089501130065893450755831
176,12391.5781383004576408159739330051949,12390.0,1.5781383004576408159739330051949
177,12532.7794054528541621207274499271245,12531.2,1.5794054528541621207274499271245
178,12674.7806777905997916967857210966185,12673.2,1.5806777905997916967857210966185
179,12817.5819571380385366633855220412942,12816.0,1.5819571380385366633855220412942
180,12961.1832457042201362808996901773583,12959.6,1.5832457042201362808996901773583
181,13105.5845461987812552131673291718220,13104.0,1.5845461987812552131673291718220
182,13250.7858619932854512130539395466211,13249.2,1.5858619932854512130539395466211
183,13396.7871973507191009995887802184464,13395.2,1.5871973507191009995887802184464
184,13543.5885577600134842508399545607774,13542.0,1.5885577600134842508399545607774
185,13691.1899504375887004843599070214610,13689.6,1.5899504375887004843599070214610
186,13839.5913851044110920718262674982149,13838.0,1.5913851044110920718262674982149
187,13988.7928752375277740335304042878635,13987.2,1.5928752375277740335304042878635
188,14138.7944401818785971213634420277735,14137.2,1.5944401818785971213634420277735
189,14289.5961089227773838617069694559248,14288.0,1.5961089227773838617069694559248
190,14441.1979273248013897472623534175872,14439.6,1.5979273248013897472623534175872
191,14593.5999733719018079134158323299529,14592.0,1.5999733719018079134158323299529
192,14746.8023935453141537320167818572384,14745.2,1.6023935453141537320167818572384
193,14900.8055069187309278917241116581505,14899.2,1.6055069187309278917241116581505
194,15055.6102036004863779663430165602528,15054.0,1.6102036004863779663430165602528
195,15211.2206698645665039767960085905199,15209.6,1.6206698645665039767960085905199
