Eigenstate,Energy,Kinetic Energy,Potential Energy
1,0.500000010901929530330196101092904339,0.0,0.500000010901929530330196101092904339
2,1.84623100882486022540711889823612802,1.2,0.64623100882486022540711889823612802
3,3.93633781882518352776629775254421165,3.2,0.73633781882518352776629775254421165
4,6.79966571353929668306495192712564168,6.0,0.79966571353929668306495192712564168
5,10.4480473303853996747699575732086291,9.6,0.8480473303853996747699575732086291
6,14.8870671659507962558784026919087371,14.0,0.8870671659507962558784026919087371
7,20.1197225027057680858479006866432485,19.2,0.9197225027057680858479006866432485
8,26.1477861277588407151653115662080482,25.2,0.9477861277588407151653115662080482
9,32.9723865407390544352018573007082669,32.0,0.9723865407390544352018573007082669
10,40.5942839963913593834457266447671253,39.6,0.9942839963913593834457266447671253
11,49.0140140654659985708601449548455406,48.0,1.0140140654659985708601449548455406
12,58.2319678439100337700374518849877391,57.2,1.0319678439100337700374518849877391
13,68.2484394624764798076467572438142600,67.2,1.0484394624764798076467572438142600
14,79.0636556195875652206529395965003451,78.0,1.0636556195875652206529395965003451
15,90.6777946971536718061477924838450766,89.6,1.0777946971536718061477924838450766
16,103.090999565447252993125197742126726,102.0,1.090999565447252993125197742126726
17,116.303386416567098391226229904377736,115.2,1.103386416567098391226229904377736
18,130.315051015446899064412312710765365,129.2,1.115051015446899064412312710765365
19,145.126073222961383341219733289845607,144.0,1.126073222961383341219733289845607
20,160.736520333562317982686111815385449,159.6,1.136520333562317982686111815385449
21,177.146449581362249342060611648977110,176.0,1.146449581362249342060611648977110
22,194.355910051295315105635694490592356,193.2,1.155910051295315105635694490592356
23,212.364944157055901875837635578380084,211.2,1.164944157055901875837635578380084
24,231.173588798501286259205826348348741,230.0,1.173588798501286259205826348348741
25,250.781876278449885268150064411832085,249.6,1.181876278449885268150064411832085
26,271.189835036491288758244534757794250,270.0,1.189835036491288758244534757794250
27,292.397490241951414083778469660490548,291.2,1.197490241951414083778469660490548
28,314.404864277254271088590266250042986,313.2,1.204864277254271088590266250042986
29,337.211977135126797064663774601355316,336.0,1.211977135126797064663774601355316
30,360.818846747443733491232828226152895,359.6,1.218846747443733491232828226152895
31,385.225489259363577914010298197321713,384.0,1.225489259363577914010298197321713
32,410.431919259328745009684729211811805,409.2,1.231919259328745009684729211811805
33,436.438149973193423522656398542125774,435.2,1.238149973193423522656398542125774
34,463.244193428992070086071180660409373,462.0,1.244193428992070086071180660409373
35,490.850060597522286591284836929406462,489.6,1.250060597522286591284836929406462
36,519.255761512882349724732832670015880,518.0,1.255761512882349724732832670015880
37,548.461305376299577686446012899672752,547.2,1.261305376299577686446012899672752
38,578.466700645955301414249711850210569,577.2,1.266700645955301414249711850210569
39,609.271955115014360152302033732868352,608.0,1.271955115014360152302033732868352
40,640.877075979671221698812051870483126,639.6,1.277075979671221698812051870483126
41,673.282069898708078795953376851847424,672.0,1.282069898708078795953376851847424
42,706.486943045805282056093009181966867,705.2,1.286943045805282056093009181966867
43,740.491701155637985146950222355078902,739.2,1.291701155637985146950222355078902
44,775.296349564624785769139973931353854,774.0,1.296349564624785769139973931353854
45,810.900893247056578383472239300290819,809.6,1.300893247056578383472239300290819
46,847.305336847220700538018596355051099,846.0,1.305336847220700538018596355051099
47,884.509684708041980407710315852883244,883.2,1.309684708041980407710315852883244
48,922.513940896684709389895588034624993,921.2,1.313940896684709389895588034624993
49,961.318109227494903892267922699088255,960.0,1.318109227494903892267922699088255
50,1000.92219328260810083979330432402112,999.6,1.32219328260810083979330432402112
51,1041.32619643050246786362347165264895,1040.0,1.32619643050246786362347165264895
52,1082.53012184273866764566498236529090,1081.2,1.33012184273866764566498236529090
53,1124.53397250909546986033013315279338,1123.2,1.33397250909546986033013315279338
54,1167.33775125128254751059013239653512,1166.0,1.33775125128254751059013239653512
55,1210.94146073538842389494202722494390,1209.6,1.34146073538842389494202722494390
56,1255.34510348320146729831132168111266,1254.0,1.34510348320146729831132168111266
57,1300.54868188252463751188518145085530,1299.2,1.34868188252463751188518145085530
58,1346.55219819658989769112878339042623,1345.2,1.35219819658989769112878339042623
59,1393.35565457266545838890228443235233,1392.0,1.35565457266545838890228443235233
60,1440.95905304993800413262043866958681,1439.6,1.35905304993800413262043866958681
61,1489.36239556674249758202577903919740,1488.0,1.36239556674249758202577903919740
62,1538.56568396720386515225301603913042,1537.2,1.36568396720386515225301603913042
63,1588.56892000734763702570330416607637,1587.2,1.36892000734763702570330416607637
64,1639.37210536073031413126376719697190,1638.0,1.37210536073031413126376719697190
65,1690.97524162363471332184854834819711,1689.6,1.37524162363471332184854834819711
66,1743.37833031987070966365085209462595,1742.0,1.37833031987070966365085209462595
67,1796.58137290521754920551427694513093,1795.2,1.38137290521754920551427694513093
68,1850.58437077154016813079263306291309,1849.2,1.38437077154016813079263306291309
69,1905.38732525060866242309104111447081,1904.0,1.38732525060866242309104111447081
70,1960.99023761764714730699167132454996,1959.6,1.39023761764714730699167132454996
71,2017.39310909463567325583355074123709,2016.0,1.39310909463567325583355074123709
72,2074.59594085338659657538442522620920,2073.2,1.39594085338659657538442522620920
73,2132.59873401841478269876863396616157,2131.2,1.39873401841478269876863396616157
74,2191.40148966961923880305812996451771,2190.0,1.40148966961923880305812996451771
75,2251.00420884479218337219761247895514,2249.6,1.40420884479218337219761247895514
76,2311.40689254197015837578695902947614,2310.0,1.40689254197015837578695902947614
77,2372.60954172164054123343780444830021,2371.2,1.40954172164054123343780444830021
78,2434.61215730881570907313137784493326,2433.2,1.41215730881570907313137784493326
79,2497.41474019498613044916255968456639,2496.0,1.41474019498613044916255968456639
80,2561.01729123996280066558449562353838,2559.6,1.41729123996280066558449562353838
81,2625.41981127361867775603168562212804,2624.0,1.41981127361867775603168562212804
82,2690.62230109753811788593442987494789,2689.2,1.42230109753811788593442987494789
83,2756.62476148658273839056888264174658,2755.2,1.42476148658273839056888264174658
84,2823.42719319038164804650148640453551,2822.0,1.42719319038164804650148640453551
85,2891.02959693475358100613982344280382,2889.6,1.42959693475358100613982344280382
86,2959.43197342306813499231344545414918,2958.0,1.43197342306813499231344545414918
87,3028.63432333755306499916570149856351,3027.2,1.43432333755306499916570149856351
88,3098.63664734055440155150982121064508,3097.2,1.43664734055440155150982121064508
89,3169.43894607575605928792300963731575,3168.0,1.43894607575605928792300963731575
90,3241.04122016936558484228813922749090,3239.6,1.44122016936558484228813922749090
91,3313.44347023127275284850852990451418,3312.0,1.44347023127275284850852990451418
92,3386.64569685618787726759790719172372,3385.2,1.44569685618787726759790719172372
93,3460.64790062476696777719655287958864,3459.2,1.44790062476696777719655287958864
94,3535.45008210473123651102382236169203,3534.0,1.45008210473123651102382236169203
95,3611.05224185198897048784324139081554,3609.6,1.45224185198897048784324139081554
96,3687.45438041176845059945913057673652,3686.0,1.45438041176845059945913057673652
97,3764.65649831977144608782732912724330,3763.2,1.45649831977144608782732912724330
98,3842.65859610335787385198305574192198,3841.2,1.45859610335787385198305574192198
99,3921.46067428277353723876483926964662,3920.0,1.46067428277353723876483926964662
100,4001.06273337243449273300724257531622,3999.6,1.46273337243449273300724257531622
101,4081.46477388228361524633909117401573,4080.0,1.46477388228361524633909117401573
102,4162.66679631923741885666753775440135,4161.2,1.46679631923741885666753775440135
103,4244.66880118874426641933322195396713,4243.2,1.46880118874426641933322195396713
104,4327.47078899647889528133960808030960,4326.0,1.47078899647889528133960808030960
105,4411.07276025020289572431492524360451,4409.6,1.47276025020289572431492524360451
106,4495.47471546182663073626703798774501,4494.0,1.47471546182663073626703798774501
107,4580.67665514971540141088425155073844,4579.2,1.47665514971540141088425155073844
108,4666.67857984129183489915381226594855,4665.2,1.47857984129183489915381226594855
109,4753.48049007599805014136363631244289,4752.0,1.48049007599805014136363631244289
110,4841.08238640869584975947681424195119,4839.6,1.48238640869584975947681424195119
111,4929.48426941360194091964254336364685,4928.0,1.48426941360194091964254336364685
112,5018.68613968887931512292959828528972,5017.2,1.48613968887931512292959828528972
113,5108.68799786203715467525153081199686,5107.2,1.48799786203715467525153081199686
114,5199.48984459633241723143604899675971,5198.0,1.48984459633241723143604899675971
115,5291.09168059841994755591956732521807,5289.6,1.49168059841994755591956732521807
116,5383.49350662756929101689381038069376,5382.0,1.49350662756929101689381038069376
117,5476.69532350686208184657181917464581,5475.2,1.49532350686208184657181917464581
118,5570.69713213691359342795971314736459,5569.2,1.49713213691359342795971314736459
119,5665.49893351283987735320311381519159,5664.0,1.49893351283987735320311381519159
120,5761.10072874543871840374819762131218,5759.6,1.50072874543871840374819762131218
121,5857.50251908789965135120208201382536,5856.0,1.50251908789965135120208201382536
122,5954.70430596985329309274975363201477,5953.2,1.50430596985329309274975363201477
123,6052.70609104128739460235815334327333,6051.2,1.50609104128739460235815334327333
124,6151.50787622991391554419095166133806,6150.0,1.50787622991391554419095166133806
125,6251.10966381715844068792572288036019,6249.6,1.50966381715844068792572288036019
126,6351.51145654037612926547347727885434,6350.0,1.51145654037612926547347727885434
127,6452.71325773271450548414746234763372,6451.2,1.51325773271450548414746234763372
128,6554.71507151818462427728638793107776,6553.2,1.51507151818462427728638793107776
129,6657.51690308967400168453373083815449,6656.0,1.51690308967400168453373083815449
130,6761.11875911504141013523672715472379,6759.6,1.51875911504141013523672715472379
131,6865.52064834735300383291384268858108,6864.0,1.52064834735300383291384268858108
132,6970.72258257265785946296647973371368,6969.2,1.52258257265785946296647973371368
133,7076.72457814052235746864427654126429,7075.2,1.52457814052235746864427654126429
134,7183.52665855403144794173044384292412,7182.0,1.52665855403144794173044384292412
135,7291.12885911100415463569557038291952,7289.6,1.52885911100415463569557038291952
136,7399.53123584076968428460379763281289,7398.0,1.53123584076968428460379763281289
137,7508.73388439241156175704612103330887,7507.2,1.53388439241156175704612103330887
138,7618.73698532494117996485150829965164,7617.2,1.53698532494117996485150829965164
139,7729.54093441710335584139254692485350,7728.0,1.54093441710335584139254692485350
140,7841.14684508224134810414075684457412,7839.6,1.54684508224134810414075684457412
141,7953.56002632005262547154884273144035,7952.0,1.56002632005262547154884273144035
