Eigenstate,Energy,Kinetic Energy,Potential Energy
1,0.500000000016866788244125977538069733,0.0,0.500000000016866788244125977538069733
2,1.84623093776121218052327676081975810,1.2,0.64623093776121218052327676081975810
3,3.93633761002837798180945548873032666,3.2,0.73633761002837798180945548873032666
4,6.79966527848784810176856887245382542,6.0,0.79966527848784810176856887245382542
5,10.4480465764525131490521772419528014,9.6,0.8480465764525131490521772419528014
6,14.8870659986758152056756512852825428,14.0,0.8870659986758152056756512852825428
7,20.1197208265953509208916866844758140,19.2,0.9197208265953509208916866844758140
8,26.1477838465877679586266970718384786,25.2,0.9477838465877679586266970718384786
9,32.9723835576591756586725952298071021,32.0,0.9723835576591756586725952298071021
10,40.5942802139580405946134990523679289,39.6,0.9942802139580405946134990523679289
11,49.0140093856253310929924519189440051,48.0,1.0140093856253310929924519189440051
12,58.2319621679656261395623330496902749,57.2,1.0319621679656261395623330496902749
13,68.2484326910446948058753396698642154,67.2,1.0484326910446948058753396698642154
14,79.0636476525456506574683221361379644,78.0,1.0636476525456506574683221361379644
15,90.6777854335831323430849411218121489,89.6,1.0777854335831323430849411218121489
16,103.090988903573746028422080647631456,102.0,1.090988903573746028422080647631456
17,116.303374253697568119189114199970240,115.2,1.103374253697568119189114199970240
18,130.315037247904343730206605972856534,129.2,1.115037247904343730206605972856534
19,145.126057746017463685814528836061456,144.0,1.126057746017463685814528836061456
20,160.736503041367900572544557130827017,159.6,1.136503041367900572544557130827017
21,177.146430366875905665856889143268351,176.0,1.146430366875905665856889143268351
22,194.355888806209748897531992328655254,193.2,1.155888806209748897531992328655254
23,212.364920771722243399511852736711285,211.2,1.164920771722243399511852736711285
24,231.173563161851167587175837462833864,230.0,1.173563161851167587175837462833864
25,250.781848277915191498795733705567189,249.6,1.181848277915191498795733705567189
26,271.189804557921464510207872000986408,270.0,1.189804557921464510207872000986408
27,292.397457169528191145632812609668445,291.2,1.197457169528191145632812609668445
28,314.404828493403670898523533657510803,313.2,1.204828493403670898523533657510803
29,337.211938520428250156239924309949817,336.0,1.211938520428250156239924309949817
30,360.818805180536146754040386505390998,359.6,1.218805180536146754040386505390998
31,385.225444616848169184505211649392707,384.0,1.225444616848169184505211649392707
32,410.431871415668452904290232436408661,409.2,1.231871415668452904290232436408661
33,436.438098800608688376357213778418804,435.2,1.238098800608688376357213778418804
34,463.244138797352769219960531119088115,462.0,1.244138797352769219960531119088115
35,490.850002374235593775198067287274782,489.6,1.250002374235593775198067287274782
36,519.255699562776274510568125003777264,518.0,1.255699562776274510568125003777264
37,548.461239561501925153606038874121295,547.2,1.261239561501925153606038874121295
38,578.466630825767776681653249043202071,577.2,1.266630825767776681653249043202071
39,609.271881145781524660390772213542263,608.0,1.271881145781524660390772213542263
40,640.876997714643989634302308790442634,639.6,1.276997714643989634302308790442634
41,673.281987187901421999574988435708785,672.0,1.281987187901421999574988435708785
42,706.486855735849790188492304200690882,705.2,1.286855735849790188492304200690882
43,740.491609089624904649500112828161350,739.2,1.291609089624904649500112828161350
44,775.296252581944136091657708502292774,774.0,1.296252581944136091657708502292774
45,810.900791183227916893218290165396630,809.6,1.300791183227916893218290165396630
46,847.305229533716078291514215609090971,846.0,1.305229533716078291514215609090971
47,884.509571972100599359011586207710973,883.2,1.309571972100599359011586207710973
48,922.513822561118757406167890969791910,921.2,1.313822561118757406167890969791910
49,961.317985110486006907844496529681205,960.0,1.317985110486006907844496529681205
50,1000.92206319749379133638475196707349,999.6,1.32206319749379133638475196707349
51,1041.32606018555202532200625907630403,1040.0,1.32606018555202532200625907630403
52,1082.52997924091763934686513388475729,1081.2,1.32997924091763934686513388475729
53,1124.53382334781812906061138175059311,1123.2,1.33382334781812906061138175059311
54,1167.33759532215149017380454453201151,1166.0,1.33759532215149017380454453201151
55,1210.94129782392044439305219354681637,1209.6,1.34129782392044439305219354681637
56,1255.34493336853878729161313796566271,1254.0,1.34493336853878729161313796566271
57,1300.54850433713049004409203007369050,1299.2,1.34850433713049004409203007369050
58,1346.55201298592738976756435724655749,1345.2,1.35201298592738976756435724655749
59,1393.35546145485854926419848980106338,1392.0,1.35546145485854926419848980106338
60,1440.95885177541334245274158447141223,1439.6,1.35885177541334245274158447141223
61,1489.36218587785075754873365586648750,1488.0,1.36218587785075754873365586648750
62,1538.56546559781910904820245206506230,1537.2,1.36546559781910904820245206506230
63,1588.56869268244310768057275897158828,1587.2,1.36869268244310768057275897158828
64,1639.37186879592892501660303409308769,1638.0,1.37186879592892501660303409308769
65,1690.97499552473235457719057053468430,1689.6,1.37499552473235457719057053468430
66,1743.37807438233032394983336107226554,1742.0,1.37807438233032394983336107226554
67,1796.58110681363175012821187046821798,1795.2,1.38110681363175012821187046821798
68,1850.58409419905997412954614053588096,1849.2,1.38409419905997412954614053588096
69,1905.38703785833569827365749001987927,1904.0,1.38703785833569827365749001987927
70,1960.98993905398642123940069532414903,1959.6,1.38993905398642123940069532414903
71,2017.39279899460576731040177897876924,2016.0,1.39279899460576731040177897876924
72,2074.59561883788380797965725614962127,2073.2,1.39561883788380797965725614962127
73,2132.59839969342742107614746676108123,2131.2,1.39839969342742107614746676108123
74,2191.40114262538791372806422494616940,2190.0,1.40114262538791372806422494616940
75,2251.00384865491150437615025349701205,2249.6,1.40384865491150437615025349701205
76,2311.40651876242680949389286038092739,2310.0,1.40651876242680949389286038092739
77,2372.60915388978217827289641617103685,2371.2,1.40915388978217827289641617103685
78,2434.61175494224455273357814552193173,2433.2,1.41175494224455273357814552193173
79,2497.41432279037048390133964480204266,2496.0,1.41432279037048390133964480204266
80,2561.01685827175899656272225036765103,2559.6,1.41685827175899656272225036765103
81,2625.41936219269514577457782200983831,2624.0,1.41936219269514577457782200983831
82,2690.62183532969234684873312371356876,2689.2,1.42183532969234684873312371356876
83,2756.62427843094087180083636442727546,2755.2,1.42427843094087180083636442727546
84,2823.42669221766928096035841442136569,2822.0,1.42669221766928096035841442136569
85,2891.02907738542499916254755446852249,2889.6,1.42907738542499916254755446852249
86,2959.43143460527973007774738023850970,2958.0,1.43143460527973007774738023850970
87,3028.63376452496494476268759970911743,3027.2,1.43376452496494476268759970911743
88,3098.63606776994225714062183200682406,3097.2,1.43606776994225714062183200682406
89,3169.43834494441311561502503409374612,3168.0,1.43834494441311561502503409374612
90,3241.04059663227189680483391906778376,3239.6,1.44059663227189680483391906778376
91,3313.44282339800616593716305785103286,3312.0,1.44282339800616593716305785103286
92,3386.64502578754758013589024889094653,3385.2,1.44502578754758013589024889094653
93,3460.64720432907664858944912050835691,3459.2,1.44720432907664858944912050835691
94,3535.44935953378432065242883419483437,3534.0,1.44935953378432065242883419483437
95,3611.05149189659315178155175764543570,3609.6,1.45149189659315178155175764543570
96,3687.45360189684059538448356963340261,3686.0,1.45360189684059538448356963340261
97,3764.65568999892678431782063437460384,3763.2,1.45568999892678431782063437460384
98,3842.65775665292899289630481190465841,3841.2,1.45775665292899289630481190465841
99,3921.45980229518481680312671429248771,3920.0,1.45980229518481680312671429248771
100,4001.06182734884596195076239630749515,3999.6,1.46182734884596195076239630749515
101,4081.46383222440440403763395263226947,4080.0,1.46383222440440403763395263226947
102,4162.66581732019255497116343369687459,4161.2,1.46581732019255497116343369687459
103,4244.66778302285896441417663242016959,4243.2,1.46778302285896441417663242016959
104,4327.46972970782097744690284523033701,4326.0,1.46972970782097744690284523033701
105,4411.07165773969567626305984569152974,4409.6,1.47165773969567626305984569152974
106,4495.47356747271034305426958836466413,4494.0,1.47356747271034305426958836466413
107,4580.67545925109360315509474210817157,4579.2,1.47545925109360315509474210817157
108,4666.67733340944832828143177611926837,4665.2,1.47733340944832828143177611926837
109,4753.47919027310731110146215429373618,4752.0,1.47919027310731110146215429373618
110,4841.08103015847265995823813448487945,4839.6,1.48103015847265995823813448487945
111,4929.48285337333979670178116036652783,4928.0,1.48285337333979670178116036652783
112,5018.68466021720689115493733452714049,5017.2,1.48466021720689115493733452714049
113,5108.68645098157051020144041170454011,5107.2,1.48645098157051020144041170454011
114,5199.48822595020821072687640157192058,5198.0,1.48822595020821072687640157192058
115,5291.08998539944876519474128882689308,5289.6,1.48998539944876519474128882689308
116,5383.49172959843066030813517935433397,5382.0,1.49172959843066030813517935433397
117,5476.69345880934947749462939030144950,5475.2,1.49345880934947749462939030144950
118,5570.69517328769472292073745896953102,5569.2,1.49517328769472292073745896953102
119,5665.49687328247664102870472933639905,5664.0,1.49687328247664102870472933639905
120,5761.09855903644351974609619004102749,5759.6,1.49855903644351974609619004102749
121,5857.50023078628995725141804110315277,5856.0,1.50023078628995725141804110315277
122,5954.70188876285654126587563410401429,5953.2,1.50188876285654126587563410401429
123,6052.70353319132135964843846927560054,6051.2,1.50353319132135964843846927560054
124,6151.50516429138374339157425192592304,6150.0,1.50516429138374339157425192592304
125,6251.10678227744061354875092081049146,6249.6,1.50678227744061354875092081049146
126,6351.50838735875578842750797762052452,6350.0,1.50838735875578842750797762052452
127,6452.70997973962258680401206615363197,6451.2,1.50997973962258680401206615363197
128,6554.71155961952004032782186637894751,6553.2,1.51155961952004032782186637894751
129,6657.51312719326301621234923728407490,6656.0,1.51312719326301621234923728407490
130,6761.11468265114653292463630333451266,6759.6,1.51468265114653292463630333451266
131,6865.51622617908453618395008650698777,6864.0,1.51622617908453618395008650698777
132,6970.71775795874338760149547673464272,6969.2,1.51775795874338760149547673464272
133,7076.71927816767030651196343238496504,7075.2,1.51927816767030651196343238496504
134,7183.52078697941699427167235351495931,7182.0,1.52078697941699427167235351495931
135,7291.12228456365865218971816417884315,7289.6,1.52228456365865218971816417884315
136,7399.52377108630860057101825811717952,7398.0,1.52377108630860057101825811717952
137,7508.72524670962869304219082543341986,7507.2,1.52524670962869304219082543341986
138,7618.72671159233570671922055221104425,7617.2,1.52671159233570671922055221104425
139,7729.52816588970388666995600733711945,7728.0,1.52816588970388666995600733711945
140,7841.12960975366380767851579660659044,7839.6,1.52960975366380767851579660659044
141,7953.53104333289771176119061454920541,7952.0,1.53104333289771176119061454920541
142,8066.73246677293147181016118398955442,8065.2,1.53246677293147181016118398955442
143,8180.73388021622332309118288381249353,8179.2,1.53388021622332309118288381249353
144,8295.53528380224949714175075154377542,8294.0,1.53528380224949714175075154377542
145,8411.13667766758688842849959631922864,8409.6,1.53667766758688842849959631922864
146,8527.53806194599287625384290900281418,8526.0,1.53806194599287625384290900281418
147,8644.73943676848241619888830339654708,8643.2,1.53943676848241619888830339654708
148,8762.74080226340251643163391548452997,8761.2,1.54080226340251643163391548452997
149,8881.54215855650420068137582913360680,8880.0,1.54215855650420068137582913360680
150,9001.14350577101206152017948605439751,8999.6,1.54350577101206152017948605439751
151,9121.54484402769149986564418467295965,9120.0,1.54484402769149986564418467295965
152,9242.74617344491374100410518256028185,9241.2,1.54617344491374100410518256028185
153,9364.74749413871871608394121186276697,9363.2,1.54749413871871608394121186276697
154,9487.54880622287589297820326348440005,9486.0,1.54880622287589297820326348440005
155,9611.15010980894313475253064694022723,9609.6,1.55010980894313475253064694022723
156,9735.55140500632366360469034429780942,9734.0,1.55140500632366360469034429780942
157,9860.75269192232120132231559652623676,9859.2,1.55269192232120132231559652623676
158,9986.75397066219335807691716507091132,9985.2,1.55397066219335807691716507091132
159,10113.5552413292033332269727850740607,10112.0,1.5552413292033332269727850740607
160,10241.1565040246699944676045186662914,10239.6,1.5565040246699944676045186662914
161,10369.5577588480163938229350272726387,10368.0,1.5577588480163938229350272726387
162,10498.7590058968167799421941695662875,10497.2,1.5590058968167799421941695662875
163,10628.7602452668421615528452888231508,10627.2,1.5602452668421615528452888231508
164,10759.5614770521044767072961323353959,10758.0,1.5614770521044767072961323353959
165,10891.1627013448994164233821065285950,10889.6,1.5627013448994164233821065285950
166,11023.5639182358479532341805951524855,11022.0,1.5639182358479532341805951524855
167,11156.7651278139366218794457847983206,11155.2,1.5651278139366218794457847983206
168,11290.7663301665565948275474610720432,11289.2,1.5663301665565948275474610720432
169,11425.5675253795415976899744203651098,11424.0,1.5675253795415976899744203651098
170,11561.1687135372047042714880855775024,11559.6,1.5687135372047042714880855775024
171,11697.5698947223740514503571129538737,11696.0,1.5698947223740514503571129538737
172,11834.7710690164275117553008479209694,11833.2,1.5710690164275117553008479209694
173,11972.7722364993263590414422844946904,11971.2,1.5722364993263590414422844946904
174,12111.5733972496479631087544555230920,12110.0,1.5733972496479631087544555230920
175,12251.1745513446175472479031284822171,12249.6,1.5745513446175472479031284822171
176,12391.5756988601390384198084969373381,12390.0,1.5756988601390384198084969373381
177,12532.7768398708250433294331821680152,12531.2,1.5768398708250433294331821680152
178,12674.7779744500259795481625778937130,12673.2,1.5779744500259795481625778937130
179,12817.5791026698583881296931073477141,12816.0,1.5791026698583881296931073477141
180,12961.1802246012324586657971190128779,12959.6,1.5802246012324586657971190128779
181,13105.5813403138787894305202764828631,13104.0,1.5813403138787894305202764828631
182,13250.7824498763744103081665096400662,13249.2,1.5824498763744103081665096400662
183,13396.7835533561680915543141545490689,13395.2,1.5835533561680915543141545490689
184,13543.5846508196049626313688832285646,13542.0,1.5846508196049626313688832285646
185,13691.1857423319504629267462388324955,13689.6,1.5857423319504629267462388324955
186,13839.5868279574136453222726179614980,13838.0,1.5868279574136453222726179614980
187,13988.7879077591698564152713456310251,13987.2,1.5879077591698564152713456310251
188,14138.7889817993828088276175210725042,14137.2,1.5889817993828088276175210725042
189,14289.5900501392260693338183571768735,14288.0,1.5900501392260693338183571768735
190,14441.1911128389039784591626347153343,14439.6,1.5911128389039784591626347153343
191,14593.5921699576720207704567254660567,14592.0,1.5921699576720207704567254660567
192,14746.7932215538566622415149628627839,14745.2,1.5932215538566622415149628627839
193,14900.7942676848746729972166588657084,14899.2,1.5942676848746729972166588657084
194,15055.5953084072519487768759975870035,15054.0,1.5953084072519487768759975870035
195,15211.1963437766418490492466477433801,15209.6,1.5963437766418490492466477433801
196,15367.5973738478430654710235143213667,15366.0,1.5973738478430654710235143213667
197,15524.7983986748170350641246435736640,15523.2,1.5983986748170350641246435736640
198,15682.7994183107049122736941654401708,15681.2,1.5994183107049122736941654401708
199,15841.6004328078441127406414904582034,15840.0,1.6004328078441127406414904582034
200,16001.2014422177844427288775112011306,15999.6,1.6014422177844427288775112011306
201,16161.6024465913038251836263085166211,16160.0,1.6024465913038251836263085166211
202,16322.8034459784236357969234165355284,16321.2,1.6034459784236357969234165355284
203,16484.8044404284236597349824204839102,16483.2,1.6044404284236597349824204839102
204,16647.6054299898566806422910782261209,16646.0,1.6054299898566806422910782261209
205,16811.2064147105627118877487435220732,16809.6,1.6064147105627118877487435220732
206,16975.6073946376828830715416951287143,16974.0,1.6073946376828830715416951287143
207,17140.8083698176729876633815660987773,17139.2,1.6083698176729876633815660987773
208,17306.8093402963167059935112247666915,17305.2,1.6093402963167059935112247666915
209,17473.6103061187385093393053791410247,17472.0,1.6103061187385093393053791410247
210,17641.2112673294162566030646498598494,17639.6,1.6112673294162566030646498598494
211,17809.6122239721934909399591859834387,17808.0,1.6122239721934909399591859834387
212,17978.8131760902914465632436682373081,17977.2,1.6131760902914465632436682373081
213,18148.8141237263207701046312144172291,18147.2,1.6141237263207701046312144172291
214,18319.6150669222929715055095244194164,18318.0,1.6150669222929715055095244194164
215,18491.2160057196316036452235139329344,18489.6,1.6160057196316036452235139329344
216,18663.6169401591831846608746854737297,18662.0,1.6169401591831846608746854737297
217,18836.8178702812278669176722799645993,18835.2,1.6178702812278669176722799645993
218,19010.8187961254898616022787701666459,19009.2,1.6187961254898616022787701666459
219,19185.6197177311476222120782165172625,19184.0,1.6197177311476222120782165172625
220,19361.2206351368437994484877406072640,19359.6,1.6206351368437994484877406072640
221,19537.6215483806949654165942728790658,19536.0,1.6215483806949654165942728790658
222,19714.8224575003011243284743428855654,19713.2,1.6224575003011243284743428855654
223,19892.8233625327550032710201763826753,19891.2,1.6233625327550032710201763826753
224,20071.6242635146511380975623498450082,20070.0,1.6242635146511380975623498450082
225,20251.2251604820947569998234539819831,20249.6,1.6251604820947569998234539819831
226,20431.6260534707104652981353988456572,20430.0,1.6260534707104652981353988456572
227,20612.8269425156507400927586165413321,20611.2,1.6269425156507400927586165413321
228,20794.8278276516042365864941122817592,20793.2,1.6278276516042365864941122817592
229,20977.6287089128039132307233849576515,20976.0,1.6287089128039132307233849576515
230,21161.2295863330349803811041282120301,21159.6,1.6295863330349803811041282120301
231,21345.6304599456426742521758016774259,21344.0,1.6304599456426742521758016774259
232,21530.8313297835398665797792424496468,21529.2,1.6313297835398665797792424496468
233,21716.8321958792145049767780878617624,21715.2,1.6321958792145049767780878617624
234,21903.6330582647369001281310528570501,21902.0,1.6330582647369001281310528570501
235,22091.2339169717668529963980771548411,22089.6,1.6339169717668529963980771548411
236,22279.6347720315606317364314238270494,22278.0,1.6347720315606317364314238270494
237,22468.8356234749778019393612902190919,22467.2,1.6356234749778019393612902190919
238,22658.8364713324879119368691276696495,22657.2,1.6364713324879119368691276696495
