Eigenstate,Energy,Kinetic Energy,Potential Energy
1,0.500000000058619016052749394469138218,0.0,0.500000000058619016052749394469138218
2,1.84623093803374932312497451367050089,1.2,0.64623093803374932312497451367050089
3,3.93633761082893548048278652242651029,3.2,0.73633761082893548048278652242651029
4,6.79966528015532262160852647744459681,6.0,0.79966528015532262160852647744459681
5,10.4480465793409305321610559171491756,9.6,0.8480465793409305321610559171491756
6,14.8870660031454036860305088408330808,14.0,0.8870660031454036860305088408330808
7,20.1197208330092525093617252766038039,19.2,0.9197208330092525093617252766038039
8,26.1477838553106674058549405857751552,25.2,0.9477838553106674058549405857751552
9,32.9723835690566633361439656640637916,32.0,0.9723835690566633361439656640637916
10,40.5942802283962895107759249016450761,39.6,0.9942802283962895107759249016450761
11,49.0140094034709217904647388707301788,48.0,1.0140094034709217904647388707301788
12,58.2319621895854469509442741731693573,57.2,1.0319621895854469509442741731693573
13,68.2484327168058831357121594244215116,67.2,1.0484327168058831357121594244215116
14,79.0636476828155578754908996902762327,78.0,1.0636476828155578754908996902762327
15,90.6777854687293029223620684208048895,89.6,1.0777854687293029223620684208048895
16,103.090988943963905632163798558775311,102.0,1.090988943963905632163798558775311
17,116.303374299699617509257602022112460,115.2,1.103374299699617509257602022112460
18,130.315037299886356580557566123416996,129.2,1.115037299886356580557566123416996
19,145.126057804347687086642645767254908,144.0,1.126057804347687086642645767254908
20,160.736503106414757433331129385744910,159.6,1.136503106414757433331129385744910
21,177.146430439007998487531878616364640,176.0,1.146430439007998487531878616364640
22,194.355888885795864551048712945209370,193.2,1.155888885795864551048712945209370
23,212.364920859131358657364330589852275,211.2,1.164920859131358657364330589852275
24,231.173563257452455227415935673652677,230.0,1.173563257452455227415935673652677
25,250.781848382078026850929467573377553,249.6,1.181848382078026850929467573377553
26,271.189804671015432346973589317073148,270.0,1.189804671015432346973589317073148
27,292.397457291923092849133093949482624,291.2,1.197457291923092849133093949482624
28,314.404828625469531846744221753309008,313.2,1.204828625469531846744221753309008
29,337.211938662535327288773475897235899,336.0,1.211938662535327288773475897235899
30,360.818805333054936285258899019361661,359.6,1.218805333054936285258899019361661
31,385.225444780149414439466385623172670,384.0,1.225444780149414439466385623172670
32,410.431871590123152257972287496071867,409.2,1.231871590123152257972287496071867
33,436.438098986588103280871303614182612,435.2,1.238098986588103280871303614182612
34,463.244138995228432307510528163480604,462.0,1.244138995228432307510528163480604
35,490.850002584379317026983657478645252,489.6,1.250002584379317026983657478645252
36,519.255699785560157483728808660821026,518.0,1.255699785560157483728808660821026
37,548.461239797298363259806311846220224,547.2,1.261239797298363259806311846220224
38,578.466631074949469512105416962172655,577.2,1.266631074949469512105416962172655
39,609.271881408721484353070888229801181,608.0,1.271881408721484353070888229801181
40,640.876997991715549279888812267757923,639.6,1.276997991715549279888812267757923
41,673.281987479478244083268242283372309,672.0,1.281987479478244083268242283372309
42,706.486856042305875065386951202949790,705.2,1.286856042305875065386951202949790
43,740.491609411334599051604313551249769,739.2,1.291609411334599051604313551249769
44,775.296252919282141665002040005384670,774.0,1.296252919282141665002040005384670
45,810.900791536569298763786747880249094,809.6,1.300791536569298763786747880249094
46,847.305229903436273658971550445940065,846.0,1.305229903436273658971550445940065
47,884.509572358575426117403868539085799,883.2,1.309572358575426117403868539085799
48,922.513822964724422790944051736869900,921.2,1.313822964724422790944051736869900
49,961.317985531599116168691074474473387,960.0,1.317985531599116168691074474473387
50,1000.92206363649135643548885632217306,999.6,1.32206363649135643548885632217306
51,1041.32606064281147365746661308759878,1040.0,1.32606064281147365746661308759878
52,1082.52997971681682250106080938278469,1081.2,1.32997971681682250106080938278469
53,1124.53382384273533157341503767589987,1123.2,1.33382384273533157341503767589987
54,1167.33759583646543834059368921890120,1166.0,1.33759583646543834059368921890120
55,1210.94129835801031508752979555918399,1209.6,1.34129835801031508752979555918399
56,1255.34493392278421681349917502011664,1254.0,1.34493392278421681349917502011664
57,1300.54850491191158299179141685536215,1299.2,1.34850491191158299179141685536215
58,1346.55201358162472793595532965866609,1345.2,1.35201358162472793595532965866609
59,1393.35546207185320056771921173192105,1392.0,1.35546207185320056771921173192105
60,1440.95885241408686987398272546274542,1439.6,1.35885241408686987398272546274542
61,1489.36218653858522811277115746733686,1488.0,1.36218653858522811277115746733686
62,1538.56546628099710282292831264539878,1537.2,1.36546628099710282292831264539878
63,1588.56869338844772680330268606466814,1587.2,1.36869338844772680330268606466814
64,1639.37186952514380274725861280196604,1638.0,1.37186952514380274725861280196604
65,1690.97499627754166437837072848680666,1689.6,1.37499627754166437837072848680666
66,1743.37807515911878859410512194256814,1742.0,1.37807515911878859410512194256814
67,1796.58110761478465083296435250826841,1795.2,1.38110761478465083296435250826841
68,1850.58409502496315971976440274524440,1849.2,1.38409502496315971976440274524440
69,1905.38703870937559437298454962915970,1904.0,1.38703870937559437298454962915970
70,1960.98993993055003948986639043704633,1959.6,1.38993993055003948986639043704633
71,2017.39279989708071462120736212633714,2016.0,1.39279989708071462120736212633714
72,2074.59561976665829580541330985665271,2073.2,1.39561976665829580541330985665271
73,2132.59840064889027472497147382450688,2131.2,1.39840064889027472497147382450688
74,2191.40114360792858169995186076110894,2190.0,1.40114360792858169995186076110894
75,2251.00384966492006773204199226351031,2249.6,1.40384966492006773204199226351031
76,2311.40651980029399125586430466362026,2310.0,1.40651980029399125586430466362026
77,2372.60915495589935285590752202707686,2371.2,1.40915495589935285590752202707686
78,2434.61175603700375540922267822667122,2433.2,1.41175603700375540922267822667122
79,2497.41432391416442029404227952527817,2496.0,1.41432391416442029404227952527817
80,2561.01685942498105217883628437040977,2559.6,1.41685942498105217883628437040977
81,2625.41936337573939556484214050097792,2624.0,1.41936337573939556484214050097792
82,2690.62183654295356480455227589771731,2689.2,1.42183654295356480455227589771731
83,2756.62427967481454058485271398906955,2755.2,1.42427967481454058485271398906955
84,2823.42669349255160157179036678038189,2822.0,1.42669349255160157179036678038189
85,2891.02907869171290063777271236641720,2889.6,1.42907869171290063777271236641720
86,2959.43143594337087922661413002397370,2958.0,1.43143594337087922661413002397370
87,3028.63376589525775594104342259982400,3027.2,1.43376589525775594104342259982400
88,3098.63606917283590205955109126213369,3097.2,1.43606917283590205955109126213369
89,3169.43834638030753318729352018927547,3168.0,1.43834638030753318729352018927547
90,3241.04059810156780302904182598533767,3239.6,1.44059810156780302904182598533767
91,3313.44282490110506382011256664091686,3312.0,1.44282490110506382011256664091686
92,3386.64502732485176965367811919219861,3385.2,1.44502732485176965367811919219861
93,3460.64720590098923668779907835212185,3459.2,1.44720590098923668779907835212185
94,3535.44936114070923128678284630784374,3534.0,1.44936114070923128678284630784374
95,3611.05149353893513599744359092083195,3609.6,1.45149353893513599744359092083195
96,3687.45360357500524143872216582772922,3686.0,1.45360357500524143872216582772922
97,3764.65569171332052784101538166924344,3763.2,1.45569171332052784101538166924344
98,3842.65775840395912709726873237177972,3841.2,1.45775840395912709726873237177972
99,3921.45980408325950271569819326641612,3920.0,1.45980408325950271569819326641612
100,4001.06182917437423872359012270776039,3999.6,1.46182917437423872359012270776039
101,4081.46383408779619926747419458172362,4080.0,1.46383408779619926747419458172362
102,4162.66581922185869508024310135743027,4161.2,1.46581922185869508024310135743027
103,4244.66778496321118507217970913383104,4243.2,1.46778496321118507217970913383104
104,4327.46973168727193403814259956242876,4326.0,1.46973168727193403814259956242876
105,4411.07165975865895439940315721591701,4409.6,1.47165975865895439940315721591701
106,4495.47356953160046913438450120405897,4494.0,1.47356953160046913438450120405897
107,4580.67546135032605497059658426947229,4579.2,1.47546135032605497059658426947229
108,4666.67733554943954567050793681715142,4665.2,1.47733554943954567050793681715142
109,4753.47919245427470665055996265520148,4752.0,1.47919245427470665055996265520148
110,4841.08103238123462975240497259668109,4839.6,1.48103238123462975240497259668109
111,4929.48285563811573112425053944907081,4928.0,1.48285563811573112425053944907081
112,5018.68466252441718573655936519228522,5017.2,1.48466252441718573655936519228522
113,5108.68645333163657652055980452018802,5107.2,1.48645333163657652055980452018802
114,5199.48822834355248736026590102078247,5198.0,1.48822834355248736026590102078247
115,5291.08998783649472872020330561608674,5289.6,1.48998783649472872020330561608674
116,5383.49173207960283635938920709857247,5382.0,1.49173207960283635938920709857247
117,5476.69346133507345186910782749464552,5475.2,1.49346133507345186910782749464552
118,5570.69517585839715274091725300311858,5569.2,1.49517585839715274091725300311858
119,5665.49687589858526595760743016688051,5664.0,1.49687589858526595760743016688051
120,5761.09856169838717325759421449414440,5759.6,1.49856169838717325759421449414440
121,5857.50023349449857795598980971584344,5856.0,1.50023349449857795598980971584344
122,5954.70189151776118429245775319375824,5953.2,1.50189151776118429245775319375824
123,6052.70353599335420808302818351314920,6051.2,1.50353599335420808302818351314920
124,6151.50516714097811977324086893666640,6150.0,1.50516714097811977324086893666640
125,6251.10678517503099142372029372071740,6249.6,1.50678517503099142372029372071740
126,6351.50839030477780396198957295044429,6350.0,1.50839030477780396198957295044429
127,6452.70998273451305045644366707296146,6451.2,1.50998273451305045644366707296146
128,6554.71156266371694858121268495383975,6553.2,1.51156266371694858121268495383975
129,6657.51313028720556336740776840868570,6656.0,1.51313028720556336740776840868570
130,6761.11468579527512295437496620254146,6759.6,1.51468579527512295437496620254146
131,6865.51622937384079465046455293208436,6864.0,1.51622937384079465046455293208436
132,6970.71776120457017363562278564231364,6969.2,1.51776120457017363562278564231364
133,7076.71928146501172485652819084508767,7075.2,1.51928146501172485652819084508767
134,7183.52079032871840738903724885004101,7182.0,1.52079032871840738903724885004101
135,7291.12228796536669243436054691240403,7289.6,1.52228796536669243436054691240403
136,7399.52377454087118242786088323427254,7398.0,1.52377454087118242786088323427254
137,7508.72525021749502543142115470993471,7507.2,1.52525021749502543142115470993471
138,7618.72671515395630536833939640816831,7617.2,1.52671515395630536833939640816831
139,7729.52816950553058655380260691610928,7728.0,1.52816950553058655380260691610928
140,7841.12961342414977552802305000998295,7839.6,1.52961342414977552802305000998295
141,7953.53104705849745864163061410973670,7952.0,1.53104705849745864163061410973670
142,8066.73247055410086576964810287179793,8065.2,1.53247055410086576964810287179793
143,8180.73388405341960188020676798372918,8179.2,1.53388405341960188020676798372918
144,8295.53528769593128100452291179353022,8294.0,1.53528769593128100452291179353022
145,8411.13668161821419296689691068094137,8409.6,1.53668161821419296689691068094137
146,8527.53806595402712536474554818473896,8526.0,1.53806595402712536474554818473896
147,8644.73944083438645508571257980147744,8643.2,1.53944083438645508571257980147744
148,8762.74080638764062469086885932717823,8761.2,1.54080638764062469086885932717823
149,8881.54216273954210546493982600970170,8880.0,1.54216273954210546493982600970170
150,9001.14351001331695077442009184010447,8999.6,1.54351001331695077442009184010447
151,9121.54484832973203564781245740458250,9120.0,1.54484832973203564781245740458250
152,9242.74617780716007287714276703802177,9241.2,1.54617780716007287714276703802177
153,9364.74749856164249459042656889303206,9363.2,1.54749856164249459042656889303206
154,9487.54881070695028319431083476072129,9486.0,1.54881070695028319431083476072129
155,9611.15011435464282992286486275229123,9609.6,1.55011435464282992286486275229123
156,9735.55140961412489885886446453445042,9734.0,1.55140961412489885886446453445042
157,9860.75269659270176747415294800435879,9859.2,1.55269659270176747415294800435879
158,9986.75397539563261550716106988691518,9985.2,1.55397539563261550716106988691518
159,10113.5552461261822258503993962727674,10112.0,1.5552461261822258503993962727674
160,10241.1565088856710637854413784431304,10239.6,1.5565088856710637854413784431304
161,10369.5577637735237930614965573016388,10368.0,1.5577637735237930614965573016388
162,10498.7590108873162882786539430779319,10497.2,1.5590108873162882786539430779319
163,10628.7602503228211984290734619903331,10627.2,1.5602503228211984290734619903331
164,10759.5614821740521162326995930272706,10758.0,1.5614821740521162326995930272706
165,10891.1627065333064018676936858521820,10889.6,1.5627065333064018676936858521820
166,11023.5639234912067116111525526275503,11022.0,1.5639234912067116111525526275503
167,11156.7651331367412786224120996147582,11155.2,1.5651331367412786224120996147582
168,11290.7663355573029885578290636064076,11289.2,1.5663355573029885578290636064076
169,11425.5675308387272950791101088107850,11424.0,1.5675308387272950791101088107850
170,11561.1687190653290149982843953442696,11559.6,1.5687190653290149982843953442696
171,11697.5699003199380432537592391147517,11696.0,1.5699003199380432537592391147517
172,11834.7710746839340255840969899328652,11833.2,1.5710746839340255840969899328652
173,11972.7722422372800243018234061513399,11971.2,1.5722422372800243018234061513399
174,12111.5734030585552130107616662243773,12110.0,1.5734030585552130107616662243773
175,12251.1745572249866342518050107395761,12249.6,1.5745572249866342518050107395761
176,12391.5757048124800497834609367044052,12390.0,1.5757048124800497834609367044052
177,12532.7768458956499167576847579300568,12531.2,1.5768458956499167576847579300568
178,12674.7779805478485189453790032335396,12673.2,1.5779805478485189453790032335396
179,12817.5791088411942794564851008894920,12816.0,1.5791088411942794564851008894920
180,12961.1802308465992859010467999954679,12959.6,1.5802308465992859010467999954679
181,13105.5813466337960506398121320971086,13104.0,1.5813466337960506398121320971086
182,13250.7824562713635338197402113213977,13249.2,1.5824562713635338197402113213977
183,13396.7835598267524522436676073190300,13395.2,1.5835598267524522436676073190300
184,13543.5846573663098983156514234904548,13542.0,1.5846573663098983156514234904548
185,13691.1857489553032908700935999819409,13689.6,1.5857489553032908700935999819409
186,13839.5868346579436788532463937526499,13838.0,1.5868346579436788532463937526499
187,13988.7879145374084216575783649044416,13987.2,1.5879145374084216575783649044416
188,14138.7889886558632615452958858411712,14137.2,1.5889886558632615452958858411712
189,14289.5900570744838118920894957877453,14288.0,1.5900570744838118920894957877453
190,14441.1911198534764769021607693878288,14439.6,1.5911198534764769021607693878288
191,14593.5921770520988220170597941128046,14592.0,1.5921770520988220170597941128046
192,14746.7932287286794114005136488372086,14745.2,1.5932287286794114005136488372086
193,14900.7942749406371308030709916684031,14899.2,1.5942749406371308030709916684031
194,15055.5953157445000091473220507840190,15054.0,1.5953157445000091473220507840190
195,15211.1963511959235567660287812910554,15209.6,1.5963511959235567660287812910554
196,15367.5973813497086339850411945710464,15366.0,1.5973813497086339850411945710464
197,15524.7984062598188644262963523773364,15523.2,1.5984062598188644262963523773364
198,15682.7994259793976071928542580969156,15681.2,1.5994259793976071928542580969156
199,15841.6004405607845007698003156762100,15840.0,1.6004405607845007698003156762100
200,16001.2014500555315925811884914606246,15999.6,1.6014500555315925811884914606246
201,16161.6024545144190651794183052143913,16160.0,1.6024545144190651794183052143913
202,16322.8034539874705724431711178404390,16321.2,1.6034539874705724431711178404390
203,16484.8044485239681964386019501503841,16483.2,1.6044485239681964386019501503841
204,16647.6054381724670365586628162908375,16646.0,1.6054381724670365586628162908375
205,16811.2064229808094409058842813781919,16809.6,1.6064229808094409058842813781919
206,16975.6074029961388929373272616068320,16974.0,1.6074029961388929373272616068320
207,17140.8083782649135592423455982797141,17139.2,1.6083782649135592423455982797141
208,17306.8093488329195126745789726197601,17305.2,1.6093488329195126745789726197601
209,17473.6103147452836365810199646854090,17472.0,1.6103147452836365810199646854090
210,17641.2112760464862216237691207779628,17639.6,1.6112760464862216237691207779628
211,17809.6122327803732625534509161652481,17808.0,1.6122327803732625534509161652481
212,17978.8131849901684651614288163409802,17977.2,1.6131849901684651614288163409802
213,18148.8141327184849677887235011293194,18147.2,1.6141327184849677887235011293194
214,18319.6150760073367923673344059708502,18318.0,1.6150760073367923673344059708502
215,18491.2160148981500242002060138791173,18489.6,1.6160148981500242002060138791173
216,18663.6169494317737344343067034536963,18662.0,1.6169494317737344343067034536963
217,18836.8178796484906491858721925368821,18835.2,1.6178796484906491858721925368821
218,19010.8188055880275742902742385831795,19009.2,1.6188055880275742902742385831795
219,19185.6197272895655789494617118879823,19184.0,1.6197272895655789494617118879823
220,19361.2206447917499507851112230452767,19359.6,1.6206447917499507851112230452767
221,19537.6215581326999201997895369609912,19536.0,1.6215581326999201997895369609912
222,19714.8224673500181712435030550971669,19713.2,1.6224673500181712435030550971669
223,19892.8233724808001325464773228363723,19891.2,1.6233724808001325464773228363723
224,20071.6242735616430633774757174445120,20070.0,1.6242735616430633774757174445120
225,20251.2251706286549373842119654735677,20249.6,1.6251706286549373842119654735677
226,20431.6260637174631275538079642143902,20430.0,1.6260637174631275538079642143902
227,20612.8269528632229010361558618559516,20611.2,1.6269528632229010361558618559516
228,20794.8278381006257256403957771326460,20793.2,1.6278381006257256403957771326460
229,20977.6287194639073951566641849958113,20976.0,1.6287194639073951566641849958113
230,21161.2295969868559781893623822997257,21159.6,1.6295969868559781893623822997257
231,21345.6304707028195922912199768012956,21344.0,1.6304707028195922912199768012956
232,21530.8313406447140138070792241620552,21529.2,1.6313406447140138070792241620552
233,21716.8322068450301184129094490890410,21715.2,1.6322068450301184129094490890410
234,21903.6330693358411684961230813084680,21902.0,1.6330693358411684961230813084680
235,22091.2339281488099405482981242232700,22089.6,1.6339281488099405482981242232700
236,22279.6347833151957022690814009689044,22278.0,1.6347833151957022690814009689044
237,22468.8356348658610430014046076862481,22467.2,1.6356348658610430014046076862481
238,22658.8364828312785592290301090737348,22657.2,1.6364828312785592290301090737348
