Eigenstate,Energy,Kinetic Energy,Potential Energy
1,0.500000000107225506594096912717730834,0.0,0.500000000107225506594096912717730834
2,1.84623093835102900089261070102062467,1.2,0.64623093835102900089261070102062467
3,3.93633761176092731624969581407237945,3.2,0.73633761176092731624969581407237945
4,6.79966528209657912069122676241590609,6.0,0.79966528209657912069122676241590609
5,10.4480465827036368471368668092384974,9.6,0.8480465827036368471368668092384974
6,14.8870660083489921778749528997735332,14.0,0.8870660083489921778749528997735332
7,20.1197208404765810774398071885880352,19.2,0.9197208404765810774398071885880352
8,26.1477838654664302031301954919477968,25.2,0.9477838654664302031301954919477968
9,32.9723835823266558942589775829366254,32.0,0.9723835823266558942589775829366254
10,40.5942802452070395781571626749251144,39.6,0.9942802452070395781571626749251144
11,49.0140094242494923366156831735754809,48.0,1.0140094242494923366156831735754809
12,58.2319622147593269091862177800949333,57.2,1.0319622147593269091862177800949333
13,68.2484327468029259162662025068359592,67.2,1.0484327468029259162662025068359592
14,79.0636477180639473757252083278590568,78.0,1.0636477180639473757252083278590568
15,90.6777855096575361308878537978673947,89.6,1.0777855096575361308878537978673947
16,103.090988991000785661776309051240868,102.0,1.090988991000785661776309051240868
17,116.303374353274253419191327244507901,115.2,1.103374353274253419191327244507901
18,130.315037360428167757379758480880468,129.2,1.115037360428167757379758480880468
19,145.126057872286410771010213178696240,144.0,1.126057872286410771010213178696240
20,160.736503182180458471620240897931021,159.6,1.136503182180458471620240897931021
21,177.146430523031080692387256841737626,176.0,1.146430523031080692387256841737626
22,194.355888978507083249423416933846190,193.2,1.155888978507083249423416933846190
23,212.364920960961834131791647752973333,211.2,1.164920960961834131791647752973333
24,231.173563368833686841276662538367766,230.0,1.173563368833686841276662538367766
25,250.781848503441907706484772680057983,249.6,1.181848503441907706484772680057983
26,271.189804802794264365245913820496296,270.0,1.189804802794264365245913820496296
27,292.397457434549602189208486918882488,291.2,1.197457434549602189208486918882488
28,314.404828779376884602518671644397982,313.2,1.204828779376884602518671644397982
29,337.211938828157145416052721394212435,336.0,1.211938828157145416052721394212435
30,360.818805510825313723101557667382813,359.6,1.218805510825313723101557667382813
31,385.225444970502933397857941410120843,384.0,1.225444970502933397857941410120843
32,410.431871793494899650106826544561933,409.2,1.231871793494899650106826544561933
33,436.438099203413687283040151606370174,435.2,1.238099203413687283040151606370174
34,463.244139225943999033235231336380018,462.0,1.244139225943999033235231336380018
35,490.850002829421567304859658613989796,489.6,1.250002829421567304859658613989796
36,519.255700045366363730664735241721970,518.0,1.255700045366363730664735241721970
37,548.461240072306386443097924676398745,547.2,1.261240072306386443097924676398745
38,578.466631365597776195180721949997755,577.2,1.266631365597776195180721949997755
39,609.271881715449163820864414623762173,608.0,1.271881715449163820864414623762173
40,640.876998314962330740709358123274762,639.6,1.276998314962330740709358123274762
41,673.281987819684513944761461438792682,672.0,1.281987819684513944761461438792682
42,706.486856399912694282797627982428690,705.2,1.286856399912694282797627982428690
43,740.491609786783720547040149929738879,739.2,1.291609786783720547040149929738879
44,775.296253313016027816812376731618912,774.0,1.296253313016027816812376731618912
45,810.900791949031138965512752761013842,809.6,1.300791949031138965512752761013842
46,847.305230335070001947611799764268612,846.0,1.305230335070001947611799764268612
47,884.509572809825738870981276851668750,883.2,1.309572809825738870981276851668750
48,922.513823436036796495565327282891429,921.2,1.313823436036796495565327282891429
49,961.317986023419825255464481377694216,960.0,1.317986023419825255464481377694216
50,1000.92206414926749118781554413770867,999.6,1.32206414926749118781554413770867
51,1041.32606117699095818934964932110856,1040.0,1.32606117699095818934964932110856
52,1082.52998027284843280718734561300844,1081.2,1.32998027284843280718734561300844
53,1124.53382442106871365186403249284975,1123.2,1.33382442106871365186403249284975
54,1167.33759643755112638910652152397811,1166.0,1.33759643755112638910652152397811
55,1210.94129898229974977435569396133364,1209.6,1.34129898229974977435569396133364
56,1255.34493457072976362389356322834657,1254.0,1.34493457072976362389356322834657
57,1300.54850558396655065130402852266520,1299.2,1.34850558396655065130402852266520
58,1346.55201427824338691169784793675434,1345.2,1.35201427824338691169784793675434
59,1393.35546279349080164884945853466364,1392.0,1.35546279349080164884945853466364
60,1440.95885316119966283268566110667277,1439.6,1.35885316119966283268566110667277
61,1489.36218731163048044705613402949404,1488.0,1.36218731163048044705613402949404
62,1538.56546708043311858259823839826104,1537.2,1.36546708043311858259823839826104
63,1588.56869421473386550048390714935854,1587.2,1.36869421473386550048390714935854
64,1639.37187037874049835291135575907254,1638.0,1.37187037874049835291135575907254
65,1690.97499715891044440622897589535496,1689.6,1.37499715891044440622897589535496
66,1743.37807606872229327352193694203075,1742.0,1.37807606872229327352193694203075
67,1796.58110855308665237216444519572418,1795.2,1.38110855308665237216444519572418
68,1850.58409599242858166103030029335541,1849.2,1.38409599242858166103030029335541
69,1905.38703970647053104132627512193916,1904.0,1.38703970647053104132627512193916
70,1960.98994095774177553674686174616766,1959.6,1.38994095774177553674686174616766
71,2017.39280095483774466491786668016620,2016.0,1.39280095483774466491786668016620
72,2074.59562085545034416971423556195516,2073.2,1.39562085545034416971423556195516
73,2132.59840176918831527763441826186162,2131.2,1.39840176918831527763441826186162
74,2191.40114476020485779285917903021742,2190.0,1.40114476020485779285917903021742
75,2251.00385084964811224451991826844859,2249.6,1.40385084964811224451991826844859
76,2311.40652101794864674294509108685330,2310.0,1.40652101794864674294509108685330
77,2372.60915620695679180323554634978733,2371.2,1.40915620695679180323554634978733
78,2434.61175732194150059633862970177304,2433.2,1.41175732194150059633862970177304
79,2497.41432523346136526779856470602089,2496.0,1.41432523346136526779856470602089
80,2561.01686077911748183871568945787999,2559.6,1.41686077911748183871568945787999
81,2625.41936476519700686197091134757194,2624.0,1.41936476519700686197091134757194
82,2690.62183796821548755621767746449562,2689.2,1.42183796821548755621767746449562
83,2756.62428113636535840635408092827396,2755.2,1.42428113636535840635408092827396
84,2823.42669499087737292747177852590479,2822.0,1.42669499087737292747177852590479
85,2891.02908022730118001310465602033746,2889.6,1.42908022730118001310465602033746
86,2959.43143751671073842321062486158865,2958.0,1.43143751671073842321062486158865
87,3028.63376750683980549652075285779542,3027.2,1.43376750683980549652075285779542
88,3098.63607082315231279415366671892694,3097.2,1.43607082315231279415366671892694
89,3169.43834806985205787923229084923644,3168.0,1.43834806985205787923229084923644
90,3241.04059983083579822051041233723526,3239.6,1.44059983083579822051041233723526
91,3313.44282667059351175596685198066443,3312.0,1.44282667059351175596685198066443
92,3386.64502913505930035478492997741806,3385.2,1.44502913505930035478492997741806
93,3460.64720775241615016108068009721583,3459.2,1.44720775241615016108068009721583
94,3535.44936303385751987400454952619344,3534.0,1.44936303385751987400454952619344
95,3611.05149547430850686481307254260080,3609.6,1.45149547430850686481307254260080
96,3687.45360555310913920939041844003785,3686.0,1.45360555310913920939041844003785
97,3764.65569373466215737259111822806430,3763.2,1.45569373466215737259111822806430
98,3842.65776046904747640647973613978212,3841.2,1.45776046904747640647973613978212
99,3921.45980619260536605235585584426085,3920.0,1.45980619260536605235585584426085
100,4001.06183132849023979603560994839798,3999.6,1.46183132849023979603560994839798
101,4081.46383628719681462170803566655171,4080.0,1.46383628719681462170803566655171
102,4162.66582146706027763496286741724079,4161.2,1.46582146706027763496286741724079
103,4244.66778725473198781197443435747134,4243.2,1.46778725473198781197443435747134
104,4327.46973402563213386711640633923145,4326.0,1.46973402563213386711640633923145
105,4411.07166214438067615752495807186073,4409.6,1.47166214438067615752495807186073
106,4495.47357196520780977888524445559537,4494.0,1.47357196520780977888524445559537
107,4580.67546383234510792476079650338123,4579.2,1.47546383234510792476079650338123
108,4666.67733808039842534223149964386019,4665.2,1.47733808039842534223149964386019
109,4753.47919503470357312307229680744756,4752.0,1.47919503470357312307229680744756
110,4841.08103501166571364957971174061753,4839.6,1.48103501166571364957971174061753
111,4929.48285831908335865295559792233491,4928.0,1.48285831908335865295559792233491
112,5018.68466525645780390852452869126462,5017.2,1.48466525645780390852452869126462
113,5108.68645611528877855626714729487495,5107.2,1.48645611528877855626714729487495
114,5199.48823117935703827739659419950699,5198.0,1.48823117935703827739659419950699
115,5291.08999072499459110920258158896611,5289.6,1.48999072499459110920258158896611
116,5383.49173502134319634874017464845348,5382.0,1.49173502134319634874017464845348
117,5476.69346433060174528293396070702416,5475.2,1.49346433060174528293396070702416
118,5570.69517890826309145156337271140597,5569.2,1.49517890826309145156337271140597
119,5665.49687900334086443587887639239765,5664.0,1.49687900334086443587887639239765
120,5761.09856485858677532336495428245161,5759.6,1.49856485858677532336495428245161
121,5857.50023671069888373192117590253348,5856.0,1.50023671069888373192117590253348
122,5954.70189479052127736360121147661809,5953.2,1.50189479052127736360121147661809
123,6052.70353932323558286511787947524665,6051.2,1.50353932323558286511787947524665
124,6151.50517052854470909251412024667413,6150.0,1.50517052854470909251412024667413
125,6251.10678862084919431113767028434410,6249.6,1.50678862084919431113767028434410
126,6351.50839380941651366475986154463386,6350.0,1.50839380941651366475986154463386
127,6452.70998629854368266979320967241551,6451.2,1.50998629854368266979320967241551
128,6554.71156628771346990337361484237828,6553.2,1.51156628771346990337361484237828
129,6657.51313397174451998083480891934159,6656.0,1.51313397174451998083480891934159
130,6761.11468954093566953623661298928342,6759.6,1.51468954093566953623661298928342
131,6865.51623318120472351549098493818016,6864.0,1.51623318120472351549098493818016
132,6970.71776507422194411442994992798189,6969.2,1.51776507422194411442994992798189
133,7076.71928539753849291257498547692459,7075.2,1.51928539753849291257498547692459
134,7183.52079432471005547741143598275937,7182.0,1.52079432471005547741143598275937
135,7291.12229202541585960562794096188371,7289.6,1.52229202541585960562794096188371
136,7399.52377866557329468025129384340049,7398.0,1.52377866557329468025129384340049
137,7508.72525440744832631466566077631775,7507.2,1.52525440744832631466566077631775
138,7618.72671940976188684251382494307549,7617.2,1.52671940976188684251382494307549
139,7729.52817382779242010657367377270687,7728.0,1.52817382779242010657367377270687
140,7841.12961781347474355373594992071198,7839.6,1.52961781347474355373594992071198
141,7953.53105151549538608571938891935774,7952.0,1.53105151549538608571938891935774
142,8066.73247507938455204189402182893366,8065.2,1.53247507938455204189402182893366
143,8180.73388864760485304041402048800189,8179.2,1.53388864760485304041402048800189
144,8295.53529235963694222422586806038539,8294.0,1.53529235963694222422586806038539
145,8411.13668635206218127075883339416149,8409.6,1.53668635206218127075883339416149
146,8527.53807075864246265535522858868729,8526.0,1.53807075864246265535522858868729
147,8644.73944571039730145553248774696554,8643.2,1.53944571039730145553248774696554
148,8762.74081133567831202513622023726867,8761.2,1.54081133567831202513622023726867
149,8881.54216776024117133937101607545933,8880.0,1.54216776024117133937101607545933
150,9001.14351510731517265161772398199502,8999.6,1.54351510731517265161772398199502
151,9121.54485349767046537632574065162805,9120.0,1.54485349767046537632574065162805
152,9242.74618304968307149718187255840465,9241.2,1.54618304968307149718187255840465
153,9364.74750387939776745028439804518724,9363.2,1.54750387939776745028439804518724
154,9487.54881610058891538159794293372775,9486.0,1.54881610058891538159794293372775
155,9611.15011982481932201471723659490772,9609.6,1.55011982481932201471723659490772
156,9735.55141516149720299533848033702182,9734.0,1.55141516149720299533848033702182
157,9860.75270221793132375907686579870723,9859.2,1.55270221793132375907686579870723
158,9986.75398109938438874076916847031190,9985.2,1.55398109938438874076916847031190
159,10113.5552519091247425981317454449955,10112.0,1.5552519091247425981317454449955
160,10241.1565147484764497873509691268315,10239.6,1.5565147484764497873509691268315
161,10369.5577697168678109867639796578677,10368.0,1.5577697168678109867639796578677
162,10498.7590169118783758297706311531600,10497.2,1.5590169118783758297706311531600
163,10628.7602564292845068003150291282001,10627.2,1.5602564292845068003150291282001
164,10759.5614883631035489275731511744884,10758.0,1.5614883631035489275731511744884
165,10891.1627128056366538801065167543561,10889.6,1.5627128056366538801065167543561
166,11023.5639298475103089751131141567301,11022.0,1.5639298475103089751131141567301
167,11156.7651395777166183351397690450599,11155.2,1.5651395777166183351397690450599
168,11290.7663420836523788812155447889193,11289.2,1.5663420836523788812155447889193
169,11425.5675374511569962245425282404984,11424.0,1.5675374511569962245425282404984
170,11561.1687257645492801999091025499822,11559.6,1.5687257645492801999091025499822
171,11697.5699071066631602353344995119289,11696.0,1.5699071066631602353344995119289
172,11834.7710815588823584246537224060106,11833.2,1.5710815588823584246537224060106
173,11972.7722492011740557054251657241703,11971.2,1.5722492011740557054251657241703
174,12111.5734101121215869857287166832942,12110.0,1.5734101121215869857287166832942
175,12251.1745643689561992048406063979598,12249.6,1.5745643689561992048406063979598
176,12391.5757120475879020341950080249499,12390.0,1.5757120475879020341950080249499
177,12532.7768532226354444792259743705890,12531.2,1.5768532226354444792259743705890
178,12674.7779879674554465365450226430483,12673.2,1.5779879674554465365450226430483
179,12817.5791163541707123514598959350098,12816.0,1.5791163541707123514598959350098
180,12961.1802384536977558222956833778452,12959.6,1.5802384536977558222956833778452
181,13105.5813543357735613001660857948857,13104.0,1.5813543357735613001660857948857
182,13250.7824640689816070796456070978379,13249.2,1.5824640689816070796456070978379
183,13396.7835677207771747296823357021099,13395.2,1.5835677207771747296823357021099
184,13543.5846653575119685063541053730164,13542.0,1.5846653575119685063541053730164
185,13691.1857570444580666556621758615857,13689.6,1.5857570444580666556621758615857
186,13839.5868428458312255750495237784262,13838.0,1.5868428458312255750495237784262
187,13988.7879228248135606342159345278217,13987.2,1.5879228248135606342159345278217
188,14138.7889970435756190916162824335807,14137.2,1.5889970435756190916162824335807
189,14289.5900655632978688378055874865622,14288.0,1.5900655632978688378055874865622
190,14441.1911284441916186167822712306742,14439.6,1.5911284441916186167822712306742
191,14593.5921857455193889479571020322463,14592.0,1.5921857455193889479571020322463
192,14746.7932375256147501310267343304123,14745.2,1.5932375256147501310267343304123
193,14900.7942838419016456376780437648478,14899.2,1.5942838419016456376780437648478
194,15055.5953247509132142309840390164274,15054.0,1.5953247509132142309840390164274
195,15211.1963603083101287449318288832073,15209.6,1.5963603083101287449318288832073
196,15367.5973905688984652160626118207110,15366.0,1.5973905688984652160626118207110
197,15524.7984155866471167426292799165566,15523.2,1.5984155866471167426292799165566
198,15682.7994354147047662333348039160223,15681.2,1.5994354147047662333348039160223
199,15841.6004501054164308795930988858901,15840.0,1.6004501054164308795930988858901
200,16001.2014597103395922915992937190234,15999.6,1.6014597103395922915992937190234
201,16161.6024642802599232747177065741961,16160.0,1.6024642802599232747177065741961
202,16322.8034638652066246224321022219487,16321.2,1.6034638652066246224321022219487
203,16484.8044585144673825806710249230187,16483.2,1.6044585144673825806710249230187
204,16647.6054482766029585985087138441969,16646.0,1.6054482766029585985087138441969
205,16811.2064331994614213306895131254114,16809.6,1.6064331994614213306895131254114
206,16975.6074133301920339108150893317674,16974.0,1.6074133301920339108150893317674
207,17140.8083887152588023659624415419676,17139.2,1.6083887152588023659624415419676
208,17306.8093594004536993942822298891559,17305.2,1.6093594004536993942822298891559
209,17473.6103254309095692485546374852779,17472.0,1.6103254309095692485546374852779
210,17641.2112868511127252214507130082763,17639.6,1.6112868511127252214507130082763
211,17809.6122437049152470916095225295963,17808.0,1.6122437049152470916095225295963
212,17978.8131960355469887578090857688580,17977.2,1.6131960355469887578090857688580
213,18148.8141438856273004392779460319493,18147.2,1.6141438856273004392779460319493
214,18319.6150872971764804179904490313941,18318.0,1.6150872971764804179904490313941
215,18491.2160263116269555293367490282347,18489.6,1.6160263116269555293367490282347
216,18663.6169609698342043557835994055108,18662.0,1.6169609698342043557835994055108
217,18836.8178913120874270827309626951450,18835.2,1.6178913120874270827309626951450
218,19010.8188173781199709891805800759075,19009.2,1.6188173781199709891805800759075
219,19185.6197392071195148463220003224673,19184.0,1.6197392071195148463220003224673
220,19361.2206568377380247323331848325207,19359.6,1.6206568377380247323331848325207
221,19537.6215703081014791658628203540160,19536.0,1.6215703081014791658628203540160
222,19714.8224796558193807557358943436949,19713.2,1.6224796558193807557358943436949
223,19892.8233849179940479278952578160901,19891.2,1.6233849179940479278952578160901
224,20071.6242861312297017890614274154537,20070.0,1.6242861312297017890614274154537
225,20251.2251833316413506838411485313481,20249.6,1.6251833316413506838411485313481
226,20431.6260765548634759834159215555577,20430.0,1.6260765548634759834159215555577
227,20612.8269658360585277488503496275545,20611.2,1.6269658360585277488503496275545
228,20794.8278512099252320794197848641982,20793.2,1.6278512099252320794197848641982
229,20977.6287327107067172983001561457990,20976.0,1.6287327107067172983001561457990
230,21161.2296103721984636620616988889437,21159.6,1.6296103721984636620616988889437
231,21345.6304842277560783834389468064853,21344.0,1.6304842277560783834389468064853
232,21530.8313543103029063765018840239710,21529.2,1.6313543103029063765018840239710
233,21716.8322206523374717099410996158134,21715.2,1.6322206523374717099410996158134
234,21903.6330832859407659147462370507453,21902.0,1.6330832859407659147462370507453
235,22091.2339422427833763175931772152033,22089.6,1.6339422427833763175931772152033
236,22279.6347975541324640989290809623984,22278.0,1.6347975541324640989290809623984
237,22468.8356492508585956961073416287459,22467.2,1.6356492508585956961073416287459
238,22658.8364973634424292828117687484332,22657.2,1.6364973634424292828117687484332
