Eigenstate,Energy,Kinetic Energy,Potential Energy
1,0.500000000273926093507543980502735205,0.0,0.500000000273926093507543980502735205
2,1.84623093943917851925863148744032775,1.2,0.64623093943917851925863148744032775
3,3.93633761495734695973918467668933773,3.2,0.73633761495734695973918467668933773
4,6.79966528875455098313710158764804247,6.0,0.79966528875455098313710158764804247
5,10.4480465942370364023480395820292413,9.6,0.8480465942370364023480395820292413
6,14.8870660261967119576467310397016960,14.0,0.8870660261967119576467310397016960
7,20.1197208660894654809464231952713581,19.2,0.9197208660894654809464231952713581
8,26.1477839003018665516872058180674968,25.2,0.9477839003018665516872058180674968
9,32.9723836278460958381647554527716963,32.0,0.9723836278460958381647554527716963
10,40.5942803028747748276708163237683591,39.6,0.9942803028747748276708163237683591
11,49.0140094955320209352866299309331754,48.0,1.0140094955320209352866299309331754
12,58.2319623011250205031036062955623354,57.2,1.0319623011250205031036062955623354
13,68.2484328497218609521067162826458071,67.2,1.0484328497218609521067162826458071
14,79.0636478390078307066530098598859875,78.0,1.0636478390078307066530098598859875
15,90.6777856500996876445617456096621758,89.6,1.0777856500996876445617456096621758
16,103.090989152416156795484451682142959,102.0,1.090989152416156795484451682142959
17,116.303374537139469088684213864152695,115.2,1.103374537139469088684213864152695
18,130.315037568221584057928941087583638,129.2,1.115037568221584057928941087583638
19,145.126058105488183614413986277445348,144.0,1.126058105488183614413986277445348
20,160.736503442272620009603136254159235,159.6,1.136503442272620009603136254159235
21,177.146430811497621423087120738430611,176.0,1.146430811497621423087120738430611
22,194.355889296834038370880641878151508,193.2,1.155889296834038370880641878151508
23,212.364921310637373142576859695276868,211.2,1.164921310637373142576859695276868
24,231.173563751348205680057103095716671,230.0,1.173563751348205680057103095716671
25,250.781848920288122921342217332167950,249.6,1.181848920288122921342217332167950
26,271.189805255467308941885512079448846,270.0,1.189805255467308941885512079448846
27,292.397457924547122764982413203931412,291.2,1.197457924547122764982413203931412
28,314.404829308199139863393751470731622,313.2,1.204829308199139863393751470731622
29,337.211939397307105524781574780885384,336.0,1.211939397307105524781574780885384
30,360.818806121808760664591005991631688,359.6,1.218806121808760664591005991631688
31,385.225445624828562155921167302828803,384.0,1.225445624828562155921167302828803
32,410.431872492674420151092895624752451,409.2,1.231872492674420151092895624752451
33,436.438099948961927058112619043565663,435.2,1.238099948961927058112619043565663
34,463.244140019379006563634284220464125,462.0,1.244140019379006563634284220464125
35,490.850003672264716024272317194683691,489.6,1.250003672264716024272317194683691
36,519.255700939142456666526698187297583,518.0,1.255700939142456666526698187297583
37,548.461241018543761484760159340125241,547.2,1.261241018543761484760159340125241
38,578.466632365828411981762884296855143,577.2,1.266632365828411981762884296855143
39,609.271882771208786245562968395622943,608.0,1.271882771208786245562968395622943
40,640.876999427790520071538823085433792,639.6,1.276999427790520071538823085433792
41,673.281988991124812564340965877156232,672.0,1.281988991124812564340965877156232
42,706.486857631512715051973395334873363,705.2,1.286857631512715051973395334873363
43,740.491611080095255798951185299252549,739.2,1.291611080095255798951185299252549
44,775.296254669595158989533978705597679,774.0,1.296254669595158989533978705597679
45,810.900793370438346882708003112952345,809.6,1.300793370438346882708003112952345
46,847.305231822870277757729434303974010,846.0,1.305231822870277757729434303974010
47,884.509574365588695656494598052543689,883.2,1.309574365588695656494598052543689
48,922.513825061336781564580050645548291,921.2,1.313825061336781564580050645548291
49,961.317987719836033128755707435920269,960.0,1.317987719836033128755707435920269
50,1000.92206591838407729500383173366935,999.6,1.32206591838407729500383173366935
51,1041.32606302039715328850882678527356,1040.0,1.32606302039715328850882678527356
52,1082.52998219213865814270335241337563,1081.2,1.32998219213865814270335241337563
53,1124.53382641784269686584527834342223,1123.2,1.33382641784269686584527834342223
54,1167.33759851341401820209002086873148,1166.0,1.33759851341401820209002086873148
55,1210.94130113886224145146602984306132,1209.6,1.34130113886224145146602984306132
56,1255.34493680960820524299935119547897,1254.0,1.34493680960820524299935119547897
57,1300.54850790678307019008314620623647,1299.2,1.34850790678307019008314620623647
58,1346.55201668662601017087350847693044,1345.2,1.35201668662601017087350847693044
59,1393.35546528907357302919509621471409,1392.0,1.35546528907357302919509621471409
60,1440.95885574562276698372287207465001,1439.6,1.35885574562276698372287207465001
61,1489.36218998654036480568715027507075,1488.0,1.36218998654036480568715027507075
62,1538.56546984748261682022566027350816,1537.2,1.36546984748261682022566027350816
63,1588.56869707558232189747639874097333,1587.2,1.36869707558232189747639874097333
64,1639.37187333505389311957654849342290,1638.0,1.37187333505389311957654849342290
65,1690.97500021236151996975672664013206,1689.6,1.37500021236151996975672664013206
66,1743.37807922099068155066000447148192,1742.0,1.37807922099068155066000447148192
67,1796.58111180585900304768926355787072,1795.2,1.38111180585900304768926355787072
68,1850.58409934739869149237569281321295,1849.2,1.38409934739869149237569281321295
69,1905.38704316533947421003653039685121,1904.0,1.38704316533947421003653039685121
70,1960.98994452221803506772359538938378,1959.6,1.38994452221803506772359538938378
71,2017.39280462663734493473927673761467,2016.0,1.39280462663734493473927673761467
72,2074.59562463629698452561464753496395,2073.2,1.39562463629698452561464753496395
73,2132.59840566081350478904810022383905,2131.2,1.39840566081350478904810022383905
74,2191.40114876434805115775021300884093,2190.0,1.40114876434805115775021300884093
75,2251.00385496805684687304458940390030,2249.6,1.40385496805684687304458940390030
76,2311.40652525237868104132065504130953,2310.0,1.40652525237868104132065504130953
77,2372.60916055917224468102426278485997,2371.2,1.40916055917224468102426278485997
78,2434.61176179371499222069527908453934,2433.2,1.41176179371499222069527908453934
79,2497.41432982657415908857549257444397,2496.0,1.41432982657415908857549257444397
80,2561.01686549535962790867088225312462,2559.6,1.41686549535962790867088225312462
81,2625.41936960636748647668390558268054,2624.0,1.41936960636748647668390558268054
82,2690.62184293612235923868265354897970,2689.2,1.42184293612235923868265354897970
83,2756.62428623282590526159236570248284,2755.2,1.42428623282590526159236570248284
84,2823.42670021771825139288542659254297,2822.0,1.42670021771825139288542659254297
85,2891.02908558635857003068018816959836,2889.6,1.42908558635857003068018816959836
86,2959.43144300983049506007632385453093,2958.0,1.43144300983049506007632385453093
87,3028.63377313587761204076505622776000,3027.2,1.43377313587761204076505622776000
88,3098.63607658997383535322254594743832,3097.2,1.43607658997383535322254594743832
89,3169.43835397633310150864336135978334,3168.0,1.43835397633310150864336135978334
90,3241.04060587886246461105007276071005,3239.6,1.44060587886246461105007276071005
91,3313.44283286206235850797429832350458,3312.0,1.44283286206235850797429832350458
92,3386.64503547187750186857288342674547,3385.2,1.44503547187750186857288342674547
93,3460.64721423650166017299895974656978,3459.2,1.44721423650166017299895974656978
94,3535.44936966713923566811787530422170,3534.0,1.44936966713923566811787530422170
95,3611.05150225872643519064027983907303,3609.6,1.45150225872643519064027983907303
96,3687.45361249061456393663678693735312,3686.0,1.45361249061456393663678693735312
97,3764.65570082721780891430284974343003,3763.2,1.45570082721780891430284974343003
98,3842.65776771862770294255433554541894,3841.2,1.45776771862770294255433554541894
99,3921.45981360119630658586075798430652,3920.0,1.45981360119630658586075798430652
100,4001.06183889808999907531485802573328,3999.6,1.46183889808999907531485802573328
101,4081.46384401981563996179689191364996,4080.0,1.46384401981563996179689191364996
102,4162.66582936472073767238181711008294,4161.2,1.46582936472073767238181711008294
103,4244.66779531946915322753601712185583,4243.2,1.46779531946915322753601712185583
104,4327.46974225949376011195553968649609,4326.0,1.46974225949376011195553968649609
105,4411.07167054942738821814961106801718,4409.6,1.47167054942738821814961106801718
106,4495.47358054351328901764552892215341,4494.0,1.47358054351328901764552892215341
107,4580.67547258599628103274816063043969,4579.2,1.47547258599628103274816063043969
108,4666.67734701149565544224642323053842,4665.2,1.47734701149565544224642323053842
109,4753.47920414536085306093959020847349,4752.0,1.47920414536085306093959020847349
110,4841.08104430401086151274466306037063,4839.6,1.48104430401086151274466306037063
111,4929.48286779525821555596348096355492,4928.0,1.48286779525821555596348096355492
112,5018.68467491861843408566917681040297,5017.2,1.48467491861843408566917681040297
113,5108.68646596560567180239258796261011,5107.2,1.48646596560567180239258796261011
114,5199.48824122001531477854939454070777,5198.0,1.48824122001531477854939454070777
115,5291.09000095819420870556204855585018,5289.6,1.49000095819420870556204855585018
116,5383.49174544929916027299895513091502,5382.0,1.49174544929916027299895513091502
117,5476.69347495554432041806283351822309,5475.2,1.49347495554432041806283351822309
118,5570.69518973243801715267345826523347,5569.2,1.49518973243801715267345826523347
119,5665.49689002900957196168966877010727,5664.0,1.49689002900957196168966877010727
120,5761.09857608802660792359952044672072,5759.6,1.49857608802660792359952044672072
121,5857.50024814620331943778253378116387,5856.0,1.50024814620331943778253378116387
122,5954.70190643440015452933300650011075,5953.2,1.50190643440015452933300650011075
123,6052.70355117781532850952079997298381,6051.2,1.50355117781532850952079997298381
124,6151.50518259616857009017809166461329,6150.0,1.50518259616857009017809166461329
125,6251.10680090387747148405742374177711,6249.6,1.50680090387747148405742374177711
126,6351.50840631022679882593025528627557,6350.0,1.50840631022679882593025528627557
127,6452.70999901953109867132903959036091,6451.2,1.50999901953109867132903959036091
128,6554.71157923129091374266883655518787,6553.2,1.51157923129091374266883655518787
129,6657.51314714034290901926859010323979,6656.0,1.51314714034290901926859010323979
130,6761.11470293700419088594744019370679,6759.6,1.51470293700419088594744019370679
131,6865.51624680721108665077712311331227,6864.0,1.51624680721108665077712311331227
132,6970.71777893265263676539703458161179,6969.2,1.51777893265263676539703458161179
133,7076.71929949089904029973267655426051,7075.2,1.51929949089904029973267655426051
134,7183.52080865552528294703396417691511,7182.0,1.52080865552528294703396417691511
135,7291.12230659623015872682585928183007,7289.6,1.52230659623015872682585928183007
136,7399.52379347895089286586186823724078,7398.0,1.52379347895089286586186823724078
137,7508.72526946597356002925789301640888,7507.2,1.52526946597356002925789301640888
138,7618.72673471603947846201588581114298,7617.2,1.52673471603947846201588581114298
139,7729.52818938444775849527377410385498,7728.0,1.52818938444775849527377410385498
140,7841.12963362315416842567811335051251,7839.6,1.52963362315416842567811335051251
141,7953.53106758086647621881358819967961,7952.0,1.53106758086647621881358819967961
142,8066.73249140313641741439101065415845,8065.2,1.53249140313641741439101065415845
143,8180.73390523244843096075575324875522,8179.2,1.53390523244843096075575324875522
144,8295.53530920830529752667305030989146,8294.0,1.53530920830529752667305030989146
145,8411.13670346731081065062175699998161,8409.6,1.53670346731081065062175699998161
146,8527.53808814324960321911209229886648,8526.0,1.53808814324960321911209229886648
147,8644.73946336716424356260988600592374,8643.2,1.53946336716424356260988600592374
148,8762.74082926742971649965254283377753,8761.2,1.54082926742971649965254283377753
149,8881.54218596982539113170677032539068,8880.0,1.54218596982539113170677032539068
150,9001.14353359760457903127387769201376,8999.6,1.54353359760457903127387769201376
151,9121.54487227156177873916937073000841,9120.0,1.54487227156177873916937073000841
152,9242.74620211009769687185180860842083,9241.2,1.54620211009769687185180860842083
153,9364.74752322928213479024580506220049,9363.2,1.54752322928213479024580506220049
154,9487.54883574291482473108920369825945,9486.0,1.54883574291482473108920369825945
155,9611.15013976258429363863019249469476,9609.6,1.55013976258429363863019249469476
156,9735.55143539772483256491396299272582,9734.0,1.55143539772483256491396299272582
157,9860.75272275567164268717968305055619,9859.2,1.55272275567164268717968305055619
158,9986.75400194171422976243928449200665,9985.2,1.55400194171422976243928449200665
159,10113.5552730591481106940803383640954,10112.0,1.5552730591481106940803383640954
160,10241.1565362093248985500972661531201,10239.6,1.5565362093248985500972661531201
161,10369.5577914917008245311787213386462,10368.0,1.5577914917008245311787213386462
162,10498.7590390038837563519161064751737,10497.2,1.5590390038837563519161064751737
163,10628.7602788416787678906442537729977,10627.2,1.5602788416787678906442537729977
164,10759.5615110991323147467804000978453,10758.0,1.5615110991323147467804000978453
165,10891.1627358685750643082010016897747,10889.6,1.5627358685750643082010016897747
166,11023.5639532406634308466268202454886,11022.0,1.5639532406634308466268202454886
167,11156.7651633044198628757742028013070,11155.2,1.5651633044198628757742028013070
168,11290.7663661472719254636878775925592,11289.2,1.5663661472719254636878775925592
169,11425.5675618550902225639052866710202,11424.0,1.5675618550902225639052866710202
170,11561.1687505122251991111955327923412,11559.6,1.5687505122251991111955327923412
171,11697.5699322015428630790223532220995,11696.0,1.5699322015428630790223532220995
172,11834.7711070044594653681479745434637,11833.2,1.5711070044594653681479745434637
173,11972.7722750009751729315346090783898,11971.2,1.5722750009751729315346090783898
174,12111.5734362697067709819554084592710,12110.0,1.5734362697067709819554084592710
175,12251.1745908879194282702185564707598,12249.6,1.5745908879194282702185564707598
176,12391.5757389315575551434027689398501,12390.0,1.5757389315575551434027689398501
177,12532.7768804752747876467628925165421,12531.2,1.5768804752747876467628925165421
178,12674.7780155924631268269041893397216,12673.2,1.5780155924631268269041893397216
179,12817.5791443552812596844545085467619,12816.0,1.5791443552812596844545085467619
180,12961.1802668346820927259994246687164,12959.6,1.5802668346820927259994246687164
181,13105.5813831004395207673184348152071,13104.0,1.5813831004395207673184348152071
182,13250.7824932211744586868501762402294,13249.2,1.5824932211744586868501762402294
183,13396.7835972643801591822926918907727,13395.2,1.5835972643801591822926918907727
184,13543.5846952964468407755999055315187,13542.0,1.5846952964468407755999055315187
185,13691.1857873826856478783222512196904,13689.6,1.5857873826856478783222512196904
186,13839.5868735873519638898288038469421,13838.0,1.5868735873519638898288038469421
187,13988.7879539736681011329357048409041,13987.2,1.5879539736681011329357048409041
188,14138.7890286038453830673811372061929,14137.2,1.5890286038453830673811372061929
189,14289.5900975391056425164726932016543,14288.0,1.5900975391056425164726932016543
190,14441.1911608397021515623279830336027,14439.6,1.5911608397021515623279830336027
191,14593.5922185649400023367211600427994,14592.0,1.5922185649400023367211600427994
192,14746.7932707731959550943133460132078,14745.2,1.5932707731959550943133460132078
193,14900.7943175219377718768119510921919,14899.2,1.5943175219377718768119510921919
194,15055.5953588677430491136641141853219,15054.0,1.5953588677430491136641141853219
195,15211.1963948663175670965913800739055,15209.6,1.5963948663175670965913800739055
196,15367.5974255725131700249486360721100,15366.0,1.5974255725131700249486360721100
197,15524.7984510403451910024462097265271,15523.2,1.5984510403451910024462097265271
198,15682.7994713230094361525716377454575,15681.2,1.5994713230094361525716377454575
199,15841.6004864728987406920707404180053,15840.0,1.6004864728987406920707404180053
200,16001.2014965416191109083368647293105,15999.6,1.6014965416191109083368647293105
201,16161.6025015800054630229330956144189,16160.0,1.6025015800054630229330956144189
202,16322.8035016381369723233654950346627,16321.2,1.6035016381369723233654950346627
203,16484.8044967653520432239506955995182,16483.2,1.6044967653520432239506955995182
204,16647.6054870102629118769809960394021,16646.0,1.6054870102629118769809960394021
205,16811.2064724207698913060033491578023,16809.6,1.6064724207698913060033491578023
206,16975.6074530440752720866026524620578,16974.0,1.6074530440752720866026524620578
207,17140.8084289266968844521840884821628,17139.2,1.6084289266968844521840884821628
208,17306.8094001144813360532259265301479,17305.2,1.6094001144813360532259265301479
209,17473.6103666526169311200898728787682,17472.0,1.6103666526169311200898728787682
210,17641.2113285856462825324504281468379,17639.6,1.6113285856462825324504281468379
211,17809.6122859574786241619725836794102,17808.0,1.6122859574786241619725836794102
212,17978.8132388114018337232469118082020,17977.2,1.6132388114018337232469118082020
213,18148.8141871900941705189816112310073,18147.2,1.6141871900941705189816112310073
214,18319.6151311356357430634738616714043,18318.0,1.6151311356357430634738616714043
215,18491.2160706895197057991619203383746,18489.6,1.6160706895197057991619203383746
216,18663.6170058926631988695312785272671,18662.0,1.6170058926631988695312785272671
217,18836.8179367854180349164828294794212,18835.2,1.6179367854180349164828294794212
218,19010.8188634075811418839403814453333,19009.2,1.6188634075811418839403814453333
219,19185.6197857984047651102326337326072,19184.0,1.6197857984047651102326337326072
220,19361.2207039966064412272484407415053,19359.6,1.6207039966064412272484407415053
221,19537.6216180403787417788198605222816,19536.0,1.6216180403787417788198605222816
222,19714.8225279673988037661532534317105,19713.2,1.6225279673988037661532534317105
223,19892.8234338148376406919056929461859,19891.2,1.6234338148376406919056929461859
224,20071.6243356193692491732835676399716,20070.0,1.6243356193692491732835676399716
225,20251.2252334171795136921148414251297,20249.6,1.6252334171795136921148414251297
226,20431.6261272439749130315784087542925,20430.0,1.6261272439749130315784087542925
227,20612.8270171349910370545296087929537,20611.2,1.6270171349910370545296087929537
228,20794.8279031250009156460792519648293,20793.2,1.6279031250009156460792519648293
229,20977.6287852483231669853969779270002,20976.0,1.6287852483231669853969779270002
230,21161.2296635388299698461833716239717,21159.6,1.6296635388299698461833716239717
231,21345.6305380299548617286907527793708,21344.0,1.6305380299548617286907527793708
232,21530.8314087547003732462262141263374,21529.2,1.6314087547003732462262141263374
233,21716.8322757456454937660868105159750,21715.2,1.6322757456454937660868105159750
234,21903.6331390349529844658743338255047,21902.0,1.6331390349529844658743338255047
235,22091.2339986543765319916320570606837,22089.6,1.6339986543765319916320570606837
236,22279.6348546352677524323806451510220,22278.0,1.6348546352677524323806451510220
237,22468.8357070085830492474863135050323,22467.2,1.6357070085830492474863135050323
238,22658.8365558048903268946741666588233,22657.2,1.6365558048903268946741666588233
