Eigenstate,Energy,Kinetic Energy,Potential Energy
1,0.500000000016339421258456669964143996,0.0,0.500000000016339421258456669964143996
2,1.84623093775776980821870360716909619,1.2,0.64623093775776980821870360716909619
3,3.93633761001826631166801680100757478,3.2,0.73633761001826631166801680100757478
4,6.79966527846678670662877500991926840,6.0,0.79966527846678670662877500991926840
5,10.4480465764160306333365976510874884,9.6,0.8480465764160306333365976510874884
6,14.8870659986193620019296945478680425,14.0,0.8870659986193620019296945478680425
7,20.1197208265143408713642692875598472,19.2,0.9197208265143408713642692875598472
8,26.1477838464775956762131604402549229,25.2,0.9477838464775956762131604402549229
9,32.9723835575152246178704982535657136,32.0,0.9723835575152246178704982535657136
10,40.5942802137756872547162122692549303,39.6,0.9942802137756872547162122692549303
11,49.0140093853999471534525187164626942,48.0,1.0140093853999471534525187164626942
12,58.2319621676925798435474076525834600,57.2,1.0319621676925798435474076525834600
13,68.2484326907193517256668807327300707,67.2,1.0484326907193517256668807327300707
14,79.0636476521633741816701295205811100,78.0,1.0636476521633741816701295205811100
15,90.6777854331392839839492434999499316,89.6,1.0777854331392839839492434999499316
16,103.090988903063685616192194025560426,102.0,1.090988903063685616192194025560426
17,116.303374253116653922957502494143461,115.2,1.103374253116653922957502494143461
18,130.315037247247932529501847459706069,129.2,1.115037247247932529501847459706069
19,145.126057745280910808256959979384891,144.0,1.126057745280910808256959979384891
20,160.736503040546559907574846802946352,159.6,1.136503040546559907574846802946352
21,177.146430365965129661232382981795957,176.0,1.146430365965129661232382981795957
22,194.355888805204888543175270104678947,193.2,1.155888805204888543175270104678947
23,212.364920770618648201916281680950680,211.2,1.164920770618648201916281680950680
24,231.173563160644185536650538433359424,230.0,1.173563160644185536650538433359424
25,250.781848276600169031203101938453144,249.6,1.181848276600169031203101938453144
26,271.189804556493746464409493146219502,270.0,1.189804556493746464409493146219502
27,292.397457167983120717550566851298219,291.2,1.197457167983120717550566851298219
28,314.404828491736589592500879413689511,313.2,1.204828491736589592500879413689511
29,337.211938518634497734226898607040224,336.0,1.211938518634497734226898607040224
30,360.818805178611061183006787948369253,359.6,1.218805178611061183006787948369253
31,385.225444614787086582397551104284979,384.0,1.225444614787086582397551104284979
32,410.431871413466707484780945613465957,409.2,1.231871413466707484780945613465957
33,436.438098798261612392583455808808799,435.2,1.238098798261612392583455808808799
34,463.244138794855692907410461376586630,462.0,1.244138794855692907410461376586630
35,490.850002371583845293871902904473233,489.6,1.250002371583845293871902904473233
36,519.255699559965179886517234478044353,518.0,1.255699559965179886517234478044353
37,548.461239558526808219934380172458226,547.2,1.261239558526808219934380172458226
38,578.466630822623959019050361579623086,577.2,1.266630822623959019050361579623086
39,609.271881142464325537253431019664016,608.0,1.271881142464325537253431019664016
40,640.876997711148725946492186701615921,639.6,1.276997711148725946492186701615921
41,673.281987184223408209851743982567109,672.0,1.281987184223408209851743982567109
42,706.486855731984338265655040904083406,705.2,1.286855731984338265655040904083406
43,740.491609085567324007264834814705072,739.2,1.291609085567324007264834814705072
44,775.296252577689733527294009606492556,774.0,1.296252577689733527294009606492556
45,810.900791178771996525964868680508143,809.6,1.300791178771996525964868680508143
46,847.305229529053941500789768270352521,846.0,1.305229529053941500789768270352521
47,884.509571967227544722435091685807589,883.2,1.309571967227544722435091685807589
48,922.513822556030080637400148381534084,921.2,1.313822556030080637400148381534084
49,961.317985105177000794260979068752503,960.0,1.317985105177000794260979068752503
50,1000.92206319195974567658829949829691,999.6,1.32206319195974567658829949829691
51,1041.32606017978822686318682438159279,1040.0,1.32606017978822686318682438159279
52,1082.52997923491937172201268597324277,1081.2,1.32997923491937172201268597324277
53,1124.53382334158067272558710576121257,1123.2,1.33382334158067272558710576121257
54,1167.33759531567012234427465808785655,1166.0,1.33759531567012234427465808785655
55,1210.94129781719043898128798490618820,1209.6,1.34129781719043898128798490618820
56,1255.34493336155541484316021715747114,1254.0,1.34493336155541484316021715747114
57,1300.54850432988901767431124706399109,1299.2,1.34850432988901767431124706399109
58,1346.55201297842308109804637473107105,1345.2,1.35201297842308109804637473107105
59,1393.35546144708666435905359132035110,1392.0,1.35546144708666435905359132035110
60,1440.95885176736913775476594035572230,1439.6,1.35885176736913775476594035572230
61,1489.36218586952948581545295794819861,1488.0,1.36218586952948581545295794819861
62,1538.56546558921601928779354605204187,1537.2,1.36546558921601928779354605204187
63,1588.56869267355344508766366452956243,1587.2,1.36869267355344508766366452956243
64,1639.37186878674793090795152524369440,1638.0,1.37186878674793090795152524369440
65,1690.97499551525526632724129236370257,1689.6,1.37499551525526632724129236370257
66,1743.37807437255237492615329517095214,1742.0,1.37807437255237492615329517095214
67,1796.58110680354816962680380215282843,1795.2,1.38110680354816962680380215282843
68,1850.58409418866598731003964888076348,1849.2,1.38409418866598731003964888076348
69,1905.38703784762652609437685670801566,1904.0,1.38703784762652609437685670801566
70,1960.98993904295728039230902024912684,1959.6,1.38993904295728039230902024912684
71,2017.39279898325187015592048945861234,2016.0,1.39279898325187015592048945861234
72,2074.59561882620036248136011142502973,2073.2,1.39561882620036248136011142502973
73,2132.59839968140963073532807081363685,2131.2,1.39839968140963073532807081363685
74,2191.40114261303097751817599594970991,2190.0,1.40114261303097751817599594970991
75,2251.00384864221061667711772545145717,2249.6,1.40384864221061667711772545145717
76,2311.40651874937716002629313414852988,2310.0,1.40651874937716002629313414852988
77,2372.60915387637895203200952022094384,2371.2,1.40915387637895203200952022094384
78,2434.61175492848292992330501765355815,2433.2,1.41175492848292992330501765355815
79,2497.41432277624563986798639485397771,2496.0,1.41432277624563986798639485397771
80,2561.01685825726610172864932883612501,2559.6,1.41685825726610172864932883612501
81,2625.41936217782936557171267113675384,2624.0,1.41936217782936557171267113675384
82,2690.62183531444884165194485189760139,2689.2,1.42183531444884165194485189760139
83,2756.62427841531479686117096000316559,2755.2,1.42427841531479686117096000316559
84,2823.42669220165578633813296983670505,2822.0,1.42669220165578633813296983670505
85,2891.02907736901922966030195187138917,2889.6,1.42907736901922966030195187138917
86,2959.43143458847682517305185671090097,2958.0,1.43143458847682517305185671090097
87,3028.63376450776003854080458796129257,3027.2,1.43376450776003854080458796129257
88,3098.63606775233047822702044112886999,3097.2,1.43606775233047822702044112886999
89,3169.43834492638958710774652209121952,3168.0,1.43834492638958710774652209121952
90,3241.04059661383173620670647884233063,3239.6,1.44059661383173620670647884233063
91,3313.44282337914448508786422081209074,3312.0,1.44282337914448508786422081209074
92,3386.64502576825948514385518894107369,3385.2,1.44502576825948514385518894107369
93,3460.64720430935723976362312564378821,3459.2,1.44720430935723976362312564378821
94,3535.44935951362869243386219004818783,3534.0,1.44935951362869243386219004818783
95,3611.05149187599639267483527779226928,3609.6,1.45149187599639267483527779226928
96,3687.45360187579778788902298246042080,3686.0,1.45360187579778788902298246042080
97,3764.65568997743300485894802377914807,3763.2,1.45568997743300485894802377914807
98,3842.65775663097931175622529636900160,3841.2,1.45775663097931175622529636900160
99,3921.45980227277429805169853186077908,3920.0,1.45980227277429805169853186077908
100,4001.06182732596966337610854846891182,3999.6,1.46182732596966337610854846891182
101,4081.46383220105737707658354020807224,4080.0,1.46383220105737707658354020807224
102,4162.66581729636984463952082220807722,4161.2,1.46581729636984463952082220807722
103,4244.66778299855560923681654958326066,4243.2,1.46778299855560923681654958326066
104,4327.46972968303200938768950891508354,4326.0,1.46972968303200938768950891508354
105,4411.07165771441612065458821577509623,4409.6,1.47165771441612065458821577509623
106,4495.47356744693521852742681022273789,4494.0,1.47356744693521852742681022273789
107,4580.67545922481792156843984459143327,4579.2,1.47545922481792156843984459143327
108,4666.67733338266709465039167460308928,4665.2,1.47733338266709465039167460308928
109,4753.47919024581552352734199209324624,4752.0,1.47919024581552352734199209324624
110,4841.08103013066530955704399582807027,4839.6,1.48103013066530955704399582807027
111,4929.48285334501186753285315692620242,4928.0,1.48285334501186753285315692620242
112,5018.68466018835336014939107475351391,5017.2,1.48466018835336014939107475351391
113,5108.68645095218634709041484253970784,5107.2,1.48645095218634709041484253970784
114,5199.48822592028837796958600211459996,5198.0,1.48822592028837796958600211459996
115,5291.08998536898821790633057524789347,5289.6,1.48998536898821790633057524789347
116,5383.49172956742434618733348587307766,5382.0,1.49172956742434618733348587307766
117,5476.69345877779233675120386989877643,5475.2,1.49345877779233675120386989877643
118,5570.69517325558168820274223006197235,5569.2,1.49517325558168820274223006197235
119,5665.49687324980263734952409484612111,5664.0,1.49687324980263734952409484612111
120,5761.09855900320346441127984241428274,5759.6,1.49855900320346441127984241428274
121,5857.50023075247875978530614343107623,5856.0,1.50023075247875978530614343107623
122,5954.70188872846910333801167348911491,5953.2,1.50188872846910333801167348911491
123,6052.70353315635257499976775150849202,6051.2,1.50353315635257499976775150849202
124,6151.50516425582849776042591089660018,6150.0,1.50516425582849776042591089660018
125,6251.10678224129378459660128924596242,6249.6,1.50678224129378459660128924596242
126,6351.50838732201224566452315964969845,6350.0,1.50838732201224566452315964969845
127,6452.70997970227719151436755205992379,6451.2,1.50997970227719151436755205992379
128,6554.71155958156764549479699644020638,6553.2,1.51155958156764549479699644020638
129,6657.51312715469846644319433217117632,6656.0,1.51312715469846644319433217117632
130,6761.11468261196466437521024869970084,6759.6,1.51468261196466437521024869970084
131,6865.51622613928017648312616294426989,6864.0,1.51622613928017648312616294426989
132,6970.71775791831135577533320208640658,6969.2,1.51775791831135577533320208640658
133,7076.71927812660541290764417433610172,7075.2,1.51927812660541290764417433610172
134,7183.52078693771404048119647266556357,7182.0,1.52078693771404048119647266556357
135,7291.12228452131243097336141010238872,7289.6,1.52228452131243097336141010238872
136,7399.52377104331389578054515063139213,7398.0,1.52377104331389578054515063139213
137,7508.72524666598027954382273311976985,7507.2,1.52524666598027954382273311976985
138,7618.72671154802835031635616343178588,7617.2,1.52671154802835031635616343178588
139,7729.52816584473234402564188706327212,7728.0,1.52816584473234402564188706327212
140,7841.12960970802282623766469794123153,7839.6,1.52960970802282623766469794123153
141,7953.53104328658202967254521311040840,7952.0,1.53104328658202967254521311040840
142,8066.73246672593581784800088116804115,8065.2,1.53246672593581784800088116804115
143,8180.73388016854241657677131884796261,8179.2,1.53388016854241657677131884796261
144,8295.53528375387804786452164502731271,8294.0,1.53528375387804786452164502731271
145,8411.13667761851959656697853791914033,8409.6,1.53667761851959656697853791914033
146,8527.53806189622443229630268643149967,8526.0,1.53806189622443229630268643149967
147,8644.73943671800750086373535757145357,8643.2,1.53943671800750086373535757145357
148,8762.74080221221580058752349637770758,8761.2,1.54080221221580058752349637770758
149,8881.54215850460034526705340881264314,8880.0,1.54215850460034526705340881264314
150,9001.14350571838571746404597172667104,8999.6,1.54350571838571746404597172667104
151,9121.54484397433730800504246864702112,9120.0,1.54484397433730800504246864702112
152,9242.74617339082633200432554336964297,9241.2,1.54617339082633200432554336964297
153,9364.74749408389271035694306532648924,9363.2,1.54749408389271035694306532648924
154,9487.54880616730590060105077269756484,9486.0,1.54880616730590060105077269756484
155,9611.15010975262375538553965327029021,9609.6,1.55010975262375538553965327029021
156,9735.55140494924948640928406741629046,9734.0,1.55140494924948640928406741629046
157,9860.75269186448680487858656863620881,9859.2,1.55269186448680487858656863620881
158,9986.75397060359331030089284219320215,9985.2,1.55397060359331030089284219320215
159,10113.5552412698321912875822218478207,10112.0,1.5552412698321912875822218478207
160,10241.1565039645223047033435404617157,10239.6,1.5565039645223047033435404617157
161,10369.5577587870866916582272737904187,10368.0,1.5577587870866916582272737904187
162,10498.7590058350995898034453877073311,10497.2,1.5590058350995898034453877073311
163,10628.7602452043319967841882196607404,10627.2,1.5602452043319967841882196607404
164,10759.5614769887958394860233616758600,10758.0,1.5614769887958394860233616758600
165,10891.1627012807867976750641867666077,10889.6,1.5627012807867976750641867666077
166,11023.5639181709258325474667517829398,11022.0,1.5639181709258325474667517829398
167,11156.7651277481994674205445118812955,11155.2,1.5651277481994674205445118812955
168,11290.7663300999988632543842884641473,11289.2,1.5663300999988632543842884641473
169,11425.5675253121577340660241036130407,11424.0,1.5675253121577340660241036130407
170,11561.1687134689891419792784795623670,11559.6,1.5687134689891419792784795623670
171,11697.5698946533212121046419583868870,11696.0,1.5698946533212121046419583868870
172,11834.7710689465318051158986781653584,11833.2,1.5710689465318051158986781653584
173,11972.7722364285821829257386692401056,11971.2,1.5722364285821829257386692401056
174,12111.5733971780497033038647422664008,12110.0,1.5733971780497033038647422664008
175,12251.1745512721595774224928611947008,12249.6,1.5745512721595774224928611947008
176,12391.5756987868157200355686682873877,12390.0,1.5756987868157200355686682873877
177,12532.7768397966307255522074294170367,12531.2,1.5768397966307255522074294170367
178,12674.7779743749549991587234481058444,12673.2,1.5779743749549991587234481058444
179,12817.5791025939050694341644896291257,12816.0,1.5791025939050694341644896291257
180,12961.1802245243911134057199234194683,12959.6,1.5802245243911134057199234194683
181,13105.5813402361437166925583977619425,13104.0,1.5813402361437166925583977619425
182,13250.7824497977398964334501667137084,13249.2,1.5824497977398964334501667137084
183,13396.7835532766284100474175839856040,13395.2,1.5835532766284100474175839856040
184,13543.5846507391543740689193992442485,13542.0,1.5846507391543740689193992442485
185,13691.1857422505832148656616839754703,13689.6,1.5857422505832148656616839754703
186,13839.5868278751239722076241293302439,13838.0,1.5868278751239722076241293302439
187,13988.7879076759519794877684066168364,13987.2,1.5879076759519794877684066168364
188,14138.7889817152309360307122386538854,14137.2,1.5889817152309360307122386538854
189,14289.5900500541343952204258468493512,14288.0,1.5900500541343952204258468493512
190,14441.1911127528666840979944443681716,14439.6,1.5911127528666840979944443681716
191,14593.5921698706832736519641348388220,14592.0,1.5921698706832736519641348388220
192,14746.7932214659106161834390370427387,14745.2,1.5932214659106161834390370427387
193,14900.7942675959654680497418701044234,14899.2,1.5942675959654680497418701044234
194,15055.5953083173737111273842494587006,15054.0,1.5953083173737111273842494587006
195,15211.1963436857886909266684672827321,15209.6,1.5963436857886909266684672827321
196,15367.5973737560090850497832056650568,15366.0,1.5973737560090850497832056650568
197,15524.7983985819963163676761484144302,15523.2,1.5983985819963163676761484144302
198,15682.7994182168915250776443547319575,15681.2,1.5994182168915250776443547319575
199,15841.6004327130321124754576051988048,15840.0,1.6004327130321124754576051988048
200,16001.2014421219678703821754326043858,15999.6,1.6014421219678703821754326043858
201,16161.6024464944767072020363310215534,16160.0,1.6024464944767072020363310215534
202,16322.8034458805799839875301696722852,16321.2,1.6034458805799839875301696722852
203,16484.8044403295574711663355356373338,16483.2,1.6044403295574711663355356373338
204,16647.6054298899619375449832490715017,16646.0,1.6054298899619375449832490715017
205,16811.2064146096333815545577169508077,16809.6,1.6064146096333815545577169508077
206,16975.6073945357129177571327697697890,16974.0,1.6073945357129177571327697697890
207,17140.8083697146563244835671246938038,17139.2,1.6083697146563244835671246938038
208,17306.8093401922472668240638096639783,17305.2,1.6093401922472668240638096639783
209,17473.6103060136102007143208046809463,17472.0,1.6103060136102007143208046809463
210,17641.2112672232229696128716062833429,17639.6,1.6112672232229696128716062833429
211,17809.6122238649291011285717859945033,17808.0,1.6122238649291011285717859945033
212,17978.8131759819498138253533314604015,17977.2,1.6131759819498138253533314604015
213,18148.8141236168957385821343194689944,18147.2,1.6141236168957385821343194689944
214,18319.6150668117783694835671555812762,18318.0,1.6150668117783694835671555812762
215,18491.2160056080212434478496720883205,18489.6,1.6160056080212434478496720883205
216,18663.6169400464708625460492807464446,18662.0,1.6169400464708625460492807464446
217,18836.8178701674073629719751819012304,18835.2,1.6178701674073629719751819012304
218,19010.8187960105549396350412059325556,19009.2,1.6187960105549396350412059325556
219,19185.6197176150920296490477540199195,19184.0,1.6197176150920296490477540199195
220,19361.2206350196612672250030630166614,19359.6,1.6206350196612672250030630166614
221,19537.6215482623792078702659566365804,19536.0,1.6215482623792078702659566365804
222,19714.8224573808458390913677865203105,19713.2,1.6224573808458390913677865203105
223,19892.8233624121538711613368347402589,19891.2,1.6233624121538711613368347402589
224,20071.6242633928978230108153761266159,20070.0,1.6242633928978230108153761266159
225,20251.2251603591829057995038466010224,20249.6,1.6251603591829057995038466010224
226,20431.6260533466337077058646947738471,20430.0,1.6260533466337077058646947738471
227,20612.8269423904026885779241852220198,20611.2,1.6269423904026885779241852220198
228,20794.8278275251784862553630482812355,20793.2,1.6278275251784862553630482812355
229,20977.6287087851940417150309552510128,20976.0,1.6287087851940417150309552510128
230,21161.2295862042345477261127542353752,21159.6,1.6295862042345477261127542353752
231,21345.6304598156452228042004744249670,21344.0,1.6304598156452228042004744249670
232,21530.8313296523389208731752740132462,21529.2,1.6313296523389208731752740132462
233,21716.8321957468035716203870533690442,21715.2,1.6321957468035716203870533690442
234,21903.6330581311094676911807620438862,21902.0,1.6330581311094676911807620438862
235,22091.2339168369163918938523821910683,22089.6,1.6339168369163918938523821910683
236,22279.6347718954805941137856389259239,22278.0,1.6347718954805941137856389259239
237,22468.8356233376616215568789402595899,22467.2,1.6356233376616215568789402595899
238,22658.8364711939290040532558038834594,22657.2,1.6364711939290040532558038834594
