Eigenstate,Energy,Kinetic Energy,Potential Energy
1,0.500000000159719268283281676445427794,0.0,0.500000000159719268283281676445427794
2,1.84623093869368430131988983288167370,1.2,0.64623093869368430131988983288167370
3,3.93633761276746503088635872282963875,3.2,0.73633761276746503088635872282963875
4,6.79966528419312624883374933113767621,6.0,0.79966528419312624883374933113767621
5,10.4480465863353826227201874363628082,9.6,0.8480465863353826227201874363628082
6,14.8870660139689787547503820519797233,14.0,0.8870660139689787547503820519797233
7,20.1197208485415829253692780654203711,19.2,0.9197208485415829253692780654203711
8,26.1477838764352444322045483829437668,25.2,0.9477838764352444322045483829437668
9,32.9723835966593153302110878398296999,32.0,0.9723835966593153302110878398296999
10,40.5942802633644208089961940696117840,39.6,0.9942802633644208089961940696117840
11,49.0140094466931097056177183382127829,48.0,1.0140094466931097056177183382127829
12,58.2319622419512212752621128010854133,57.2,1.0319622419512212752621128010854133
13,68.2484327792056050181124608622811542,67.2,1.0484327792056050181124608622811542
14,79.0636477561403559062679656722105605,78.0,1.0636477561403559062679656722105605
15,90.6777855538710437477968157653535842,89.6,1.0777855538710437477968157653535842
16,103.090989041815186277123602349262114,102.0,1.090989041815186277123602349262114
17,116.303374411153771838806672354743496,115.2,1.103374411153771838806672354743496
18,130.315037425837471262003526509015897,129.2,1.115037425837471262003526509015897
19,145.126057945690624114675963247614068,144.0,1.126057945690624114675963247614068
20,160.736503264045181303827399106318838,159.6,1.136503264045181303827399106318838
21,177.146430613822406740069763709411924,176.0,1.146430613822406740069763709411924
22,194.355889078691620804811793403558798,193.2,1.155889078691620804811793403558798
23,212.364921071006727529616945140209819,211.2,1.164921071006727529616945140209819
24,231.173563489206638700595130369923981,230.0,1.173563489206638700595130369923981
25,250.781848634611201775056784893782306,249.6,1.181848634611201775056784893782306
26,271.189804945228788847947378891320050,270.0,1.189804945228788847947378891320050
27,292.397457588718873472730842226171427,291.2,1.197457588718873472730842226171427
28,314.404828945751071310706493621340043,313.2,1.204828945751071310706493621340043
29,337.211939007207092746313881293685188,336.0,1.211939007207092746313881293685188
30,360.818805703022568026191901206959314,359.6,1.218805703022568026191901206959314
31,385.225445176319766972204472179138008,384.0,1.225445176319766972204472179138008
32,410.431872013404335728526588443340318,409.2,1.231872013404335728526588443340318
33,436.438099437889525194821033678350425,435.2,1.238099437889525194821033678350425
34,463.244139475460839528483511032968881,462.0,1.244139475460839528483511032968881
35,490.850003094454838031083867977370280,489.6,1.250003094454838031083867977370280
36,519.255700326392344853971287780303724,518.0,1.255700326392344853971287780303724
37,548.461240369802236408278507047279528,547.2,1.261240369802236408278507047279528
38,578.466631680041557620491134045408840,577.2,1.266631680041557620491134045408840
39,609.271882047319869524516548989933791,608.0,1.271882047319869524516548989933791
40,640.876998664739909897087707251461811,639.6,1.276998664739909897087707251461811
41,673.281988187849898369183144189526073,672.0,1.281988187849898369183144189526073
42,706.486856786947824844298286476218162,705.2,1.286856786947824844298286476218162
43,740.491610193171573709216840180549954,739.2,1.291610193171573709216840180549954
44,775.296253739240642307211582512092461,774.0,1.296253739240642307211582512092461
45,810.900792395577642574434850190733370,809.6,1.300792395577642574434850190733370
46,847.305230802424638457526850018179419,846.0,1.305230802424638457526850018179419
47,884.509573298475895118025898568903175,883.2,1.309573298475895118025898568903175
48,922.513823946471029564825815196185689,921.2,1.313823946471029564825815196185689
49,961.317986556127889811954107423523397,960.0,1.317986556127889811954107423523397
50,1000.92206470474036694523007820001619,999.6,1.32206470474036694523007820001619
51,1041.32606175572087751883915204956546,1040.0,1.32606175572087751883915204956546
52,1082.52998087532890848851796107492367,1081.2,1.32998087532890848851796107492367
53,1124.53382504779456676946393445336884,1123.2,1.33382504779456676946393445336884
54,1167.33759708901851437559801946492671,1166.0,1.33759708901851437559801946492671
55,1210.94129965900619460427265867101330,1209.6,1.34129965900619460427265867101330
56,1255.34493527317418016037170526852720,1254.0,1.34493527317418016037170526852720
57,1300.54850631264927514861243384162729,1299.2,1.34850631264927514861243384162729
58,1346.55201503366620567655511618369607,1345.2,1.35201503366620567655511618369607
59,1393.35546357615697986353705813835594,1392.0,1.35546357615697986353705813835594
60,1440.95885397161397354303649357747022,1439.6,1.35885397161397354303649357747022
61,1489.36218815029923371845773926079438,1488.0,1.36218815029923371845773926079438
62,1538.56546794786419082720868366318107,1537.2,1.36546794786419082720868366318107
63,1588.56869511143672897891440197925575,1587.2,1.36869511143672897891440197925575
64,1639.37187130522625085368340419575206,1638.0,1.37187130522625085368340419575206
65,1690.97499811569183910636636557627132,1689.6,1.37499811569183910636636557627132
66,1743.37807705631376878368854161029336,1742.0,1.37807705631376878368854161029336
67,1796.58110957200436296980861797194728,1795.2,1.38110957200436296980861797194728
68,1850.58409704319042771504551941429664,1849.2,1.38409704319042771504551941429664
69,1905.38704078959618963178611775508063,1904.0,1.38704078959618963178611775508063
70,1960.98994207375273127331986952614225,1959.6,1.38994207375273127331986952614225
71,2017.39280210425732070761573167561485,2016.0,1.39280210425732070761573167561485
72,2074.59562203880373345567369492861284,2073.2,1.39562203880373345567369492861284
73,2132.59840298700261195768087653688902,2131.2,1.39840298700261195768087653688902
74,2191.40114601300908888164706278593014,2190.0,1.40114601300908888164706278593014
75,2251.00385213797326948809289294678724,2249.6,1.40385213797326948809289294678724
76,2311.40652234232771870760628264653477,2310.0,1.40652234232771870760628264653477
77,2372.60915756792479618966656735530439,2371.2,1.40915756792479618966656735530439
78,2434.61175872003551678295461848248205,2433.2,1.41175872003551678295461848248205
79,2497.41432666922056708737545957340364,2496.0,1.41432666922056708737545957340364
80,2561.01686225308317059237526878441552,2559.6,1.41686225308317059237526878441552
81,2625.41936627791264457465961712553737,2624.0,1.41936627791264457465961712553737
82,2690.62183952022673047786546480132753,2689.2,1.42183952022673047786546480132753
83,2756.62428272822009076295146654251744,2755.2,1.42428272822009076295146654251744
84,2823.42669662312574092635506124093786,2822.0,1.42669662312574092635506124093786
85,2891.02908190049562610679221712908726,2889.6,1.42908190049562610679221712908726
86,2959.43143923140603583618691460741682,2958.0,1.43143923140603583618691460741682
87,3028.63376926359309301941913844342101,3027.2,1.43376926359309301941913844342101
88,3098.63607262252312984984464618887143,3097.2,1.43607262252312984984464618887143
89,3169.43834991240237986537971661653485,3168.0,1.43834991240237986537971661653485
90,3241.04060171713007213321580875286541,3239.6,1.44060171713007213321580875286541
91,3313.44282860119869209917991644234277,3312.0,1.44282860119869209917991644234277
92,3386.64503111054488534021745309720605,3385.2,1.44503111054488534021745309720605
93,3460.64720977335421820342127019295076,3459.2,1.44720977335421820342127019295076
94,3535.44936510082276638629286830932764,3534.0,1.44936510082276638629286830932764
95,3611.05149758787828135889442907590568,3609.6,1.45149758787828135889442907590568
96,3687.45360771386348270643490582586103,3686.0,1.45360771386348270643490582586103
97,3764.65569594318384012872617938411705,3763.2,1.45569594318384012872617938411705
98,3842.65776272592203595865048666742745,3841.2,1.45776272592203595865048666742745
99,3921.45980849842114558959439471485768,3920.0,1.45980849842114558959439471485768
100,4001.06183368383842686138860660856605,3999.6,1.46183368383842686138860660856605
101,4081.46383869267148015014113159537302,4080.0,1.46383869267148015014113159537302
102,4162.66582392325841533263086508741365,4161.2,1.46582392325841533263086508741365
103,4244.66778976225355388231802007546615,4243.2,1.46778976225355388231802007546615
104,4327.46973658508008708931969245913115,4326.0,1.46973658508008708931969245913115
105,4411.07166475636101832294188045664787,4409.6,1.47166475636101832294188045664787
106,4495.47357463032962649111915522352978,4494.0,1.47357463032962649111915522352978
107,4580.67546655122060976915882834766030,4579.2,1.47546655122060976915882834766030
108,4666.67734085364298943063351855566005,4665.2,1.47734085364298943063351855566005
109,4753.47919786293578501973474388188010,4752.0,1.47919786293578501973474388188010
110,4841.08103789550740968427602381544933,4839.6,1.48103789550740968427602381544933
111,4929.48286125915966862733781747047940,4928.0,1.48286125915966862733781747047940
112,5018.68466825339719420191569456113896,5017.2,1.48466825339719420191569456113896
113,5108.68645916972309563713988613979171,5107.2,1.48645916972309563713988613979171
114,5199.48823429192155262688118012758564,5198.0,1.48823429192155262688118012758564
115,5291.08999389632804156305728792475696,5289.6,1.48999389632804156305728792475696
116,5383.49173825208783486430763934644541,5382.0,1.49173825208783486430763934644541
117,5476.69346762140338213770009573162359,5475.2,1.49346762140338213770009573162359
118,5570.69518225977114088002984342484697,5569.2,1.49518225977114088002984342484697
119,5665.49688241620839071155643642010964,5664.0,1.49688241620839071155643642010964
120,5761.09856833347053929279282775722706,5759.6,1.49856833347053929279282775722706
121,5857.50024024825938980771779709279634,5856.0,1.50024024825938980771779709279634
122,5954.70189839142282098365318335982220,5953.2,1.50189839142282098365318335982220
123,6052.70354298814629842511772179223365,6051.2,1.50354298814629842511772179223365
124,6151.50517425813661835916280737185212,6150.0,1.50517425813661835916280737185212
125,6251.10679241579825532343569450392748,6249.6,1.50679241579825532343569450392748
126,6351.50839767040267013092027721607892,6350.0,1.50839767040267013092027721607892
127,6452.70999022625091386742119107418669,6451.2,1.50999022625091386742119107418669
128,6554.71157028282984109067142041268784,6553.2,1.51157028282984109067142041268784
129,6657.51313803496223332670656674567774,6656.0,1.51313803496223332670656674567774
130,6761.11469367295111557728534415868082,6759.6,1.51469367295111557728534415868082
131,6865.51623738271853314802079522281247,6864.0,1.51623738271853314802079522281247
132,6970.71776934593904112968863849948499,6969.2,1.51776934593904112968863849948499
133,7076.71928974016814708359725361397148,7075.2,1.51928974016814708359725361397148
134,7183.52079873896593620595020821231388,7182.0,1.52079873896593620595020821231388
135,7291.12229651201609013779071957379685,7289.6,1.52229651201609013779071957379685
136,7399.52378322524050689959059042248624,7398.0,1.52378322524050689959059042248624
137,7508.72525904090971612160739316979673,7507.2,1.52525904090971612160739316979673
138,7618.72672411774927012914418897322900,7617.2,1.52672411774927012914418897322900
139,7729.52817861104228933594525560482658,7728.0,1.52817861104228933594525560482658
140,7841.12962267272832495299607919225044,7839.6,1.52962267272832495299607919225044
141,7953.53105645149869746250850056000562,7952.0,1.53105645149869746250850056000562
142,8066.73248009288846123361025962188998,8065.2,1.53248009288846123361025962188998
143,8180.73389373936513700609063709844176,8179.2,1.53389373936513700609063709844176
144,8295.53529753041434678892176417498280,8294.0,1.53529753041434678892176417498280
145,8411.13669160262248153251843250241761,8409.6,1.53669160262248153251843250241761
146,8527.53807608975652406495502926945404,8526.0,1.53807608975652406495502926945404
147,8644.73945112284114157939244291762966,8643.2,1.53945112284114157939244291762966
148,8762.74081683023316300194076556638272,8761.2,1.54081683023316300194076556638272
149,8881.54217333769354304111328603715977,8880.0,1.54217333769354304111328603715977
150,9001.14352076845691655995284068098923,8999.6,1.54352076845691655995284068098923
151,9121.54485924329883918529421666096296,9120.0,1.54485924329883918529421666096296
152,9242.74618888060080445354331065900914,9241.2,1.54618888060080445354331065900914
153,9364.74750979641312644288423849320381,9363.2,1.54750979641312644288423849320381
154,9487.54882210451577179137533654824407,9486.0,1.54882210451577179137533654824407
155,9611.15012591647721933715215850813615,9609.6,1.55012591647721933715215850813615
156,9735.55142134171142524732913274760016,9734.0,1.55142134171142524732913274760016
157,9860.75270848753296468243567774568971,9859.2,1.55270848753296468243567774568971
158,9986.75398745921042181472658381638639,9985.2,1.55398745921042181472658381638639
159,10113.5552583600180918734407003844804,10112.0,1.5552583600180918734407003844804
160,10241.1565212912860615547952353830942,10239.6,1.5565212912860615547952353830942
161,10369.5577763524487262930857778897844,10368.0,1.5577763524487262930857778897844
162,10498.7590236410918038542497127059827,10497.2,1.5590236410918038542497127059827
163,10628.7602632529978991054530532880719,10627.2,1.5602632529978991054530532880719
164,10759.5614952821906745975628221180889,10758.0,1.5614952821906745975628221180889
165,10891.1627198209776755609954260618059,10889.6,1.5627198209776755609954260618059
166,11023.5639369599918598308061605588221,11022.0,1.5639369599918598308061605588221
167,11156.7651467882318799336243845705678,11155.2,1.5651467882318799336243845705678
168,11290.7663493931011600256376436184752,11289.2,1.5663493931011600256376436184752
169,11425.5675448604458127440099299509599,11424.0,1.5675448604458127440099299509599
170,11561.1687332745914357151535238572217,11559.6,1.5687332745914357151535238572217
171,11697.5699147183788279146220933863669,11696.0,1.5699147183788279146220933863669
172,11834.7710892731986637455985171102485,11833.2,1.5710892731986637455985171102485
173,11972.7722570190251602386291498054738,11971.2,1.5722570190251602386291498054738
174,12111.5734180344487732164475387152992,12110.0,1.5734180344487732164475387152992
175,12251.1745723967079564091540913543982,12249.6,1.5745723967079564091540913543982
176,12391.5757201817200132264482670988218,12390.0,1.5757201817200132264482670988218
177,12532.7768614641110744477984236394457,12531.2,1.5768614641110744477984236394457
178,12674.7779963172452309853029800189541,12673.2,1.5779963172452309853029800189541
179,12817.5791248132528481645520241437671,12816.0,1.5791248132528481645520241437671
180,12961.1802470230580924702610930200824,12959.6,1.5802470230580924702610930200824
181,13105.5813630164056934056408749890776,13104.0,1.5813630164056934056408749890776
182,13250.7824728618869681612769705173340,13249.2,1.5824728618869681612769705173340
183,13396.7835766269651321431887917438393,13395.2,1.5835766269651321431887917438393
184,13543.5846743779999196020070171342324,13542.0,1.5846743779999196020070171342324
185,13691.1857661802715361718063427325144,13689.6,1.5857661802715361718063427325144
186,13839.5868520980039642876315579209147,13838.0,1.5868520980039642876315579209147
187,13988.7879321943876452826464808993092,13987.2,1.5879321943876452826464808993092
188,14138.7890065316015536016570770498332,14137.2,1.5890065316015536016570770498332
189,14289.5900751708346868625450517325550,14288.0,1.5900751708346868625450517325550
190,14441.1911381723069874171436117521801,14439.6,1.5911381723069874171436117521801
191,14593.5921955952897146345707224245364,14592.0,1.5921955952897146345707224245364
192,14746.7932474981252842896958935701105,14745.2,1.5932474981252842896958935701105
193,14900.7942939382465933610704230467216,14899.2,1.5942939382465933610704230467216
194,15055.5953349721958435795960028052643,15054.0,1.5953349721958435795960028052643
195,15211.1963706556428816607930024076632,15209.6,1.5963706556428816607930024076632
196,15367.5974010434030699130795945227600,15366.0,1.5974010434030699130795945227600
197,15524.7984261894547015979076071799544,15523.2,1.5984261894547015979076071799544
198,15682.7994461469559752042661352238408,15681.2,1.5994461469559752042661352238408
199,15841.6004609682615404719545883264630,15840.0,1.6004609682615404719545883264630
200,16001.2014707049386301043798197334190,15999.6,1.6014707049386301043798197334190
201,16161.6024754077827881478639732379910,16160.0,1.6024754077827881478639732379910
202,16322.8034751268332084141968570805802,16321.2,1.6034751268332084141968570805802
203,16484.8044699113876936017441182014000,16483.2,1.6044699113876936017441182014000
204,16647.6054598100172467306218954206428,16646.0,1.6054598100172467306218954206428
205,16811.2064448705803048579063220898503,16809.6,1.6064448705803048579063220898503
206,16975.6074251402366280922499763794759,16974.0,1.6074251402366280922499763794759
207,17140.8084006654608497792156574721364,17139.2,1.6084006654608497792156574721364
208,17306.8093714920557020794337517591554,17305.2,1.6093714920557020794337517591554
209,17473.6103376651649226831262814687720,17472.0,1.6103376651649226831262814687720
210,17641.2112992292858541573268777166896,17639.6,1.6112992292858541573268777166896
211,17809.6122562282817432854981264062700,17808.0,1.6122562282817432854981264062700
212,17978.8132087053937506274303025673332,17977.2,1.6132087053937506274303025673332
213,18148.8141567032526746780870329094850,18147.2,1.6141567032526746780870329094850
214,18319.6151002638904056018735693760815,18318.0,1.6151002638904056018735693760815
215,18491.2160394287511077493637156824948,18489.6,1.6160394287511077493637156824948
216,18663.6169742387021449117634158912521,18662.0,1.6169742387021449117634158912521
217,18836.8179047340447522729907734608777,18835.2,1.6179047340447522729907734608777
218,19010.8188309545244640326780354475298,19009.2,1.6188309545244640326780354475298
219,19185.6197529393412999739079814317744,19184.0,1.6197529393412999739079814317744
220,19361.2206707271597234847018088684626,19359.6,1.6206707271597234847018088684626
221,19537.6215843561183689364640566465004,19536.0,1.6215843561183689364640566465004
222,19714.8224938638395556176799764479514,19713.2,1.6224938638395556176799764479514
223,19892.8233992874385817846486501447079,19891.2,1.6233992874385817846486501447079
224,20071.6243006635328138895227979867091,20070.0,1.6243006635328138895227979867091
225,20251.2251980282505735431924839428265,20249.6,1.6251980282505735431924839428265
226,20431.6260914172398257519672842411361,20430.0,1.6260914172398257519672842411361
227,20612.8269808656766770719415032234483,20611.2,1.6269808656766770719415032234483
228,20794.8278664082736854923029480591013,20793.2,1.6278664082736854923029480591013
229,20977.6287480792879892008115284004409,20976.0,1.6287480792879892008115284004409
230,21161.2296259125292589187914517981119,21159.6,1.6296259125292589187914517981119
231,21345.6304999413674755960321708835138,21344.0,1.6304999413674755960321708835138
232,21530.8313701987405438756680585122821,21529.2,1.6313701987405438756680585122821
233,21716.8322367171617363157153957334604,21715.2,1.6322367171617363157153957334604
234,21903.6330995287269845145352861175837,21902.0,1.6330995287269845145352861175837
235,22091.2339586651220103125484396267013,22089.6,1.6339586651220103125484396267013
236,22279.6348141576293067702273285968904,22278.0,1.6348141576293067702273285968904
237,22468.8356660371349725437765759917233,22467.2,1.6356660371349725437765759917233
238,22658.8365143341354013908248959487050,22657.2,1.6365143341354013908248959487050
