Eigenstate,Energy,Kinetic Energy,Potential Energy
1,0.500000000024236160809760249206849600,0.0,0.500000000024236160809760249206849600
2,1.84623093780931556774244495742720949,1.2,0.64623093780931556774244495742720949
3,3.93633761016967763414413281268150644,3.2,0.73633761016967763414413281268150644
4,6.79966527878215866932438750816074807,6.0,0.79966527878215866932438750816074807
5,10.4480465769623182324705995098227324,9.6,0.8480465769623182324705995098227324
6,14.8870659994646912786877992916304831,14.0,0.8870659994646912786877992916304831
7,20.1197208277273864035540251708841467,19.2,0.9197208277273864035540251708841467
8,26.1477838481273207473902078317926899,25.2,0.9477838481273207473902078317926899
9,32.9723835596707601944086067102404486,32.0,0.9723835596707601944086067102404486
10,40.5942802165062703758379645742313196,39.6,0.9942802165062703758379645742313196
11,49.0140093887748872900496686631568269,48.0,1.0140093887748872900496686631568269
12,58.2319621717812395093582606233349274,57.2,1.0319621717812395093582606233349274
13,68.2484326955911348473790382417473574,67.2,1.0484326955911348473790382417473574
14,79.0636476578877189341873894997889836,78.0,1.0636476578877189341873894997889836
15,90.6777854397856583192997575339868790,89.6,1.0777854397856583192997575339868790
16,103.090988910701584484344185537591801,102.0,1.090988910701584484344185537591801
17,116.303374261815597593097016499191307,115.2,1.103374261815597593097016499191307
18,130.315037257077465649208321125236491,129.2,1.115037257077465649208321125236491
19,145.126057756310601970887037730231362,144.0,1.126057756310601970887037730231362
20,160.736503052846001578058580596009168,159.6,1.136503052846001578058580596009168
21,177.146430379603938360040919584643548,176.0,1.146430379603938360040919584643548
22,194.355888820252705219820138501341798,193.2,1.155888820252705219820138501341798
23,212.364920787145138749999351103655503,211.2,1.164920787145138749999351103655503
24,231.173563178719041416295220638233219,230.0,1.173563178719041416295220638233219
25,250.781848296293107974120136024206462,249.6,1.181848296293107974120136024206462
26,271.189804577874513243398801243549703,270.0,1.189804577874513243398801243549703
27,292.397457191121487966868372333543014,291.2,1.197457191121487966868372333543014
28,314.404828516702358668842541735128936,313.2,1.204828516702358668842541735128936
29,337.211938545497499610493559255589522,336.0,1.211938545497499610493559255589522
30,360.818805207441157368806912849813272,359.6,1.218805207441157368806912849813272
31,385.225444645654170066565377513633091,384.0,1.225444645654170066565377513633091
32,410.431871446440703696198484604019321,409.2,1.231871446440703696198484604019321
33,436.438098833412480176358995251133325,435.2,1.238098833412480176358995251133325
34,463.244138832253425514056692982790620,462.0,1.244138832253425514056692982790620
35,490.850002411298471379585473223117264,489.6,1.250002411298471379585473223117264
36,519.255699602066764523021016226907129,518.0,1.255699602066764523021016226907129
37,548.461239603085453912627794430116195,547.2,1.261239603085453912627794430116195
38,578.466630869709806732439145130163544,577.2,1.266630869709806732439145130163544
39,609.271881192147555726811449198996505,608.0,1.271881192147555726811449198996505
40,640.876997763499559596254121847403717,639.6,1.276997763499559596254121847403717
41,673.281987239312107875154196455434740,672.0,1.281987239312107875154196455434740
42,706.486855789881209120540557687748545,705.2,1.286855789881209120540557687748545
43,740.491609146342714896143030340070965,739.2,1.291609146342714896143030340070965
44,775.296252641414038020519705489956856,774.0,1.296252641414038020519705489956856
45,810.900791245515653979047766054623429,809.6,1.300791245515653979047766054623429
46,847.305229598887438116995693208929956,846.0,1.305229598887438116995693208929956
47,884.509572040221414618576976307089326,883.2,1.309572040221414618576976307089326
48,922.513822632254906912649020840180041,921.2,1.313822632254906912649020840180041
49,961.317985184703416601834336844243104,960.0,1.317985184703416601834336844243104
50,1000.92206327485843529819624906910695,999.6,1.32206327485843529819624906910695
51,1041.32606026612992678613597478703840,1040.0,1.32606026612992678613597478703840
52,1082.52997932477487171888452693767644,1081.2,1.32997932477487171888452693767644
53,1124.53382343502081693642196652654197,1123.2,1.33382343502081693642196652654197
54,1167.33759541276581036120472921092049,1166.0,1.33759541276581036120472921092049
55,1210.94129791801262693557355668798047,1209.6,1.34129791801262693557355668798047
56,1255.34493346617511649459255946763843,1254.0,1.34493346617511649459255946763843
57,1300.54850443837730550295358688839411,1299.2,1.34850443837730550295358688839411
58,1346.55201309085108739829147961266124,1345.2,1.35201309085108739829147961266124
59,1393.35546156352558233598256400972231,1392.0,1.35546156352558233598256400972231
60,1440.95885188789022262279824188880217,1439.6,1.35885188789022262279824188880217
61,1489.36218599420405589928239236225212,1488.0,1.36218599420405589928239236225212
62,1538.56546571811545712560913694817216,1537.2,1.36546571811545712560913694817216
63,1588.56869280674919853665802990202553,1587.2,1.36869280674919853665802990202553
64,1639.37186892431151425212262294750212,1638.0,1.37186892431151425212262294750212
65,1690.97499565725826138749635992643688,1689.6,1.37499565725826138749635992643688
66,1743.37807451906643217272636217518100,1742.0,1.37807451906643217272636217518100
67,1796.58110695464500929400049782421976,1795.2,1.38110695464500929400049782421976
68,1850.58409434441740051332509651151891,1849.2,1.38409434441740051332509651151891
69,1905.38703800810437594982434280134841,1904.0,1.38703800810437594982434280134841
70,1960.98993920823350313842875756024990,1959.6,1.38993920823350313842875756024990
71,2017.39279915339847627788939422474130,2016.0,1.39279915339847627788939422474130
72,2074.59561900128943783767480512374658,2073.2,1.39561900128943783767480512374658
73,2132.59839986151333768690464481465224,2131.2,1.39839986151333768690464481465224
74,2191.40114279822155605992117224592102,2190.0,1.40114279822155605992117224592102
75,2251.00384883256038557199711709529649,2249.6,1.40384883256038557199711709529649
76,2311.40651894495851794192324409558765,2310.0,1.40651894495851794192324409558765
77,2372.60915407726437867980100374750919,2371.2,1.40915407726437867980100374750919
78,2434.61175513474498720018553287727109,2433.2,1.41175513474498720018553287727109
79,2497.41432298795697300073214137851316,2496.0,1.41432298795697300073214137851316
80,2561.01685847449944042085501271316004,2559.6,1.41685847449944042085501271316004
81,2625.41936240065752515343033155714311,2624.0,1.41936240065752515343033155714311
82,2690.62183554294472423202255166924146,2689.2,1.42183554294472423202255166924146
83,2756.62427864955139248232290880942987,2755.2,1.42427864955139248232290880942987
84,2823.42669244170617413477317636636929,2822.0,1.42669244170617413477317636636929
85,2891.02907761495657901917400207289740,2889.6,1.42907761495657901917400207289740
86,2959.43143484037439689668785459622259,2958.0,1.43143484037439689668785459622259
87,3028.63376476569118601384677043032756,3027.2,1.43376476569118601384677043032756
88,3098.63606801636864858543938176404580,3097.2,1.43606801636864858543938176404580
89,3169.43834519660832241099022301206444,3168.0,1.43834519660832241099022301206444
90,3241.04059689030467461281504612668916,3239.6,1.44059689030467461281504612668916
91,3313.44282366194536203158518967430069,3312.0,1.44282366194536203158518967430069
92,3386.64502605746213451779488844060797,3385.2,1.44502605746213451779488844060797
93,3460.64720460503559510246983105938063,3459.2,1.44720460503559510246983105938063
94,3535.44935981585678810171712777160515,3534.0,1.44935981585678810171712777160515
95,3611.05149218484836505568786618248832,3609.6,1.45149218484836505568786618248832
96,3687.45360219134787658040697649810265,3686.0,1.45360219134787658040697649810265
97,3764.65569029975555386881557014865331,3763.2,1.45569029975555386881557014865331
98,3842.65775696014877070307614319218625,3841.2,1.45775696014877070307614319218625
99,3921.45980260886522336800196431047412,3920.0,1.45980260886522336800196431047412
100,4001.06182766905671951505586964155848,3999.6,1.46182766905671951505586964155848
101,4081.46383255121533772220920434984893,4080.0,1.46383255121533772220920434984893
102,4162.66581765367359392023058634353735,4161.2,1.46581765367359392023058634353735
103,4244.66778336308014294236125545089384,4243.2,1.46778336308014294236125545089384
104,4327.46973005485243618962342668343538,4326.0,1.46973005485243618962342668343538
105,4411.07165809360766333025106128131212,4409.6,1.47165809360766333025106128131212
106,4495.47356783357321518748884815867837,4494.0,1.47356783357321518748884815867837
107,4580.67545961897782688804974024173883,4579.2,1.47545961897782688804974024173883
108,4666.67733378442448110396697637461592,4665.2,1.47733378442448110396697637461592
109,4753.47919065524608262704242213734656,4752.0,1.47919065524608262704242213734656
110,4841.08103054784485309496792539399623,4839.6,1.48103054784485309496792539399623
111,4929.48285377001632882699792775583764,4928.0,1.48285377001632882699792775583764
112,5018.68466062125879529341805872910691,5017.2,1.48466062125879529341805872910691
113,5108.68645139306893620726036799417252,5107.2,1.48645139306893620726036799417252
114,5199.48822636922442646895953320121567,5198.0,1.48822636922442646895953320121567
115,5291.08998582605415774614178123108847,5289.6,1.48998582605415774614178123108847
116,5383.49173003269673713909007233178125,5382.0,1.49173003269673713909007233178125
117,5476.69345925134786766942228023689048,5475.2,1.49345925134786766942228023689048
118,5570.69517373749717829841360615749072,5569.2,1.49517373749717829841360615749072
119,5665.49687374015503746767810175047060,5664.0,1.49687374015503746767810175047060
120,5761.09855950206985831268921442423623,5759.6,1.49855950206985831268921442423623
121,5857.50023125993636543237507781229565,5856.0,1.50023125993636543237507781229565
122,5954.70188924459527418489142881629374,5953.2,1.50188924459527418489142881629374
123,6052.70353368122480128674307364872250,6051.2,1.50353368122480128674307364872250
124,6151.50516478952440781261614298550802,6150.0,1.50516478952440781261614298550802
125,6251.10678278389114612702030453474166,6249.6,1.50678278389114612702030453474166
126,6351.50838787358896708154248779184257,6350.0,1.50838787358896708154248779184257
127,6452.70998026291132323362733748286720,6451.2,1.50998026291132323362733748286720
128,6554.71156015133738125560969616771330,6553.2,1.51156015133738125560969616771330
129,6657.51312773368214462948630566958256,6656.0,1.51312773368214462948630566958256
130,6761.11468320024076934104665672424278,6759.6,1.51468320024076934104665672424278
131,6865.51622673692733988286487007336228,6864.0,1.51622673692733988286487007336228
132,6970.71775852540835789845365861009731,6969.2,1.51775852540835789845365861009731
133,7076.71927874323118401829745655915869,7075.2,1.51927874323118401829745655915869
134,7183.52078756394766216252301745407863,7182.0,1.52078756394766216252301745407863
135,7291.12228515723313747662322546863309,7289.6,1.52228515723313747662322546863309
136,7399.52377168900107537911948912248192,7398.0,1.52377168900107537911948912248192
137,7508.72524732151347589210463121574266,7507.2,1.52524732151347589210463121574266
138,7618.72671221348726381361739891360294,7617.2,1.52671221348726381361739891360294
139,7729.52816652019683318489427682242457,7728.0,1.52816652019683318489427682242457
140,7841.12961039357290905957592011272255,7839.6,1.52961039357290905957592011272255
141,7953.53104398229788502445556196435961,7952.0,1.53104398229788502445556196435961
142,8066.73246743189778684808980175987502,8065.2,1.53246743189778684808980175987502
143,8180.73388088483100398342267403559316,8179.2,1.53388088483100398342267403559316
144,8295.53528448057392347093717440200563,8294.0,1.53528448057392347093717440200563
145,8411.13667835570359660108906506968112,8409.6,1.53667835570359660108906506968112
146,8527.53806264397756082602707670205184,8526.0,1.53806264397756082602707670205184
147,8644.73943747641093120763748986075519,8643.2,1.53943747641093120763748986075519
148,8762.74080298135087673091775952313100,8761.2,1.54080298135087673091775952313100
149,8881.54215928454858328360964338696761,8880.0,1.54215928454858328360964338696761
150,9001.14350650922880694294505303141476,8999.6,1.54350650922880694294505303141476
151,9121.54484477615711348373400283278749,9120.0,1.54484477615711348373400283278749
152,9242.74617420370489440693953587585320,9241.2,1.54617420370489440693953587585320
153,9364.74749490791224843840772921893049,9363.2,1.54749490791224843840772921893049
154,9487.54880700254881239696888443830944,9486.0,1.54880700254881239696888443830944
155,9611.15011059917261966787632335746444,9609.6,1.55011059917261966787632335746444
156,9735.55140580718706414791908873185174,9734.0,1.55140580718706414791908873185174
157,9860.75269273389604070878474148836206,9859.2,1.55269273389604070878474148836206
158,9986.75397148455733399674616741593461,9985.2,1.55397148455733399674616741593461
159,10113.5552421624343192414780674374971,10112.0,1.5552421624343192414780674374971
160,10241.1565048688460414115133380862868,10239.6,1.5565048688460414115133380862868
161,10369.5577597032157312124305489522343,10368.0,1.5577597032157312124305489522343
162,10498.7590067631178173888443916616676,10497.2,1.5590067631178173888443916616676
163,10628.7602461443234901834686765920935,10627.2,1.5602461443234901834686765920935
164,10759.5614779408448705898172637173176,10758.0,1.5614779408448705898172637173176
165,10891.1627022449778339987309898791274,10889.6,1.5627022449778339987309898791274
166,11023.5639191473435387542895554059895,11022.0,1.5639191473435387542895554059895
167,11156.7651287369287068513982696360393,11155.2,1.5651287369287068513982696360393
168,11290.7663311011246994639334915977301,11289.2,1.5663311011246994639334915977301
169,11425.5675263257654323655076607306755,11424.0,1.5675263257654323655076607306755
170,11561.1687144951641709859400300833888,11559.6,1.5687144951641709859400300833888
171,11697.5698956921492452978640867975465,11696.0,1.5698956921492452978640867975465
172,11834.7710699980987224001000645607780,11833.2,1.5710699980987224001000645607780
173,11972.7722374929740722000934155937481,11971.2,1.5722374929740722000934155937481
174,12111.5733982553528620389036733777656,12110.0,1.5733982553528620389036733777656
175,12251.1745523624605142436469141812171,12249.6,1.5745523624605142436469141812171
176,12391.5756998902011563137149109377505,12390.0,1.5756998902011563137149109377505
177,12532.7768409131875970012786507952596,12531.2,1.5768409131875970012786507952596
178,12674.7779755047704574404427152041787,12673.2,1.5779755047704574404427152041787
179,12817.5791037370664837699664056579393,12816.0,1.5791037370664837699664056579393
180,12961.1802256809860721959208297735002,12959.6,1.5802256809860721959208297735002
181,13105.5813414062600291428381506163547,13104.0,1.5813414062600291428381506163547
182,13250.7824509814655941887085229737362,13249.2,1.5824509814655941887085229737362
183,13396.7835544740517488330687109048156,13395.2,1.5835544740517488330687109048156
184,13543.5846519503638353396884531658355,13542.0,1.5846519503638353396884531658355
185,13691.1857434756675074619478328852074,13689.6,1.5857434756675074619478328852074
186,13839.5868291141720340194948293910182,13838.0,1.5868291141720340194948293910182
187,13988.7879089290529791266502337008480,13987.2,1.5879089290529791266502337008480
188,14138.7889829824742745088440036363718,14137.2,1.5889829824742745088440036363718
189,14289.5900513356097076381402000302973,14288.0,1.5900513356097076381402000302973
190,14441.1911140486638413388946529255611,14439.6,1.5911140486638413388946529255611
191,14593.5921711808923840860631081064572,14592.0,1.5921711808923840860631081064572
192,14746.7932227906220273783282897286691,14745.2,1.5932227906220273783282897286691
193,14900.7942689352697684898584825839674,14899.2,1.5942689352697684898584825839674
194,15055.5953096713617319414443848363113,15054.0,1.5953096713617319414443848363113
195,15211.1963450545515076233365456325012,15209.6,1.5963450545515076233365456325012
196,15367.5973751396380192616462895136545,15366.0,1.5973751396380192616462895136545
197,15524.7983999805829376035935871505459,15523.2,1.5983999805829376035935871505459
198,15682.7994196305276524835432587618112,15681.2,1.5994196305276524835432587618112
199,15841.6004341418098166036452776182349,15840.0,1.6004341418098166036452776182349
200,16001.2014435659794749692402797989915,15999.6,1.6014435659794749692402797989915
201,16161.6024479538147909554093722942195,16160.0,1.6024479538147909554093722942195
202,16322.8034473553373823807798687074796,16321.2,1.6034473553373823807798687074796
203,16484.8044418198272782432690162670847,16483.2,1.6044418198272782432690162670847
204,16647.6054313958375077326276644664277,16646.0,1.6054313958375077326276644664277
205,16811.2064161312083314850959945351050,16809.6,1.6064161312083314850959945351050
206,16975.6073960730811280988685296795401,16974.0,1.6073960730811280988685296795401
207,17140.8083712679119417809940974688287,17139.2,1.6083712679119417809940974688287
208,17306.8093417614847053471156792421762,17305.2,1.6093417614847053471156792421762
209,17473.6103075989241443168779463280358,17472.0,1.6103075989241443168779463280358
210,17641.2112688247083736006017267349992,17639.6,1.6112688247083736006017267349992
211,17809.6122254826811941361820842560165,17808.0,1.6122254826811941361820842560165
212,17978.8131776160640997033323626382168,17977.2,1.6131776160640997033323626382168
213,18148.8141252674679982930623463351151,18147.2,1.6141252674679982930623463351151
214,18319.6150684789046630080743434598103,18318.0,1.6150684789046630080743434598103
215,18491.2160072917979117003020886277248,18489.6,1.6160072917979117003020886277248
216,18663.6169417469945293000432585479120,18662.0,1.6169417469945293000432585479120
217,18836.8178718847749367957212386971687,18835.2,1.6178718847749367957212386971687
218,19010.8187977448636158367192932441440,19009.2,1.6187977448636158367192932441440
219,19185.6197193664392922322162515046002,19184.0,1.6197193664392922322162515046002
220,19361.2206367881448908541445521154936,19359.6,1.6206367881448908541445521154936
221,19537.6215500480972598465534692291774,19536.0,1.6215500480972598465534692291774
222,19714.8224591838966813387358259789378,19713.2,1.6224591838966813387358259789378
223,19892.8233642326361622229421129420968,19891.2,1.6233642326361622229421129420968
224,20071.6242652309105200559728938135420,20070.0,1.6242652309105200559728938135420
225,20251.2251622148252666411846199797956,20249.6,1.6251622148252666411846199797956
226,20431.6260552200052928288420275311232,20430.0,1.6260552200052928288420275311232
227,20612.8269442816033631776561085411188,20611.2,1.6269442816033631776561085411188
228,20794.8278294343084222876992390055002,20793.2,1.6278294343084222876992390055002
229,20977.6287107123537199568330918446944,20976.0,1.6287107123537199568330918446944
230,21161.2295881495247598468779751990216,21159.6,1.6295881495247598468779751990216
231,21345.6304617791670734487783414965598,21344.0,1.6304617791670734487783414965598
232,21530.8313316341938297556692887353543,21529.2,1.6313316341938297556692887353543
233,21716.8321977470932756293325446414727,21715.2,1.6321977470932756293325446414727
234,21903.6330601499360230060916662816366,21902.0,1.6330601499360230060916662816366
235,22091.2339188743821761132301306577139,22089.6,1.6339188743821761132301306577139
236,22279.6347739516883083946841390957960,22278.0,1.6347739516883083946841390957960
237,22468.8356254127142927661203915528939,22467.2,1.6356254127142927661203915528939
238,22658.8364732879299869303928070732206,22657.2,1.6364732879299869303928070732206
