Eigenstate,Energy,Kinetic Energy,Potential Energy
1,0.500000000028424137798766940525652325,0.0,0.500000000028424137798766940525652325
2,1.84623093783665249947807898633665918,1.2,0.64623093783665249947807898633665918
3,3.93633761024997766741372577418201116,3.2,0.73633761024997766741372577418201116
4,6.79966527894941447569933345664633518,6.0,0.79966527894941447569933345664633518
5,10.4480465772520395291999110339594323,9.6,0.8480465772520395291999110339594323
6,14.8870659999130092533333252540451926,14.0,0.8870659999130092533333252540451926
7,20.1197208283707236777896070673702629,19.2,0.9197208283707236777896070673702629
8,26.1477838490022536841876901202279610,25.2,0.9477838490022536841876901202279610
9,32.9723835608139548210696326743605296,32.0,0.9723835608139548210696326743605296
10,40.5942802179544498163288834439897029,39.6,0.9942802179544498163288834439897029
11,49.0140093905648140304556460240527339,48.0,1.0140093905648140304556460240527339
12,58.2319621739497052220492195360201207,57.2,1.0319621739497052220492195360201207
13,68.2484326981749543301467262073369859,67.2,1.0484326981749543301467262073369859
14,79.0636476609237264175355654417131220,78.0,1.0636476609237264175355654417131220
15,90.6777854433107052023781392323833421,89.6,1.0777854433107052023781392323833421
16,103.090988914752537968269385197115775,102.0,1.090988914752537968269385197115775
17,116.303374266429339897997400100010859,115.2,1.103374266429339897997400100010859
18,130.315037262290893622715538702132553,129.2,1.115037262290893622715538702132553
19,145.126057762160626966266271580049260,144.0,1.126057762160626966266271580049260
20,160.736503059369549522540764536853481,159.6,1.136503059369549522540764536853481
21,177.146430386837949960201415989406229,176.0,1.146430386837949960201415989406229
22,194.355888828234136267607820345716882,193.2,1.155888828234136267607820345716882
23,212.364920795910960503976440833366733,211.2,1.164920795910960503976440833366733
24,231.173563188306241039973129690879048,230.0,1.173563188306241039973129690879048
25,250.781848306738689018273896456613402,249.6,1.181848306738689018273896456613402
26,271.189804589215496162715488952867451,270.0,1.189804589215496162715488952867451
27,292.397457203394910663739229559155437,291.2,1.197457203394910663739229559155437
28,314.404828529945277058869948998823914,313.2,1.204828529945277058869948998823914
29,337.211938559746988205566214849619164,336.0,1.211938559746988205566214849619164
30,360.818805222734309874542205619583173,359.6,1.218805222734309874542205619583173
31,385.225444662028099991623809013747372,384.0,1.225444662028099991623809013747372
32,410.431871463932544971507830051581631,409.2,1.231871463932544971507830051581631
33,436.438098852059387782692313545389426,435.2,1.238098852059387782692313545389426
34,463.244138852092576116721319207943932,462.0,1.244138852092576116721319207943932
35,490.850002432367063969223405199380525,489.6,1.250002432367063969223405199380525
36,519.255699624402021061711789835602737,518.0,1.255699624402021061711789835602737
37,548.461239626724619984635596711194859,547.2,1.261239626724619984635596711194859
38,578.466630894690152199065831485156618,577.2,1.266630894690152199065831485156618
39,609.271881218506375384913256975368511,608.0,1.271881218506375384913256975368511
40,640.876997791274173840057445059312590,639.6,1.276997791274173840057445059312590
41,673.281987268539863361068769986437276,672.0,1.281987268539863361068769986437276
42,706.486855820599479434719852157664320,705.2,1.286855820599479434719852157664320
43,740.491609178588901224583925710343548,739.2,1.291609178588901224583925710343548
44,775.296252675225569821528415897331262,774.0,1.296252675225569821528415897331262
45,810.900791280929989657927957849436571,809.6,1.300791280929989657927957849436571
46,847.305229635942065702838913985259528,846.0,1.305229635942065702838913985259528
47,884.509572078953852443055757087236228,883.2,1.309572078953852443055757087236228
48,922.513822672702704290730066066471609,921.2,1.313822672702704290730066066471609
49,961.317985226904154514343623532035583,960.0,1.317985226904154514343623532035583
50,1000.92206331884972707618007881107619,999.6,1.32206331884972707618007881107619
51,1041.32606031194941879697245849389486,1040.0,1.32606031194941879697245849389486
52,1082.52997937246024405410887895749054,1081.2,1.32997937246024405410887895749054
53,1124.53382348460978410123664570740650,1123.2,1.33382348460978410123664570740650
54,1167.33759546429612196565205157211104,1166.0,1.33759546429612196565205157211104
55,1210.94129797152206838735410587135540,1209.6,1.34129797152206838735410587135540
56,1255.34493352170150969351766235024955,1254.0,1.34493352170150969351766235024955
57,1300.54850449595850953702441691621819,1299.2,1.34850449595850953702441691621819
58,1346.55201315052499924140111976683113,1345.2,1.35201315052499924140111976683113
59,1393.35546162533013754724063263685732,1392.0,1.35546162533013754724063263685732
60,1440.95885195186339604748058687767268,1439.6,1.35885195186339604748058687767268
61,1489.36218606038386237141089460415574,1488.0,1.36218606038386237141089460415574
62,1538.56546578653995217216892458307864,1537.2,1.36546578653995217216892458307864
63,1588.56869287745647908346139479332826,1587.2,1.36869287745647908346139479332826
64,1639.37186899733971933133069405665049,1638.0,1.37186899733971933133069405665049
65,1690.97499573264557284681119516099069,1689.6,1.37499573264557284681119516099069
66,1743.37807459685107538626750821119649,1742.0,1.37807459685107538626750821119649
67,1796.58110703486525387488135805178654,1795.2,1.38110703486525387488135805178654
68,1850.58409442711156102794557785717253,1849.2,1.38409442711156102794557785717253
69,1905.38703809331081263389729997366490,1904.0,1.38703809331081263389729997366490
70,1960.98993929599062261475865340411536,1959.6,1.38993929599062261475865340411536
71,2017.39279924374473227592249034035370,2016.0,1.39279924374473227592249034035370
72,2074.59561909426333191484093202287241,2073.2,1.39561909426333191484093202287241
73,2132.59839995715341995177133562681098,2131.2,1.39839995715341995177133562681098
74,2191.40114289656642589718157151721539,2190.0,1.40114289656642589718157151721539
75,2251.00384893364869236931369310751494,2249.6,1.40384893364869236931369310751494
76,2311.40651904882896181864986736757544,2310.0,1.40651904882896181864986736757544
77,2372.60915418395571121760647270882741,2371.2,1.40915418395571121760647270882741
78,2434.61175524429601217560210874572198,2433.2,1.41175524429601217560210874572198
79,2497.41432310040654711965309303340490,2496.0,1.41432310040654711965309303340490
80,2561.01685858988647405500557868738303,2559.6,1.41685858988647405500557868738303
81,2625.41936251902098307883691039013758,2624.0,1.41936251902098307883691039013758
82,2690.62183566432362636950529256715521,2689.2,1.42183566432362636950529256715521
83,2756.62427877398481464003721859348098,2755.2,1.42427877398481464003721859348098
84,2823.42669256923324875282599854471157,2822.0,1.42669256923324875282599854471157
85,2891.02907774561649591634102543719162,2889.6,1.42907774561649591634102543719162
86,2959.43143497420640401925811336662610,2958.0,1.43143497420640401925811336662610
87,3028.63376490273459018662139523204528,3027.2,1.43376490273459018662139523204528
88,3098.63606815666281626491152362853389,3097.2,1.43606815666281626491152362853389
89,3169.43834534019268044073344448468344,3168.0,1.43834534019268044073344448468344
90,3241.04059703721871098110772953795538,3239.6,1.44059703721871098110772953795538
91,3313.44282381222862663129876772997800,3312.0,1.44282381222862663129876772997800
92,3386.64502621115423990857393566263569,3385.2,1.44502621115423990857393566263569
93,3460.64720476217621727523230777881448,3459.2,1.44720476217621727523230777881448
94,3535.44935997648566724550327636969907,3534.0,1.44935997648566724550327636969907
95,3611.05149234900530632688651561227668,3609.6,1.45149234900530632688651561227668
96,3687.45360235907275087438820161351370,3686.0,1.45360235907275087438820161351370
97,3764.65569047108829859399890633732073,3763.2,1.45569047108829859399890633732073
98,3842.65775713512939055746373559490430,3841.2,1.45775713512939055746373559490430
99,3921.45980278753379111820628838512821,3920.0,1.45980278753379111820628838512821
100,4001.06182785145337677785182605132019,3999.6,1.46182785145337677785182605132019
101,4081.46383273738029574864063276213436,4080.0,1.46383273738029574864063276213436
102,4162.66581784364713438230144798371710,4161.2,1.46581784364713438230144798371710
103,4244.66778355690261872234191027372101,4243.2,1.46778355690261872234191027372101
104,4327.46973025256427217200269373146205,4326.0,1.46973025256427217200269373146205
105,4411.07165829524935719636489788933123,4409.6,1.47165829524935719636489788933123
106,4495.47356803918533821285672884868142,4494.0,1.47356803918533821285672884868142
107,4580.67545982860102474245000456001962,4579.2,1.47545982860102474245000456001962
108,4666.67733399809947465428261057949820,4665.2,1.47733399809947465428261057949820
109,4753.47919087301366874290898119361964,4752.0,1.47919087301366874290898119361964
110,4841.08103076974590545725546073974570,4839.6,1.48103076974590545725546073974570
111,4929.48285399609179873915902461076717,4928.0,1.48285399609179873915902461076717
112,5018.68466085154971249573428234147654,5017.2,1.48466085154971249573428234147654
113,5108.68645162761640969401962548702668,5107.2,1.48645162761640969401962548702668
114,5199.48822660806964530859707158988319,5198.0,1.48822660806964530859707158988319
115,5291.08998606923839190437774247740168,5289.6,1.48998606923839190437774247740168
116,5383.49173028026133830509674722222998,5382.0,1.49173028026133830509674722222998
117,5476.69345950333427008505440532590781,5475.2,1.49345950333427008505440532590781
118,5570.69517399394689959053527375510218,5569.2,1.49517399394689959053527375510218
119,5665.49687400110967948362004922603770,5664.0,1.49687400110967948362004922603770
120,5761.09855976757110795887049387157311,5759.6,1.49855976757110795887049387157311
121,5857.50023153002599551612331658158205,5856.0,1.50023153002599551612331658158205
122,5954.70188951931514425949611898953936,5953.2,1.50188951931514425949611898953936
123,6052.70353396061685849977652926621813,6051.2,1.50353396061685849977652926621813
124,6151.50516507363068775755701095343493,6150.0,1.50516507363068775755701095343493
125,6251.10678307275377369821472467604733,6249.6,1.50678307275377369821472467604733
126,6351.50838816725015733253824204222020,6350.0,1.50838816725015733253824204222020
127,6452.70998056141338223891653201200107,6451.2,1.50998056141338223891653201200107
128,6554.71156045472270697581578402585339,6553.2,1.51156045472270697581578402585339
129,6657.51312804199322778003144369127070,6656.0,1.51312804199322778003144369127070
130,6761.11468351352019426433569819865171,6759.6,1.51468351352019426433569819865171
131,6865.51622705521778542402242523845557,6864.0,1.51622705521778542402242523845557
132,6970.71775884875259828465104573039611,6969.2,1.51775884875259828465104573039611
133,7076.71927907167208974170644238989805,7075.2,1.51927907167208974170644238989805
134,7183.52078789752820086693362747893447,7182.0,1.52078789752820086693362747893447
135,7291.12228549599637484776307157752394,7289.6,1.52228549599637484776307157752394
136,7399.52377203299017603871233965280071,7398.0,1.52377203299017603871233965280071
137,7508.72524767077170429570619448086568,7507.2,1.52524767077170429570619448086568
138,7618.72671256805798515226655427349688,7617.2,1.52671256805798515226655427349688
139,7729.52816688012351429061825198048931,7728.0,1.52816688012351429061825198048931
140,7841.12961075889911931478814484785237,7839.6,1.52961075889911931478814484785237
141,7953.53104435306729727528520956328926,7952.0,1.53104435306729727528520956328926
142,8066.73246780815417832168231318666859,8065.2,1.53246780815417832168231318666859
143,8180.73388126661825720925079643630356,8179.2,1.53388126661825720925079643630356
144,8295.53528486793602720616232917442454,8294.0,1.53528486793602720616232917442454
145,8411.13667874868464676001314908274817,8409.6,1.53667874868464676001314908274817
146,8527.53806304262176141367505389927748,8526.0,1.53806304262176141367505389927748
147,8644.73943788076259525751141844833230,8643.2,1.53943788076259525751141844833230
148,8762.74080339145442724696320046384917,8761.2,1.54080339145442724696320046384917
149,8881.54215970044855418643566858927472,8880.0,1.54215970044855418643566858927472
150,9001.14350693096984402033933565051137,8999.6,1.54350693096984402033933565051137
151,9121.54484520378397534551481962505847,9120.0,1.54484520378397534551481962505847
152,9242.74617463726245344418675265926300,9241.2,1.54617463726245344418675265926300
153,9364.74749534744549178711518460132978,9363.2,1.54749534744549178711518460132978
154,9487.54880744810284290616085072860211,9486.0,1.54880744810284290616085072860211
155,9611.15011105079265687223102938415610,9609.6,1.55011105079265687223102938415610
156,9735.55140626491844524494266447783801,9734.0,1.55140626491844524494266447783801
157,9860.75269319778422154057916737950993,9859.2,1.55269319778422154057916737950993
158,9986.75397195464789003641514511840714,9985.2,1.55397195464789003641514511840714
159,10113.5552426387729465842151265116394,10112.0,1.5552426387729465842151265116394
160,10241.1565053514785577704166592543087,10239.6,1.5565053514785577704166592543087
161,10369.5577601921880769190895199892489,10368.0,1.5577601921880769190895199892489
162,10498.7590072584760563987430414064206,10497.2,1.5590072584760563987430414064206
163,10628.7602466461138110862515515942110,10627.2,1.5602466461138110862515515942110
164,10759.5614784491135876244637008035332,10758.0,1.5614784491135876244637008035332
165,10891.1627027597713880736839752918293,10889.6,1.5627027597713880736839752918293
166,11023.5639196687084984725857528912149,11022.0,1.5639196687084984725857528912149
167,11156.7651292649117695408461414911648,11155.2,1.5651292649117695408461414911648
168,11290.7663316357726922123868436338422,11289.2,1.5663316357726922123868436338422
169,11425.5675268671253130612821382054408,11424.0,1.5675268671253130612821382054408
170,11561.1687150432830293634206545025950,11559.6,1.5687150432830293634206545025950
171,11697.5698962470743039883521479160984,11696.0,1.5698962470743039883521479160984
172,11834.7710705598773379879480711246379,11833.2,1.5710705598773379879480711246379
173,11972.7722380616537362841772041459812,11971.2,1.5722380616537362841772041459812
174,12111.5733988309812022994811379906659,12110.0,1.5733988309812022994811379906659
175,12251.1745529450852955146532104477630,12249.6,1.5745529450852955146532104477630
176,12391.5757004798702816605443099742237,12390.0,1.5757004798702816605443099742237
177,12532.7768415099491088041037230155176,12531.2,1.5768415099491088041037230155176
178,12674.7779761086725384831217580080458,12673.2,1.5779761086725384831217580080458
179,12817.5791043481574583345905927725218,12816.0,1.5791043481574583345905927725218
180,12961.1802262993144071630528054765105,12959.6,1.5802262993144071630528054765105
181,13105.5813420318743350974942784780836,13104.0,1.5813420318743350974942784780836
182,13250.7824516144146265321374199517092,13249.2,1.5824516144146265321374199517092
183,13396.7835551143844089003790594763683,13395.2,1.5835551143844089003790594763683
184,13543.5846525981291715233794941691178,13542.0,1.5846525981291715233794941691178
185,13691.1857441309147163413964705238976,13689.6,1.5857441309147163413964705238976
186,13839.5868297769504614964535113466088,13838.0,1.5868297769504614964535113466088
187,13988.7879095994121215668104336210476,13987.2,1.5879095994121215668104336210476
188,14138.7889836604637798895203273221638,14137.2,1.5889836604637798895203273221638
189,14289.5900520212793767021307745726096,14288.0,1.5900520212793767021307745726096
190,14441.1911147420636287545738003638160,14439.6,1.5911147420636287545738003638160
191,14593.5921718820723996137627758185413,14592.0,1.5921718820723996137627758185413
192,14746.7932234996325370430651427053037,14745.2,1.5932234996325370430651427053037
193,14900.7942696521611957604640721001751,14899.2,1.5942696521611957604640721001751
194,15055.5953103961846589161562237816886,15054.0,1.5953103961846589161562237816886
195,15211.1963457873566762219084025334747,15209.6,1.5963457873566762219084025334747
196,15367.5973758804763324240364991158971,15366.0,1.5973758804763324240364991158971
197,15524.7984007295054604952906464005072,15523.2,1.5984007295054604952906464005072
198,15682.7994203875856137075884619676802,15681.2,1.5994203875856137075884619676802
199,15841.6004349070546094194125856672910,15840.0,1.6004349070546094194125856672910
200,16001.2014443394626585180342299423812,15999.6,1.6014443394626585180342299423812
201,16161.6024487355880914929422151506742,16160.0,1.6024487355880914929422151506742
202,16322.8034481454526945165896508356080,16321.2,1.6034481454526945165896508356080
203,16484.8044426183366661871409475958714,16483.2,1.6044426183366661871409475958714
204,16647.6054322027932065480814403327296,16646.0,1.6054322027932065480814403327296
205,16811.2064169466627483500023792964985,16809.6,1.6064169466627483500023792964985
206,16975.6073968970868435732590419727107,16974.0,1.6073968970868435732590419727107
207,17140.8083721005217110821281202186037,17139.2,1.6083721005217110821281202186037
208,17306.8093426027514596318698999930964,17305.2,1.6093426027514596318698999930964
209,17473.6103084489009919715235262102067,17472.0,1.6103084489009919715235262102067
210,17641.2112696834486015380351991703288,17639.6,1.6112696834486015380351991703288
211,17809.6122263502382691006765268754220,17808.0,1.6122263502382691006765268754220
212,17978.8131784924916695828758834562070,17977.2,1.6131784924916695828758834562070
213,18148.8141261528198934393516167888777,18147.2,1.6141261528198934393516167888777
214,18319.6150693732348975642313713715315,18318.0,1.6150693732348975642313713715315
215,18491.2160081951606849363830857913243,18489.6,1.6160081951606849363830857913243
216,18663.6169426594442269564089882893658,18662.0,1.6169426594442269564089882893658
217,18836.8178728063661324343388372259677,18835.2,1.6178728063661324343388372259677
218,19010.8187986756510722004661780633389,19009.2,1.6187986756510722004661780633389
219,19185.6197203064779626122573225714561,19184.0,1.6197203064779626122573225714561
220,19361.2206377374899204654544984928604,19359.6,1.6206377374899204654544984928604
221,19537.6215510068039872116566053183864,19536.0,1.6215510068039872116566053183864
222,19714.8224601520206396797365503828912,19713.2,1.6224601520206396797365503828912
223,19892.8233652102330808619196664248506,19891.2,1.6233652102330808619196664248506
224,20071.6242662180363258238147729196163,20070.0,1.6242662180363258238147729196163
225,20251.2251632115360852949335799353526,20249.6,1.6251632115360852949335799353526
226,20431.6260562263574504776323913263619,20430.0,1.6260562263574504776323913263619
227,20612.8269452976533877173156000588942,20611.2,1.6269452976533877173156000588942
228,20794.8278304601130448440933580851856,20793.2,1.6278304601130448440933580851856
229,20977.6287117479698763380296324702353,20976.0,1.6287117479698763380296324702353
230,21161.2295891950095920042100851025478,21159.6,1.6295891950095920042100851025478
231,21345.6304628345779309468850138130268,21344.0,1.6304628345779309468850138130268
232,21530.8313326995882712515931317346120,21529.2,1.6313326995882712515931317346120
233,21716.8321988225290703607551343991489,21715.2,1.6321988225290703607551343991489
234,21903.6330612354711522887877169010454,21902.0,1.6330612354711522887877169010454
235,22091.2339199700748348478222245148671,22089.6,1.6339199700748348478222245148671
236,22279.6347750575969065827806648694253,22278.0,1.6347750575969065827806648694253
237,22468.8356265288974570359200117874753,22467.2,1.6356265288974570359200117874753
238,22658.8364744144465620718394783619746,22657.2,1.6364744144465620718394783619746
