Eigenstate,Energy,Kinetic Energy,Potential Energy
1,0.500000000012535290076176266009387089,0.0,0.500000000012535290076176266009387089
2,1.84623093773293846341013783533905675,1.2,0.64623093773293846341013783533905675
3,3.93633760994532642725960853813887028,3.2,0.73633760994532642725960853813887028
4,6.79966527831486179048795393733504172,6.0,0.79966527831486179048795393733504172
5,10.4480465761528667688874672616857909,9.6,0.8480465761528667688874672616857909
6,14.8870659982121415390896286088200628,14.0,0.8870659982121415390896286088200628
7,20.1197208259299824125397367233437286,19.2,0.9197208259299824125397367233437286
8,26.1477838456828793481602771048027578,25.2,0.9477838456828793481602771048027578
9,32.9723835564768504750694971920384874,32.0,0.9723835564768504750694971920384874
10,40.5942802124603050615495644204802348,39.6,0.9942802124603050615495644204802348
11,49.0140093837741726929228202381331506,48.0,1.0140093837741726929228202381331506
12,58.2319621657230043602120478723251072,57.2,1.0319621657230043602120478723251072
13,68.2484326883725476309001986678420332,67.2,1.0484326883725476309001986678420332
14,79.0636476494058986079736680221912367,78.0,1.0636476494058986079736680221912367
15,90.6777854299376810417169941434721147,89.6,1.0777854299376810417169941434721147
16,103.090988899384487835504372042446414,102.0,1.090988899384487835504372042446414
17,116.303374248926383165326877020711709,115.2,1.103374248926383165326877020711709
18,130.315037242513100544236941423221617,129.2,1.115037242513100544236941423221617
19,145.126057739968019544096365919622237,144.0,1.126057739968019544096365919622237
20,160.736503034622101651759510567266839,159.6,1.136503034622101651759510567266839
21,177.146430359395587054310499323911760,176.0,1.146430359395587054310499323911760
22,194.355888797956734502611233510524940,193.2,1.155888797956734502611233510524940
23,212.364920762658345777623075714184168,211.2,1.164920762658345777623075714184168
24,231.173563151938187714911533971449214,230.0,1.173563151938187714911533971449214
25,250.781848267114918498910009202903844,249.6,1.181848267114918498910009202903844
26,271.189804546195675342388786221057331,270.0,1.189804546195675342388786221057331
27,292.397457156838650269521408583183924,291.2,1.197457156838650269521408583183924
28,314.404828479712129914607638434487269,313.2,1.204828479712129914607638434487269
29,337.211938505696447428924717249056145,336.0,1.211938505696447428924717249056145
30,360.818805164725807020219754343591340,359.6,1.218805164725807020219754343591340
31,385.225444599921003150227900796142753,384.0,1.225444599921003150227900796142753
32,410.431871397586156831563765651266464,409.2,1.231871397586156831563765651266464
33,436.438098781332943661712236014922627,435.2,1.238098781332943661712236014922627
34,463.244138776845241966074544191399339,462.0,1.244138776845241966074544191399339
35,490.850002352457934356625942394132357,489.6,1.250002352457934356625942394132357
36,519.255699539690117134429609484657815,518.0,1.255699539690117134429609484657815
37,548.461239537068887415924696567970354,547.2,1.261239537068887415924696567970354
38,578.466630799949459119917291324415301,577.2,1.266630799949459119917291324415301
39,609.271881118539510302806859173370032,608.0,1.271881118539510302806859173370032
40,640.876997685939843546133212705450754,639.6,1.276997685939843546133212705450754
41,673.281987157696690826886912952511000,672.0,1.281987157696690826886912952511000
42,706.486855704106001699584479936011103,705.2,1.286855704106001699584479936011103
43,740.491609056303567274245618518944114,739.2,1.291609056303567274245618518944114
44,775.296252547006738458948416513130167,774.0,1.296252547006738458948416513130167
45,810.900791146635927366676908381106106,809.6,1.300791146635927366676908381106106
46,847.305229495430944503611451115729695,846.0,1.305229495430944503611451115729695
47,884.509571932083747743705557674215072,883.2,1.309571932083747743705557674215072
48,922.513822519331592730165330039581126,921.2,1.313822519331592730165330039581126
49,961.317985066889911800568433244448047,960.0,1.317985066889911800568433244448047
50,1000.92206315205012581872077455935133,999.6,1.32206315205012581872077455935133
51,1041.32606013822212633388871068290070,1040.0,1.32606013822212633388871068290070
52,1082.52997919166282027375544739342125,1081.2,1.32997919166282027375544739342125
53,1124.53382329659967925891289050188336,1123.2,1.33382329659967925891289050188336
54,1167.33759526893067449525134468473720,1166.0,1.33759526893067449525134468473720
55,1210.94129776865850270810379211722449,1209.6,1.34129776865850270810379211722449
56,1255.34493331119693401188156842546402,1254.0,1.34493331119693401188156842546402
57,1300.54850427766991364382372915574650,1299.2,1.34850427766991364382372915574650
58,1346.55201292430925230419525767339558,1345.2,1.35201292430925230419525767339558
59,1393.35546139104398589799745801333004,1392.0,1.35546139104398589799745801333004
60,1440.95885170936346096555439641586554,1439.6,1.35885170936346096555439641586554
61,1489.36218580952663786183713790131319,1488.0,1.36218580952663786183713790131319
62,1538.56546552718180273927613653652376,1537.2,1.36546552718180273927613653652376
63,1588.56869260945363749979342167147181,1587.2,1.36869260945363749979342167147181
64,1639.37186872054828440186570491897286,1638.0,1.37186872054828440186570491897286
65,1690.97499544692150716845802926797885,1689.6,1.37499544692150716845802926797885
66,1743.37807430205020310261474935484629,1742.0,1.37807430205020310261474935484629
67,1796.58110673084325842616979574208019,1795.2,1.38110673084325842616979574208019
68,1850.58409411372398289623054195223183,1849.2,1.38409411372398289623054195223183
69,1905.38703777041304708336352702930970,1904.0,1.38703777041304708336352702930970
70,1960.98993896343791742714704760764998,1959.6,1.38993896343791742714704760764998
71,2017.39279890139218548102491434971799,2016.0,1.39279890139218548102491434971799
72,2074.59561874196588951601652831388309,2073.2,1.39561874196588951601652831388309
73,2132.59839959476587364643521761502144,2131.2,1.39839959476587364643521761502144
74,2191.40114252394341079221449916971651,2190.0,1.40114252394341079221449916971651
75,2251.00384855064468469133916990204637,2249.6,1.40384855064468469133916990204637
76,2311.40651865529827661912321861319389,2310.0,1.40651865529827661912321861319389
77,2372.60915377975250007265864928406786,2371.2,1.40915377975250007265864928406786
78,2434.61175482927426088057932863817354,2433.2,1.41175482927426088057932863817354
79,2497.41432267442007337829189611825016,2496.0,1.41432267442007337829189611825016
80,2561.01685815278892516318151580812156,2559.6,1.41685815278892516318151580812156
81,2625.41936207066583360282371950715563,2624.0,1.41936207066583360282371950715563
82,2690.62183520456417581868021821999356,2689.2,1.42183520456417581868021821999356
83,2756.62427830267418513396699667931972,2755.2,1.42427830267418513396699667931972
84,2823.42669208622438268266693948792942,2822.0,1.42669208622438268266693948792942
85,2891.02907725076215360048561968024871,2889.6,1.42907725076215360048561968024871
86,2959.43143446735916135315965301631423,2958.0,1.43143446735916135315965301631423
87,3028.63376438374683628672715495990023,3027.2,1.43376438374683628672715495990023
88,3098.63606762538675110663421318290686,3097.2,1.43606762538675110663421318290686
89,3169.43834479648031249038983526861333,3168.0,1.43834479648031249038983526861333
90,3241.04059648092185482175255567167608,3239.6,1.44059648092185482175255567167608
91,3313.44282324319890058238124551602917,3312.0,1.44282324319890058238124551602917
92,3386.64502562924306363934355088060546,3385.2,1.44502562924306363934355088060546
93,3460.64720416723480941181979119160435,3459.2,1.44720416723480941181979119160435
94,3535.44935936836504297160204619199987,3534.0,1.44935936836504297160204619199987
95,3611.05149172755627497795917058439292,3609.6,1.45149172755627497795917058439292
96,3687.45360172414591352532208556442926,3686.0,1.45360172414591352532208556442926
97,3764.65568982253404564013404230470444,3763.2,1.45568982253404564013404230470444
98,3842.65775647279789928891595095776262,3841.2,1.45775647279789928891595095776262
99,3921.45980211127502328740763339308162,3920.0,1.45980211127502328740763339308162
100,4001.06182716111707616022991659713307,3999.6,1.46182716111707616022991659713307
101,4081.46383203281598569635791332040422,4080.0,1.46383203281598569635791332040422
102,4162.66581712470411537097482371730803,4161.2,1.46581712470411537097482371730803
103,4244.66778282342996589066270593003776,4243.2,1.46778282342996589066270593003776
104,4327.46972950441083285417620816385343,4326.0,1.46972950441083285417620816385343
105,4411.07165753226374844728844966004350,4409.6,1.47165753226374844728844966004350
106,4495.47356726121594432595444172377623,4494.0,1.47356726121594432595444172377623
107,4580.67545903549599476008208163386369,4579.2,1.47545903549599476008208163386369
108,4666.67733318970671987064635523183021,4665.2,1.47733318970671987064635523183021
109,4753.47919004918086019934820648334533,4752.0,1.47919004918086019934820648334533
110,4841.08102993032047142989451322702801,4839.6,1.48102993032047142989451322702801
111,4929.48285314092092221877704532487630,4928.0,1.48285314092092221877704532487630
112,5018.68465998048032865979483872716003,5017.2,1.48465998048032865979483872716003
113,5108.68645074049520337077033810429641,5107.2,1.48645074049520337077033810429641
114,5199.48822570474304843315330516077033,5198.0,1.48822570474304843315330516077033
115,5291.08998514955258096670394201294596,5289.6,1.48998514955258096670394201294596
116,5383.49172934406223178979844935982517,5382.0,1.49172934406223178979844935982517
117,5476.69345855046752590289346823140227,5475.2,1.49345855046752590289346823140227
118,5570.69517302425791250158028689321339,5569.2,1.49517302425791250158028689321339
119,5665.49687301444357851194342572442495,5664.0,1.49687301444357851194342572442495
120,5761.09855876377275379870316563684637,5759.6,1.49855876377275379870316563684637
121,5857.50023050893997792937744172204203,5856.0,1.50023050893997792937744172204203
122,5954.70188848078577946456566259012167,5953.2,1.50188848078577946456566259012167
123,6052.70353290448818655152507102328387,6051.2,1.50353290448818655152507102328387
124,6151.50516399974646991840156758792293,6150.0,1.50516399974646991840156758792293
125,6251.10678198095748980021382805451566,6249.6,1.50678198095748980021382805451566
126,6351.50838705738500313039198244086557,6350.0,1.50838705738500313039198244086557
127,6452.70997943332226675378572125858818,6451.2,1.50997943332226675378572125858818
128,6554.71155930824824982986680670973777,6553.2,1.51155930824824982986680670973777
129,6657.51312687697775652161287121048893,6656.0,1.51312687697775652161287121048893
130,6761.11468232980574168369210392424121,6759.6,1.51468232980574168369210392424121
131,6865.51622585264608685945035582151928,6864.0,1.51622585264608685945035582151928
132,6970.71775762716508891900136059559283,6969.2,1.51775762716508891900136059559283
133,7076.71927783090990188913693374371350,7075.2,1.51927783090990188913693374371350
134,7183.52078663743216124981496537549367,7182.0,1.52078663743216124981496537549367
135,7291.12228421640700186364067550739546,7289.6,1.52228421640700186364067550739546
136,7399.52377073374767701722623995598738,7398.0,1.52377073374767701722623995598738
137,7508.72524635171597274537018136918822,7507.2,1.52524635171597274537018136918822
138,7618.72671122902859799700746292307514,7617.2,1.52671122902859799700746292307514
139,7729.52816552095972909597551731830952,7728.0,1.52816552095972909597551731830952
140,7841.12960937943987150367319629424710,7839.6,1.52960937943987150367319629424710
141,7953.53104295315119733319971488981940,7952.0,1.53104295315119733319971488981940
142,8066.73246638761950899129347741692875,8065.2,1.53246638761950899129347741692875
143,8180.73387982530297067422150307683844,8179.2,1.53387982530297067422150307683844
144,8295.53528340567774226413307468563010,8294.0,1.53528340567774226413307468563010
145,8411.13667726532064598463224639049714,8409.6,1.53667726532064598463224639049714
146,8527.53806153798898830557281115550329,8526.0,1.53806153798898830557281115550329
147,8644.73943635469765138411338798007204,8643.2,1.53943635469765138411338798007204
148,8762.74080184379356937103697159640959,8761.2,1.54080184379356937103697159640959
149,8881.54215813102769138326490253393362,8880.0,1.54215813102769138326490253393362
150,9001.14350533962453478341817561478906,8999.6,1.54350533962453478341817561478906
151,9121.54484359034942468065504415133977,9120.0,1.54484359034942468065504415133977
152,9242.74617300157350995192940250859584,9241.2,1.54617300157350995192940250859584
153,9364.74749368933664473333762307646185,9363.2,1.54749368933664473333762307646185
154,9487.54880576740821928076966083209269,9486.0,1.54880576740821928076966083209269
155,9611.15010934734601843583029716405911,9609.6,1.55010934734601843583029716405911
156,9735.55140453855318556336645825492039,9734.0,1.55140453855318556336645825492039
157,9860.75269144833336300717648553779272,9859.2,1.55269144833336300717648553779272
158,9986.75397018194408088197467786313501,9985.2,1.55397018194408088197467786313501
159,10113.5552408426484578744165281126874,10112.0,1.5552408426484578744165281126874
160,10241.1565035317652803906943040424059,10239.6,1.5565035317652803906943040424059
161,10369.5577583487175185467938642725556,10368.0,1.5577583487175185467938642725556
162,10498.7590053910793384624839939790335,10497.2,1.5590053910793384624839939790335
163,10628.7602447546216657123075976083228,10627.2,1.5602447546216657123075976083228
164,10759.5614765333563545701395699060371,10758.0,1.5614765333563545701395699060371
165,10891.1627008195790116474988749423359,10889.6,1.5627008195790116474988749423359
166,11023.5639177039105244411735884814778,11022.0,1.5639177039105244411735884814778
167,11156.7651272753373420224481682963585,11155.2,1.5651272753373420224481682963585
168,11290.7663296212505505568163000713461,11289.2,1.5663296212505505568163000713461
169,11425.5675248274837887162399222250456,11424.0,1.5675248274837887162399222250456
170,11561.1687129783500427270398716022067,11559.6,1.5687129783500427270398716022067
171,11697.5698941566773612478488578153003,11696.0,1.5698941566773612478488578153003
172,11834.7710684438435279442544883453001,11833.2,1.5710684438435279442544883453001
173,11972.7722359198097271624329396523904,11971.2,1.5722359198097271624329396523904
174,12111.5733966631532385452570488012846,12110.0,1.5733966631532385452570488012846
175,12251.1745507510991945757816239372041,12249.6,1.5745507510991945757816239372041
176,12391.5756982595514307544285333936601,12390.0,1.5756982595514307544285333936601
177,12532.7768392631224616703788080482296,12531.2,1.5768392631224616703788080482296
178,12674.7779738351626121215376338594154,12673.2,1.5779738351626121215376338594154
179,12817.5791020477883297279877558383458,12816.0,1.5791020477883297279877558383458
180,12961.1802239719097099852998343020562,12959.6,1.5802239719097099852998343020562
181,13105.5813396772572564062555515421528,13104.0,1.5813396772572564062555515421528
182,13250.7824492324079034463384125065514,13249.2,1.5824492324079034463384125065514
183,13396.7835527048103252622357207949765,13395.2,1.5835527048103252622357207949765
184,13543.5846501608095545448572457142297,13542.0,1.5846501608095545448572457142297
185,13691.1857416656709332349632625193446,13689.6,1.5857416656709332349632625193446
186,13839.5868272836034160899907124923648,13838.0,1.5868272836034160899907124923648
187,13988.7879070777822509025439686791895,13987.2,1.5879070777822509025439686791895
188,14138.7889811103710508068338057174440,14137.2,1.5889811103710508068338057174440
189,14289.5900494425432824041211365230924,14288.0,1.5900494425432824041211365230924
190,14441.1911121345031853582090633480140,14439.6,1.5911121345031853582090633480140
191,14593.5921692455061426835005134870761,14592.0,1.5921692455061426835005134870761
192,14746.7932208338785181077891678124880,14745.2,1.5932208338785181077891678124880
193,14900.7942669570369788135958107133281,14899.2,1.5942669570369788135958107133281
194,15055.5953076715073168987962417302244,15054.0,1.5953076715073168987962417302244
195,15211.1963430329427874888624382530460,15209.6,1.5963430329427874888624382530460
196,15367.5973730961419771925792681491500,15366.0,1.5973730961419771925792681491500
197,15524.7983979150662172765196277371534,15523.2,1.5983979150662172765196277371534
198,15682.7994175428565557202187874551668,15681.2,1.5994175428565557202187874551668
199,15841.6004320318503009858629828090377,15840.0,1.6004320318503009858629828090377
200,16001.2014414335971514426528892748537,15999.6,1.6014414335971514426528892748537
201,16161.6024457988749214222203801151596,16160.0,1.6024457988749214222203801151596
202,16322.8034451777048772812093960233720,16321.2,1.6034451777048772812093960233720
203,16484.8044396193666941257026698952170,16483.2,1.6044396193666941257026698952170
204,16647.6054291724130448123552673603344,16646.0,1.6054291724130448123552673603344
205,16811.2064138846838311915466501866742,16809.6,1.6064138846838311915466501866742
206,16975.6073938033200706112476692028913,16974.0,1.6073938033200706112476692028913
207,17140.8083689747774435522275845538805,17139.2,1.6083689747774435522275845538805
208,17306.8093394448395166160052760499861,17305.2,1.6093394448395166160052760499861
209,17473.6103052586306466083718213034861,17472.0,1.6103052586306466083718213034861
210,17641.2112664606285772140829689046879,17639.6,1.6112664606285772140829689046879
211,17809.6122230946767356216775289315826,17808.0,1.6122230946767356216775289315826
212,17978.8131752039962393255432878014915,17977.2,1.6131752039962393255432878014915
213,18148.8141228311976174831178475178533,18147.2,1.6141228311976174831178475178533
214,18319.6150660182922618029075886232812,18318.0,1.6150660182922618029075886232812
215,18491.2160048067036061695488322549365,18489.6,1.6160048067036061695488322549365
216,18663.6169392372780489603612824431163,18662.0,1.6169392372780489603612824431163
217,18836.8178693502956220124286766014282,18835.2,1.6178693502956220124286766014282
218,19010.8187951854804152126490191665900,19009.2,1.6187951854804152126490191665900
219,19185.6197167820107599836827504165448,19184.0,1.6197167820107599836827504165448
220,19361.2206341785291841739189812412291,19359.6,1.6206341785291841739189812412291
221,19537.6215474131521362537417572438780,19536.0,1.6215474131521362537417572438780
222,19714.8224565234794960154539573169771,19713.2,1.6224565234794960154539573169771
223,19892.8233615466038653376819473526875,19891.2,1.6233615466038653376819473526875
224,20071.6242625191196540735510824777201,20070.0,1.6242625191196540735510824777201
225,20251.2251594771319636191662721877840,20249.6,1.6251594771319636191662721877840
226,20431.6260524562652717003301642555093,20430.0,1.6260524562652717003301642555093
227,20612.8269414916719270203369664757915,20611.2,1.6269414916719270203369664757915
228,20794.8278266180404555790327329568968,20793.2,1.6278266180404555790327329568968
229,20977.6287078696036858152768994889238,20976.0,1.6287078696036858152768994889238
230,21161.2295852801466972590328675335385,21159.6,1.6295852801466972590328675335385
231,21345.6304588830145944823415257051069,21344.0,1.6304588830145944823415257051069
232,21530.8313287111201167580816774173376,21529.2,1.6313287111201167580816774173376
233,21716.8321947969510784120050129178854,21715.2,1.6321947969510784120050129178854
234,21903.6330571725776560140944236132777,21902.0,1.6330571725776560140944236132777
235,22091.2339158696595155803285670897196,22089.6,1.6339158696595155803285670897196
236,22279.6347709194527894836035331690060,22278.0,1.6347709194527894836035331690060
237,22468.8356223528169066939209404956204,22467.2,1.6356223528169066939209404956204
238,22658.8364702002212780788356140189556,22657.2,1.6364702002212780788356140189556
