Eigenstate,Energy,Kinetic Energy,Potential Energy
1,0.500000000022692726186954880256352444,0.0,0.500000000022692726186954880256352444
2,1.84623093779924083445468445596400813,1.2,0.64623093779924083445468445596400813
3,3.93633761014008393440644412235785962,3.2,0.73633761014008393440644412235785962
4,6.79966527872051841858679950278438008,6.0,0.79966527872051841858679950278438008
5,10.4480465768555448073683696982933563,9.6,0.8480465768555448073683696982933563
6,14.8870659992994690898838163612200747,14.0,0.8870659992994690898838163612200747
7,20.1197208274902925451198639357436299,19.2,0.9197208274902925451198639357436299
8,26.1477838478048757600823431233193400,25.2,0.9477838478048757600823431233193400
9,32.9723835592494516986184793549103471,32.0,0.9723835592494516986184793549103471
10,40.5942802159725650921360877907552217,39.6,0.9942802159725650921360877907552217
11,49.0140093881152375931546889472491342,48.0,1.0140093881152375931546889472491342
12,58.2319621709820871964370270605845112,57.2,1.0319621709820871964370270605845112
13,68.2484326946389133898323735806933571,67.2,1.0484326946389133898323735806933571
14,79.0636476567688548566935665623124358,78.0,1.0636476567688548566935665623124358
15,90.6777854384865720523627743826907221,89.6,1.0777854384865720523627743826907221
16,103.090988909208690886136864835231595,102.0,1.090988909208690886136864835231595
17,116.303374260115306256197168990299533,115.2,1.103374260115306256197168990299533
18,130.315037255156181063090808732234382,129.2,1.115037255156181063090808732234382
19,145.126057754154723585063894582191275,144.0,1.126057754154723585063894582191275
20,160.736503050441923795143920950518903,159.6,1.136503050441923795143920950518903
21,177.146430376938050478331711552858700,176.0,1.146430376938050478331711552858700
22,194.355888817311391338807417746784689,193.2,1.155888817311391338807417746784689
23,212.364920783914777648186596295654746,211.2,1.164920783914777648186596295654746
24,231.173563175186006408001111638987135,230.0,1.173563175186006408001111638987135
25,250.781848292443766750101205494372120,249.6,1.181848292443766750101205494372120
26,271.189804573695227698847632033041884,270.0,1.189804573695227698847632033041884
27,292.397457186598614019438490506304610,291.2,1.197457186598614019438490506304610
28,314.404828511822246068702001074348943,313.2,1.204828511822246068702001074348943
29,337.211938540246491743936672956906310,336.0,1.211938540246491743936672956906310
30,360.818805201805591056605094508843610,359.6,1.218805201805591056605094508843610
31,385.225444639620375357977915571767331,384.0,1.225444639620375357977915571767331
32,410.431871439995003659367710947272276,409.2,1.231871439995003659367710947272276
33,436.438098826541190685664529077683083,435.2,1.238098826541190685664529077683083
34,463.244138824942855034888085811182907,462.0,1.244138824942855034888085811182907
35,490.850002403534920750902927212293833,489.6,1.250002403534920750902927212293833
36,519.255699593836526738003579451686068,518.0,1.255699593836526738003579451686068
37,548.461239594374813897652914210943579,547.2,1.261239594374813897652914210943579
38,578.466630860505041124593279530131465,577.2,1.266630860505041124593279530131465
39,609.271881182434932650096005354614886,608.0,1.271881182434932650096005354614886
40,640.876997753265338436622412129826090,639.6,1.276997753265338436622412129826090
41,673.281987228542539054491894674983517,672.0,1.281987228542539054491894674983517
42,706.486855778562533869683178441439153,705.2,1.286855778562533869683178441439153
43,740.491609134461165027008383418926711,739.2,1.291609134461165027008383418926711
44,775.296252628955835697420419397976473,774.0,1.296252628955835697420419397976473
45,810.900791232467011489238299102654105,809.6,1.300791232467011489238299102654105
46,847.305229585234557640499350583471024,846.0,1.305229585234557640499350583471024
47,884.509572025950487997330993785439208,883.2,1.309572025950487997330993785439208
48,922.513822617352115418999496169729774,921.2,1.313822617352115418999496169729774
49,961.317985169154930706407486056747876,960.0,1.317985169154930706407486056747876
50,1000.92206325865041443716796445154558,999.6,1.32206325865041443716796445154558
51,1041.32606024924851912791782501344541,1040.0,1.32606024924851912791782501344541
52,1082.52997930720621393024105903280521,1081.2,1.32997930720621393024105903280521
53,1124.53382341675103394803136109490630,1123.2,1.33382341675103394803136109490630
54,1167.33759539378101513267242873168425,1166.0,1.33759539378101513267242873168425
55,1210.94129789829892021990640069484837,1209.6,1.34129789829892021990640069484837
56,1255.34493344571858660213913714543688,1254.0,1.34493344571858660213913714543688
57,1300.54850441716402806481494891512107,1299.2,1.34850441716402806481494891512107
58,1346.55201306886712512920495965916733,1345.2,1.35201306886712512920495965916733
59,1393.35546154075698479668026793251147,1392.0,1.35546154075698479668026793251147
60,1440.95885186432302598184069707117289,1439.6,1.35885186432302598184069707117289
61,1489.36218596982428269436692162894415,1488.0,1.36218596982428269436692162894415
62,1538.56546569290911602435169314765665,1537.2,1.36546569290911602435169314765665
63,1588.56869278070228409684650825209062,1587.2,1.36869278070228409684650825209062
64,1639.37186889741000668143901525573509,1638.0,1.37186889741000668143901525573509
65,1690.97499562948812630270453811082116,1689.6,1.37499562948812630270453811082116
66,1743.37807449041362035832176806098638,1742.0,1.37807449041362035832176806098638
67,1796.58110692509545646031755321889627,1795.2,1.38110692509545646031755321889627
68,1850.58409431395702705409773570582610,1849.2,1.38409431395702705409773570582610
69,1905.38703797671908669919469289040834,1904.0,1.38703797671908669919469289040834
70,1960.98993917590918712739866812683303,1959.6,1.38993917590918712739866812683303
71,2017.39279912012100649020918243446240,2016.0,1.39279912012100649020918243446240
72,2074.59561896704467096516334870109859,2073.2,1.39561896704467096516334870109859
73,2132.59839982628711388419466575846903,2131.2,1.39839982628711388419466575846903
74,2191.40114276199969869862334737297058,2190.0,1.40114276199969869862334737297058
75,2251.00384879532870099427641622654112,2249.6,1.40384879532870099427641622654112
76,2311.40651890670279521348073480754586,2310.0,1.40651890670279521348073480754586
77,2372.60915403797038934225414677652062,2371.2,1.40915403797038934225414677652062
78,2434.61175509439848502283985299142363,2433.2,1.41175509439848502283985299142363
79,2497.41432294654369373173698515665526,2496.0,1.41432294654369373173698515665526
80,2561.01685843200510153773598244999158,2559.6,1.41685843200510153773598244999158
81,2625.41936235706782561299082334324223,2624.0,1.41936235706782561299082334324223
82,2690.62183549824534421960672435952762,2689.2,1.42183549824534421960672435952762
83,2756.62427860372799316043227704461552,2755.2,1.42427860372799316043227704461552
84,2823.42669239474439739102891528783436,2822.0,1.42669239474439739102891528783436
85,2891.02907756684204721361694556692199,2889.6,1.42907756684204721361694556692199
86,2959.43143479109271260840806651949828,2958.0,1.43143479109271260840806651949828
87,3028.63376471522793178693447212688707,3027.2,1.43376471522793178693447212688707
88,3098.63606796470938667424893201316762,3097.2,1.43606796470938667424893201316762
89,3169.43834514373859452470875545982771,3168.0,1.43834514373859452470875545982771
90,3241.04059683621000165932728585895679,3239.6,1.44059683621000165932728585895679
91,3313.44282360661124386062588478332867,3312.0,1.44282360661124386062588478332867
92,3386.64502600087404966338022851806403,3385.2,1.44502600087404966338022851806403
93,3460.64720454717900052459912837203077,3459.2,1.44720454717900052459912837203077
94,3535.44935975671711892733598062716215,3534.0,1.44935975671711892733598062716215
95,3611.05149212441103431890394081900685,3609.6,1.45149212441103431890394081900685
96,3687.45360212959827496194947935558239,3686.0,1.45360212959827496194947935558239
97,3764.65569023667904943472940949058367,3763.2,1.45569023667904943472940949058367
98,3842.65775689573070864264171074230016,3841.2,1.45775689573070864264171074230016
99,3921.45980254309092573087141241222063,3920.0,1.45980254309092573087141241222063
100,4001.06182760191148494759667328141354,3999.6,1.46182760191148494759667328141354
101,4081.46383248268444120304575488768418,4080.0,1.46383248268444120304575488768418
102,4162.66581758374228649497448198798793,4161.2,1.46581758374228649497448198798793
103,4244.66778329173365145752090648403794,4243.2,1.46778329173365145752090648403794
104,4327.46972998207596302568351085794758,4326.0,1.46972998207596302568351085794758
105,4411.07165801938638613391232037554068,4409.6,1.47165801938638613391232037554068
106,4495.47356775789228660305864939339261,4494.0,1.47356775789228660305864939339261
107,4580.67545954182237428797375682736708,4579.2,1.47545954182237428797375682736708
108,4666.67733370577960631849229302564583,4665.2,1.47733370577960631849229302564583
109,4753.47919057509686167300229401910530,4752.0,1.47919057509686167300229401910530
110,4841.08103046617633590367837744809949,4839.6,1.48103046617633590367837744809949
111,4929.48285368681353897125629839416801,4928.0,1.48285368681353897125629839416801
112,5018.68466053650672971359354594270006,5017.2,1.48466053650672971359354594270006
113,5108.68645130675256493646656665102836,5107.2,1.48645130675256493646656665102836
114,5199.48822628132869235729889809331422,5198.0,1.48822628132869235729889809331422
115,5291.08998573656397618401188299614914,5289.6,1.48998573656397618401188299614914
116,5383.49172994159699577954144051619283,5382.0,1.49172994159699577954144051619283
117,5476.69345915862342614955759441788308,5475.2,1.49345915862342614955759441788308
118,5570.69517364313286795981790344801766,5569.2,1.49517364313286795981790344801766
119,5665.49687364413566107586961840235884,5664.0,1.49687364413566107586961840235884
120,5761.09855940438018977558042337432599,5759.6,1.49855940438018977558042337432599
121,5857.50023116056114951773340453976954,5856.0,1.50023116056114951773340453976954
122,5954.70188914351922623678907889221804,5953.2,1.50188914351922623678907889221804
123,6052.70353357843260694098532435588036,6051.2,1.50353357843260694098532435588036
124,6151.50516468500072271113740540374090,6150.0,1.50516468500072271113740540374090
125,6251.10678267762059563123717762496838,6249.6,1.50678267762059563123717762496838
126,6351.50838776555614598465297788608187,6350.0,1.50838776555614598465297788608187
127,6452.70998015310079547184533668899594,6451.2,1.50998015310079547184533668899594
128,6554.71156003973367961832375076005476,6553.2,1.51156003973367961832375076005476
129,6657.51312762026977046833163786750484,6656.0,1.51312762026977046833163786750484
130,6761.11468308500419227787933618734041,6759.6,1.51468308500419227787933618734041
131,6865.51622661985099751662696490467589,6864.0,1.51622661985099751662696490467589
132,6970.71775840647665551091811053115289,6969.2,1.51775840647665551091811053115289
133,7076.71927862242849427868138577741292,7075.2,1.51927862242849427868138577741292
134,7183.52078744125832483095805809666831,7182.0,1.52078744125832483095805809666831
135,7291.12228503264145910647143494261550,7289.6,1.52228503264145910647143494261550
136,7399.52377156249132901812332667830280,7398.0,1.52377156249132901812332667830280
137,7508.72524719306990078235936969096605,7507.2,1.52524719306990078235936969096605
138,7618.72671208309406509035432939478759,7617.2,1.52671208309406509035432939478759
139,7729.52816638783818157406292810968124,7728.0,1.52816638783818157406292810968124
140,7841.12961025923294057421349885314695,7839.6,1.52961025923294057421349885314695
141,7953.53104384596070065983170522600346,7952.0,1.53104384596070065983170522600346
142,8066.73246729354745227561465221052968,8065.2,1.53246729354745227561465221052968
143,8180.73388074445154924330625742884151,8179.2,1.53388074445154924330625742884151
144,8295.53528433814934266358792047220522,8294.0,1.53528433814934266358792047220522
145,8411.13667821121784757723927543608500,8409.6,1.53667821121784757723927543608500
146,8527.53806249741456487557304586771772,8526.0,1.53806249741456487557304586771772
147,8644.73943732775457274718191399388868,8643.2,1.53943732775457274718191399388868
148,8762.74080283058500299000200382327232,8761.2,1.54080283058500299000200382327232
149,8881.54215913165700398962331804521353,8880.0,1.54215913165700398962331804521353
150,9001.14350635419529400470027064002947,8999.6,1.54350635419529400470027064002947
151,9121.54484461896540067369164900208494,9120.0,1.54484461896540067369164900208494
152,9242.74617404433867704207474941031183,9241.2,1.54617404433867704207474941031183
153,9364.74749474635518305970174348237960,9363.2,1.54749474635518305970174348237960
154,9487.54880683878451644751427037443490,9486.0,1.54880683878451644751427037443490
155,9611.15011043318467116958258081100817,9609.6,1.55011043318467116958258081100817
156,9735.55140563895900137680547718604020,9734.0,1.55140563895900137680547718604020
157,9860.75269256341136186884713079248310,9859.2,1.55269256341136186884713079248310
158,9986.75397131179949689238457471870668,9985.2,1.55397131179949689238457471870668
159,10113.5552419873867409484715383553243,10112.0,1.5552419873867409484715383553243
160,10241.1565046914920979465286172977127,10239.6,1.5565046914920979465286172977127
161,10369.5577595235387572010510284598919,10368.0,1.5577595235387572010510284598919
162,10498.7590065811011057321055963998135,10497.2,1.5590065811011057321055963998135
163,10628.7602459599502917228865466253626,10627.2,1.5602459599502917228865466253626
164,10759.5614777540983937708954145738490,10758.0,1.5614777540983937708954145738490
165,10891.1627020558412445329328903847469,10889.6,1.5627020558412445329328903847469
166,11023.5639189557999592794616440398198,11022.0,1.5639189557999592794616440398198
167,11156.7651285429612165906298266397316,11155.2,1.5651285429612165906298266397316
168,11290.7663309047163338828390089828651,11289.2,1.5663309047163338828390089828651
169,11425.5675261268991828279173587185566,11424.0,1.5675261268991828279173587185566
170,11561.1687142938229844079840391559368,11559.6,1.5687142938229844079840391559368
171,11697.5698954883160238004357897883793,11696.0,1.5698954883160238004357897883793
172,11834.7710697917563229596838452533347,11833.2,1.5710697917563229596838452533347
173,11972.7722372841053062979421416876174,11971.2,1.5722372841053062979421416876174
174,12111.5733980439404953085509753178838,12110.0,1.5733980439404953085509753178838
175,12251.1745521484872661167392887865742,12249.6,1.5745521484872661167392887865742
176,12391.5756996736496996641485679543746,12390.0,1.5756996736496996641485679543746
177,12532.7768406940405577876259117972364,12531.2,1.5768406940405577876259117972364
178,12674.7779752830104143466526069442251,12673.2,1.5779752830104143466526069442251
179,12817.5791035126759678443241044049141,12816.0,1.5791035126759678443241044049141
180,12961.1802254539475664882503589926947,12959.6,1.5802254539475664882503589926947
181,13105.5813411765559683399327004415048,13104.0,1.5813411765559683399327004415048
182,13250.7824507490783642479726384601146,13249.2,1.5824507490783642479726384601146
183,13396.7835542389636866143564580078205,13395.2,1.5835542389636866143564580078205
184,13543.5846517125572282353215937462709,13542.0,1.5846517125572282353215937462709
185,13691.1857432351245930248978382628695,13689.6,1.5857432351245930248978382628695
186,13839.5868288708749995897125623259642,13838.0,1.5868288708749995897125623259642
187,13988.7879086829839614555269056076006,13987.2,1.5879086829839614555269056076006
188,14138.7889827336153593817869143924958,14137.2,1.5889827336153593817869143924958
189,14289.5900510839429294952467086940901,14288.0,1.5900510839429294952467086940901
190,14441.1911137941711828937075974711354,14439.6,1.5911137941711828937075974711354
191,14593.5921709235557759423908806630970,14592.0,1.5921709235557759423908806630970
192,14746.7932225304233476451125218780329,14745.2,1.5932225304233476451125218780329
193,14900.7942686721908423940722677812566,14899.2,1.5942686721908423940722677812566
194,15055.5953094053843314390038286259083,15054.0,1.5953094053843314390038286259083
195,15211.1963447856573510080081937053023,15209.6,1.5963447856573510080081937053023
196,15367.5973748678087707719330052908978,15366.0,1.5973748678087707719330052908978
197,15524.7983997058002070275812060091203,15523.2,1.5983997058002070275812060091203
198,15682.7994193527729947616902524997025,15681.2,1.5994193527729947616902524997025
199,15841.6004338610647314294975066932030,15840.0,1.6004338610647314294975066932030
200,16001.2014432822254063880528117030847,15999.6,1.6014432822254063880528117030847
201,16161.6024476670331269606571526281387,16160.0,1.6024476670331269606571526281387
202,16322.8034470655094545085389296166885,16321.2,1.6034470655094545085389296166885
203,16484.8044415269343611644497412665557,16483.2,1.6044415269343611644497412665557
204,16647.6054310998608188430415036006830,16646.0,1.6054310998608188430415036006830
205,16811.2064158321290304933368393189923,16809.6,1.6064158321290304933368393189923
206,16975.6073957708803166119898804048112,16974.0,1.6073957708803166119898804048112
207,17140.8083709625706628879629414408904,17139.2,1.6083709625706628879629414408904
208,17306.8093414529839432000238699550331,17305.2,1.6093414529839432000238699550331
209,17473.6103072872448237098917149002272,17472.0,1.6103072872448237098917149002272
210,17641.2112685098313595466298256192020,17639.6,1.6112685098313595466298256192020
211,17809.6122251645872914412429041009426,17808.0,1.6122251645872914412429041009426
212,17978.8131772947340525386001658739840,17977.2,1.6131772947340525386001658739840
213,18148.8141249428824897645726545368769,18147.2,1.6141249428824897645726545368769
214,18319.6150681510443147240683309608389,18318.0,1.6150681510443147240683309608389
215,18491.2160069606432833361896672473354,18489.6,1.6160069606432833361896672473354
216,18663.6169414125261181609644031020732,18662.0,1.6169414125261181609644031020732
217,18836.8178715469731773766849228165246,18835.2,1.6178715469731773766849228165246
218,19010.8187974037088793802991787769069,19009.2,1.6187974037088793802991787769069
219,19185.6197190219118862837822365618855,19184.0,1.6197190219118862837822365618855
220,19361.2206364402250588146090158868552,19359.6,1.6206364402250588146090158868552
221,19537.6215496967651805226108585154079,19536.0,1.6215496967651805226108585154079
222,19714.8224588291324684905741482172998,19713.2,1.6224588291324684905741482172998
223,19892.8233638744198641094046807164861,19891.2,1.6233638744198641094046807164861
224,20071.6242648692221189771484448902185,20070.0,1.6242648692221189771484448902185
225,20251.2251618496446784784037960812210,20249.6,1.6251618496446784784037960812210
226,20431.6260548513123665820580837045322,20430.0,1.6260548513123665820580837045322
227,20612.8269439093778805001873673984286,20611.2,1.6269439093778805001873673984286
228,20794.8278290585300970183107987404351,20793.2,1.6278290585300970183107987404351
229,20977.6287103330021976491350197738865,20976.0,1.6287103330021976491350197738865
230,21161.2295877665796172960170541136316,21159.6,1.6295877665796172960170541136316
231,21345.6304613926078182154001883311223,21344.0,1.6304613926078182154001883311223
232,21530.8313312439998996871275766453618,21529.2,1.6313312439998996871275766453618
233,21716.8321973532440383781217944141379,21715.2,1.6321973532440383781217944141379
234,21903.6330597524107755454798767360886,21902.0,1.6330597524107755454798767360886
235,22091.2339184731601442500673260954763,22089.6,1.6339184731601442500673260954763
236,22279.6347735467486462793627580485460,22278.0,1.6347735467486462793627580485460
237,22468.8356250040360823996631805655416,22467.2,1.6356250040360823996631805655416
238,22658.8364728754922376686436819982452,22657.2,1.6364728754922376686436819982452
