Eigenstate,Energy,Kinetic Energy,Potential Energy
1,0.500000000076355035564151555614636068,0.0,0.500000000076355035564151555614636068
2,1.84623093814952132823566637058180312,1.2,0.64623093814952132823566637058180312
3,3.93633761116900874192773866568480717,3.2,0.73633761116900874192773866568480717
4,6.79966528086366306625405635116243615,6.0,0.79966528086366306625405635116243615
5,10.4480465805679358615795110524611819,9.6,0.8480465805679358615795110524611819
6,14.8870660050441130762689619079874379,14.0,0.8870660050441130762689619079874379
7,20.1197208357339513630351204734655532,19.2,0.9197208357339513630351204734655532
8,26.1477838590163066781715654575453728,25.2,0.9477838590163066781715654575453728
9,32.9723835738985906254906253151298362,32.0,0.9723835738985906254906253151298362
10,40.5942802345301135932689179155546427,39.6,0.9942802345301135932689179155546427
11,49.0140094110524399751233083609340533,48.0,1.0140094110524399751233083609340533
12,58.2319621987706044485850359773235718,57.2,1.0319621987706044485850359773235718
13,68.2484327277507498575226347220741351,67.2,1.0484327277507498575226347220741351
14,79.0636476956763152637128085608138812,78.0,1.0636476956763152637128085608138812
15,90.6777854836622368344759010551207350,89.6,1.0777854836622368344759010551207350
16,103.090988961125403028924248143683340,102.0,1.090988961125403028924248143683340
17,116.303374319246165618445781698511089,115.2,1.103374319246165618445781698511089
18,130.315037321974543722390458537946449,129.2,1.115037321974543722390458537946449
19,145.126057829134204645222176269788093,144.0,1.126057829134204645222176269788093
20,160.736503134056402637960907303276714,159.6,1.136503134056402637960907303276714
21,177.146430469661677779033592430254798,176.0,1.146430469661677779033592430254798
22,194.355888919618597379188912256193784,193.2,1.155888919618597379188912256193784
23,212.364920896280281601904777474983059,211.2,1.164920896280281601904777474983059
24,231.173563298084826366323424782229088,230.0,1.173563298084826366323424782229088
25,250.781848426351230320446392261608961,249.6,1.181848426351230320446392261608961
26,271.189804719086983052959349510362765,270.0,1.189804719086983052959349510362765
27,292.397457343950641299481791649670969,291.2,1.197457343950641299481791649670969
28,314.404828681610869082145103453602648,313.2,1.204828681610869082145103453602648
29,337.211938722948389894511977641898035,336.0,1.211938722948389894511977641898035
30,360.818805397897811470762096814613456,359.6,1.218805397897811470762096814613456
31,385.225444849580345175287217209827981,384.0,1.225444849580345175287217209827981
32,410.431871664300542462164642198635621,409.2,1.231871664300542462164642198635621
33,436.438099065670523048430474282158212,435.2,1.238099065670523048430474282158212
34,463.244139079374623177880366848975559,462.0,1.244139079374623177880366848975559
35,490.850002673748197285663274955137457,489.6,1.250002673748197285663274955137457
36,519.255699880310827494820422043730668,518.0,1.255699880310827494820422043730668
37,548.461239897590110826985134964985333,547.2,1.261239897590110826985134964985333
38,578.466631180941775266001602546032042,577.2,1.266631180941775266001602546032042
39,609.271881520574027163461927225915789,608.0,1.271881520574027163461927225915789
40,640.876998109588211691430653391250754,639.6,1.276998109588211691430653391250754
41,673.281987603531117773761476662812795,672.0,1.281987603531117773761476662812795
42,706.486856172699266325793712137587884,705.2,1.286856172699266325793712137587884
43,740.491609548229034287211968155392714,739.2,1.291609548229034287211968155392714
44,775.296253062838372917279014387504933,774.0,1.296253062838372917279014387504933
45,810.900791686948309252600021033872670,809.6,1.300791686948309252600021033872670
46,847.305230060799283344939256085008654,846.0,1.305230060799283344939256085008654
47,884.509572523083897284243748249034939,883.2,1.309572523083897284243748249034939
48,922.513823136540065647752314156688177,921.2,1.313823136540065647752314156688177
49,961.317985710883894472148882943014978,960.0,1.317985710883894472148882943014978
50,1000.92206382340749313204708676787015,999.6,1.32206382340749313204708676787015
51,1041.32606083752145654560544494318600,1040.0,1.32606083752145654560544494318600
52,1082.52997991948340991376017380850270,1081.2,1.32997991948340991376017380850270
53,1124.53382405352155808100612219276632,1123.2,1.33382405352155808100612219276632
54,1167.33759605553462047419152411550497,1166.0,1.33759605553462047419152411550497
55,1210.94129858552605708327287686930700,1209.6,1.34129858552605708327287686930700
56,1255.34493415891041637784498185611309,1254.0,1.34493415891041637784498185611309
57,1300.54850515681243708813681893560938,1299.2,1.34850515681243708813681893560938
58,1346.55201383546473859286886747143710,1345.2,1.35201383546473859286886747143710
59,1393.35546233479718070908807652540702,1392.0,1.35546233479718070908807652540702
60,1440.95885268629994917139170815839731,1439.6,1.35885268629994917139170815839731
61,1489.36218682023285886044368378713724,1488.0,1.36218682023285886044368378713724
62,1538.56546657224506583557143412154845,1537.2,1.36546657224506583557143412154845
63,1588.56869368946213733720853476979872,1587.2,1.36869368946213733720853476979872
64,1639.37186983609111644502460717800447,1638.0,1.37186983609111644502460717800447
65,1690.97499659858868323760987249692274,1689.6,1.37499659858868323760987249692274
66,1743.37807549043266696052607256558502,1742.0,1.37807549043266696052607256558502
67,1796.58110795653290141820867921649293,1795.2,1.38110795653290141820867921649293
68,1850.58409537731365964439582685915162,1849.2,1.38409537731365964439582685915162
69,1905.38703907249659123503179728006541,1904.0,1.38703907249659123503179728006541
70,1960.98994030461015745932777602570845,1959.6,1.38994030461015745932777602570845
71,2017.39280028224896056093147587387099,2016.0,1.39280028224896056093147587387099
72,2074.59562016310406541877601903778933,2073.2,1.39562016310406541877601903778933
73,2132.59840105678335873077527028783591,2131.2,1.39840105678335873077527028783591
74,2191.40114402743917203497895378021974,2190.0,1.40114402743917203497895378021974
75,2251.00385009621876378169799981886034,2249.6,1.40385009621876378169799981886034
76,2311.40652024355180611335448966031220,2310.0,1.40652024355180611335448966031220
77,2372.60915541128771961039261688598214,2371.2,1.40915541128771961039261688598214
78,2434.61175650469453346340637433157284,2433.2,1.41175650469453346340637433157284
79,2497.41432439432990171164727441993144,2496.0,1.41432439432990171164727441993144
80,2561.01685991779396806243061128651909,2559.6,1.41685991779396806243061128651909
81,2625.41936388137292246448232100582401,2624.0,1.41936388137292246448232100582401
82,2690.62183706158133115771453155259394,2689.2,1.42183706158133115771453155259394
83,2756.62428020661063318812820092628756,2755.2,1.42428020661063318812820092628756
84,2823.42669403769057208482504218495524,2822.0,1.42669403769057208482504218495524
85,2891.02907925036977211993719498316621,2889.6,1.42907925036977211993719498316621
86,2959.43143651572115270689348989249460,2958.0,1.43143651572115270689348989249460
87,3028.63376648147741702164160703854148,3027.2,1.43376648147741702164160703854148
88,3098.63606977310142755370936023529098,3097.2,1.43606977310142755370936023529098
89,3169.43834699479589779182693800237033,3168.0,1.43834699479589779182693800237033
90,3241.04059873045648603210262042272131,3239.6,1.44059873045648603210262042272131
91,3313.44282554457205584469397813004280,3312.0,1.44282554457205584469397813004280
92,3386.64502798307557943737705183476753,3385.2,1.44502798307557943737705183476753
93,3460.64720657414889789936081230784575,3459.2,1.44720657414889789936081230784575
94,3535.44936182898430937995589097940502,3534.0,1.44936182898430937995589097940502
95,3611.05149424250573510267763678243571,3609.6,1.45149424250573510267763678243571
96,3687.45360429405201129324718982404221,3686.0,1.45360429405201129324718982404221
97,3764.65569244802467075784484440690807,3763.2,1.45569244802467075784484440690807
98,3842.65775915450240497367496486862389,3841.2,1.45775915450240497367496486862389
99,3921.45980484982424408171321069625863,3920.0,1.45980484982424408171321069625863
100,4001.06182995714334583109023228283730,3999.6,1.46182995714334583109023228283730
101,4081.46383488695315522041209287785055,4080.0,1.46383488695315522041209287785055
102,4162.66582003758757100659638070624289,4161.2,1.46582003758757100659638070624289
103,4244.66778579569664733819016902989398,4243.2,1.46778579569664733819016902989398
104,4327.46973253669925150542620480967966,4326.0,1.46973253669925150542620480967966
105,4411.07166062521400572551597964813323,4409.6,1.47166062521400572551597964813323
106,4495.47357041546975011743554937278374,4494.0,1.47357041546975011743554937278374
107,4580.67546225169668593850421867158255,4579.2,1.47546225169668593850421867158255
108,4666.67733646849927891550215233428861,4665.2,1.47733646849927891550215233428861
109,4753.47919339121193390953886068199029,4752.0,1.47919339121193390953886068199029
110,4841.08103333623838973375940294930687,4839.6,1.48103333623838973375940294930687
111,4929.48285661137571708177709355658352,4928.0,1.48285661137571708177709355658352
112,5018.68466351612375309108789697670513,5017.2,1.48466351612375309108789697670513
113,5108.68645434198075052992780238969006,5107.2,1.48645434198075052992780238969006
114,5199.48822937272597083827836041226073,5198.0,1.48822937272597083827836041226073
115,5291.08998888468990980522293440214382,5289.6,1.48998888468990980522293440214382
116,5383.49173314701279633320841212993152,5382.0,1.49173314701279633320841212993152
117,5476.69346242189197302676031094248430,5475.2,1.49346242189197302676031094248430
118,5570.69517696481872631209373601317815,5569.2,1.49517696481872631209373601317815
119,5665.49687702480510008034671316368330,5664.0,1.49687702480510008034671316368330
120,5761.09856284460120100492753445562002,5759.6,1.49856284460120100492753445562002
121,5857.50023466090346541622352949023663,5856.0,1.50023466090346541622352949023663
122,5954.70189270455433870378614700562332,5953.2,1.50189270455433870378614700562332
123,6052.70353720073378602317549610939620,6051.2,1.50353720073378602317549610939620
124,6151.50516836914303540483877024580586,6150.0,1.50516836914303540483877024580586
125,6251.10678642418092479613437378808159,6249.6,1.50678642418092479613437378808159
126,6351.50839157511320937031583719461604,6350.0,1.50839157511320937031583719461604
127,6452.70998402623516485840353231471554,6451.2,1.50998402623516485840353231471554
128,6554.71156397702780007268262931297716,6553.2,1.51156397702780007268262931297716
129,6657.51313162230797971732758284245991,6656.0,1.51313162230797971732758284245991
130,6761.11468715237274019978634564447503,6759.6,1.51468715237274019978634564447503
131,6865.51623075313806575243981152515583,6864.0,1.51623075313806575243981152515583
132,6970.71776260627237719685161245883446,6969.2,1.51776260627237719685161245883446
133,7076.71928288932497390133842787348665,7075.2,1.51928288932497390133842787348665
134,7183.52079177584965820663415427969361,7182.0,1.52079177584965820663415427969361
135,7291.12228943552375348607756273539853,7289.6,1.52228943552375348607756273539853
136,7399.52377603426272331922318058300413,7398.0,1.52377603426272331922318058300413
137,7508.72525173433058594983228726648436,7507.2,1.52525173433058594983228726648436
138,7618.72671669444630458721003294781762,7617.2,1.52671669444630458721003294781762
139,7729.52817106988633200394946549538577,7728.0,1.52817106988633200394946549538577
140,7841.12961501258347243717503333962645,7839.6,1.52961501258347243717503333962645
141,7953.53104867122221924288855323108286,7952.0,1.53104867122221924288855323108286
142,8066.73247219133071867975383879451682,8065.2,1.53247219133071867975383879451682
143,8180.73388571536950154848682273276058,8179.2,1.53388571536950154848682273276058
144,8295.53528938281711723338170880123396,8294.0,1.53528938281711723338170880123396
145,8411.13668333025280050474412894817209,8409.6,1.53668333025280050474412894817209
146,8527.53806769143629357225240518760375,8526.0,1.53806769143629357225240518760375
147,8644.73944259738493767630169476964290,8643.2,1.53944259738493767630169476964290
148,8762.74080817644814954635272112032365,8761.2,1.54080817644814954635272112032365
149,8881.54216455437938452723319116579711,8880.0,1.54216455437938452723319116579711
150,9001.14351185440569001426221824726663,8999.6,1.54351185440569001426221824726663
151,9121.54485019729494511144589771027023,9120.0,1.54485019729494511144589771027023
152,9242.74617970142087681190614188433281,9241.2,1.54617970142087681190614188433281
153,9364.74750048282594165022973747797805,9363.2,1.54750048282594165022973747797805
154,9487.54881265528215672597229124865768,9486.0,1.54881265528215672597229124865768
155,9611.15011633034995833430226535482343,9609.6,1.55011633034995833430226535482343
156,9735.55141161743516607014093710401320,9734.0,1.55141161743516607014093710401320
157,9860.75269862384412345239336785144008,9859.2,1.55269862384412345239336785144008
158,9986.75397745483708688636446209894372,9985.2,1.55397745483708688636446209894372
159,10113.5552482136799266371855452290285,10112.0,1.5552482136799266371855452290285
160,10241.1565110016942061517820553269664,10239.6,1.5565110016942061517820553269664
161,10369.5577659183056982254941092294192,10368.0,1.5577659183056982254941092294192
162,10498.7590130610913974744426523406644,10497.2,1.5590130610913974744426523406644
163,10628.7602525258250839669317231282721,10627.2,1.5602525258250839669317231282721
164,10759.5614844065214926504740363804052,10758.0,1.5614844065214926504740363804052
165,10891.1627087954791371746496201138039,10889.6,1.5627087954791371746496201138039
166,11023.5639257833218386253780729705434,11022.0,1.5639257833218386253780729705434
167,11156.7651354590390064029172386364583,11155.2,1.5651354590390064029172386364583
168,11290.7663379100247139324948386661608,11289.2,1.5663379100247139324948386661608
169,11425.5675332221156142696562893231424,11424.0,1.5675332221156142696562893231424
170,11561.1687214796277353434391521569204,11559.6,1.5687214796277353434391521569204
171,11697.5699027653921950318280301539886,11696.0,1.5699027653921950318280301539886
172,11834.7710771607898739361427682475613,11833.2,1.5710771607898739361427682475613
173,11972.7722447457850812566849657003138,11971.2,1.5722447457850812566849657003138
174,12111.5734055989582496131520916606127,12110.0,1.5734055989582496131520916606127
175,12251.1745597975376927947473013903327,12249.6,1.5745597975376927947473013903327
176,12391.5757074174304561463336511855767,12390.0,1.5757074174304561463336511855767
177,12532.7768485332522928511658673211560,12531.2,1.5768485332522928511658673211560
178,12674.7779832183567952645925562824724,12673.2,1.5779832183567952645925562824724
179,12817.5791115448637077436711002068621,12816.0,1.5791115448637077436711002068621
180,12961.1802335836864519190914994923357,12959.6,1.5802335836864519190914994923357
181,13105.5813494045588870579923850418198,13104.0,1.5813494045588870579923850418198
182,13250.7824590760613332130527089502331,13249.2,1.5824590760613332130527089502331
183,13396.7835626656458802071307417913891,13395.2,1.5835626656458802071307417913891
184,13543.5846602396610066949852758321962,13542.0,1.5846602396610066949852758321962
185,13691.1857518633755311102016224042308,13689.6,1.5857518633755311102016224042308
186,13839.5868376010019154659391895883844,13838.0,1.5868376010019154659391895883844
187,13988.7879175157189458099996440017847,13987.2,1.5879175157189458099996440017847
188,14138.7889916696938047705284251726473,14137.2,1.5889916696938047705284251726473
189,14289.5900601241035599234379053125107,14288.0,1.5900601241035599234379053125107
190,14441.1911229391560836326270743998984,14439.6,1.5911229391560836326270743998984
191,14593.5921801741104235855475633126348,14592.0,1.5921801741104235855475633126348
192,14746.7932318872966404063156357593421,14745.2,1.5932318872966404063156357593421
193,14900.7942781361351306502155647273517,14899.2,1.5942781361351306502155647273517
194,15055.5953189771554485203737527638850,15054.0,1.5953189771554485203737527638850
195,15211.1963544660146442389598366500917,15209.6,1.5963544660146442389598366500917
196,15367.5973846575151327648104664691687,15366.0,1.5973846575151327648104664691687
197,15524.7984096056221072327946884575923,15523.2,1.5984096056221072327946884575923
198,15682.7994293634805112768960794668813,15681.2,1.5994293634805112768960794668813
199,15841.6004439834315830708638677701188,15840.0,1.6004439834315830708638677701188
200,16001.2014535170289850266287124871601,15999.6,1.6014535170289850266287124871601
201,16161.6024580150545301268996181764669,16160.0,1.6024580150545301268996181764669
202,16322.8034575275335182680901136475570,16321.2,1.6034575275335182680901136475570
203,16484.8044521037496932682931614610049,16483.2,1.6044521037496932682931614610049
204,16647.6054417922598321552050342951985,16646.0,1.6054417922598321552050342951985
205,16811.2064266409079766993482147600859,16809.6,1.6064266409079766993482147600859
206,16975.6074066968393202113304351824090,16974.0,1.6074066968393202113304351824090
207,17140.8083820065137554738047443923376,17139.2,1.6083820065137554738047443923376
208,17306.8093526157190980295759367137116,17305.2,1.6093526157190980295759367137116
209,17473.6103185695839905687222815830876,17472.0,1.6103185695839905687222815830876
210,17641.2112799125904999103726065709919,17639.6,1.6112799125904999103726065709919
211,17809.6122366885864139381384776258371,17808.0,1.6122366885864139381384776258371
212,17978.8131889407972487163655170402677,17977.2,1.6131889407972487163655170402677
213,18148.8141367118379701651365153972702,18147.2,1.6141367118379701651365153972702
214,18319.6150800437244452697530867966348,18318.0,1.6150800437244452697530867966348
215,18491.2160189778846220309661903141890,18489.6,1.6160189778846220309661903141890
216,18663.6169535551694521104515140546809,18662.0,1.6169535551694521104515140546809
217,18836.8178838158635601306109752410882,18835.2,1.6178838158635601306109752410882
218,19010.8188097996956686011904289805169,19009.2,1.6188097996956686011904289805169
219,19185.6197315458487817456907090495264,19184.0,1.6197315458487817456907090495264
220,19361.2206490929701407357399927741909,19359.6,1.6206490929701407357399927741909
221,19537.6215624791809482357596555623087,19536.0,1.6215624791809482357596555623087
222,19714.8224717420858794553317637074681,19713.2,1.6224717420858794553317637074681
223,19892.8233769187823732701418176510856,19891.2,1.6233769187823732701418176510856
224,20071.6242780458697184708392988995646,20070.0,1.6242780458697184708392988995646
225,20251.2251751594579376964026913050149,20249.6,1.6251751594579376964026913050149
226,20431.6260682951764725899954131599591,20430.0,1.6260682951764725899954131599591
227,20612.8269574881826788202037850795665,20611.2,1.6269574881826788202037850795665
228,20794.8278427731701327779045989712713,20793.2,1.6278427731701327779045989712713
229,20977.6287241843767571009517328653510,20976.0,1.6287241843767571009517328653510
230,21161.2296017555927697129670804138299,21159.6,1.6296017555927697129670804138299
231,21345.6304755201684581655469090683355,21344.0,1.6304755201684581655469090683355
232,21530.8313455110217896928466096061566,21529.2,1.6313455110217896928466096061566
233,21716.8322117606458519640905450124416,21715.2,1.6322117606458519640905450124416
234,21903.6330743011161406801163889973118,21902.0,1.6330743011161406801163889973118
235,22091.2339331640976871850978425921501,22089.6,1.6339331640976871850978425921501
236,22279.6347883808520357922590219282612,22278.0,1.6347883808520357922590219282612
237,22468.8356399822440744437530111196207,22467.2,1.6356399822440744437530111196207
238,22658.8364879987487204357617262276503,22657.2,1.6364879987487204357617262276503
