Eigenstate,Energy,Kinetic Energy,Potential Energy
1,0.500000000013502707549255738483560857,0.0,0.500000000013502707549255738483560857
2,1.84623093773925324865834275891679591,1.2,0.64623093773925324865834275891679591
3,3.93633760996387554530312215547178267,3.2,0.73633760996387554530312215547178267
4,6.79966527835349733103904379181771213,6.0,0.79966527835349733103904379181771213
5,10.4480465762197910907699137474911199,9.6,0.8480465762197910907699137474911199
6,14.8870659983157003361057352096250688,14.0,0.8870659983157003361057352096250688
7,20.1197208260785884181328041478424298,19.2,0.9197208260785884181328041478424298
8,26.1477838458849804711124974908758381,25.2,0.9477838458849804711124974908758381
9,32.9723835567409149403241360851744853,32.0,0.9723835567409149403241360851744853
10,40.5942802127948138296014917309526242,39.6,0.9942802127948138296014917309526242
11,49.0140093841876153056011832757693170,48.0,1.0140093841876153056011832757693170
12,58.2319621662238765324761634522470518,57.2,1.0319621662238765324761634522470518
13,68.2484326889693497931479490717286168,67.2,1.0484326889693497931479490717286168
14,79.0636476501071349953480091764715940,78.0,1.0636476501071349953480091764715940
15,90.6777854307518591133829933247608293,89.6,1.0777854307518591133829933247608293
16,103.090988900320117901174698603698083,102.0,1.090988900320117901174698603698083
17,116.303374249991978146577311997948224,115.2,1.103374249991978146577311997948224
18,130.315037243717175826193276881950944,129.2,1.115037243717175826193276881950944
19,145.126057741319092889352263882522121,144.0,1.126057741319092889352263882522121
20,160.736503036128693158172497578843588,159.6,1.136503036128693158172497578843588
21,177.146430361066219144394136110811006,176.0,1.146430361066219144394136110811006
22,194.355888799799931936112860905665684,193.2,1.155888799799931936112860905665684
23,212.364920764682635681407412585320116,211.2,1.164920764682635681407412585320116
24,231.173563154152099625962408678643840,230.0,1.173563154152099625962408678643840
25,250.781848269526984417416860613783194,249.6,1.181848269526984417416860613783194
26,271.189804548814429792686760664222439,270.0,1.189804548814429792686760664222439
27,292.397457159672630367220801106450587,291.2,1.197457159672630367220801106450587
28,314.404828482769875438655300346550225,313.2,1.204828482769875438655300346550225
29,337.211938508986500897636224617683102,336.0,1.211938508986500897636224617683102
30,360.818805168256713770539556034538873,359.6,1.218805168256713770539556034538873
31,385.225444603701311419637707347418790,384.0,1.225444603701311419637707347418790
32,410.431871401624417842182511706718731,409.2,1.231871401624417842182511706718731
33,436.438098785637711706224818744980705,435.2,1.238098785637711706224818744980705
34,463.244138781425074495198838484717046,462.0,1.244138781425074495198838484717046
35,490.850002357321392067883778007077260,489.6,1.250002357321392067883778007077260
36,519.255699544845764062031433305609636,518.0,1.255699544845764062031433305609636
37,548.461239542525291021612431464479640,547.2,1.261239542525291021612431464479640
38,578.466630805715190384637595728513268,577.2,1.266630805715190384637595728513268
39,609.271881124623143819109184022778289,608.0,1.271881124623143819109184022778289
40,640.876997692349957611204961324034672,639.6,1.276997692349957611204961324034672
41,673.281987164441867536152547843306364,672.0,1.281987164441867536152547843306364
42,706.486855711194827040807295777268686,705.2,1.286855711194827040807295777268686
43,740.491609063744631222080651697121358,739.2,1.291609063744631222080651697121358
44,775.296252554808635069903014096299318,774.0,1.296252554808635069903014096299318
45,810.900791154807254874442162416291798,809.6,1.300791154807254874442162416291798
46,847.305229503980305414733272605476540,846.0,1.305229503980305414733272605476540
47,884.509571941019748933568832666940040,883.2,1.309571941019748933568832666940040
48,922.513822528662845539268527331858625,921.2,1.313822528662845539268527331858625
49,961.317985076625032131069346969024452,960.0,1.317985076625032131069346969024452
50,1000.92206316219773423123689859146212,999.6,1.32206316219773423123689859146212
51,1041.32606014879084814453813782059450,1040.0,1.32606014879084814453813782059450
52,1082.52997920266128565142623005212447,1081.2,1.32997920266128565142623005212447
53,1124.53382330803652332275055597108912,1123.2,1.33382330803652332275055597108912
54,1167.33759528081453741235576536304902,1166.0,1.33759528081453741235576536304902
55,1210.94129778099802979142791655269201,1209.6,1.34129778099802979142791655269201
56,1255.34493332400077581832564426065240,1254.0,1.34493332400077581832564426065240
57,1300.54850429094672607251962929263595,1299.2,1.34850429094672607251962929263595
58,1346.55201293806769669497637663949957,1345.2,1.35201293806769669497637663949957
59,1393.35546140529272913005038614968154,1392.0,1.35546140529272913005038614968154
60,1440.95885172411117555624923507821187,1439.6,1.35885172411117555624923507821187
61,1489.36218582478200206573389057114758,1488.0,1.36218582478200206573389057114758
62,1538.56546554295350064730511593280495,1537.2,1.36546554295350064730511593280495
63,1588.56869262575035913860805749514571,1587.2,1.36869262575035913860805749514571
64,1639.37186873737872583336653027543464,1638.0,1.37186873737872583336653027543464
65,1690.97499546429437058948697356028688,1689.6,1.37499546429437058948697356028688
66,1743.37807431997419694481917602758824,1742.0,1.37807431997419694481917602758824
67,1796.58110674932709745603599853743463,1795.2,1.38110674932709745603599853743463
68,1850.58409413277638831528666234059360,1849.2,1.38409413277638831528666234059360
69,1905.38703779004274662855207417569630,1904.0,1.38703779004274662855207417569630
70,1960.98993898365364547136740123584510,1959.6,1.38993898365364547136740123584510
71,2017.39279892220268313384637100262772,2016.0,1.39279892220268313384637100262772
72,2074.59561876337990472456260697329305,2073.2,1.39561876337990472456260697329305
73,2132.59839961679216129644009079025534,2131.2,1.39839961679216129644009079025534
74,2191.40114254659073280925254339769605,2190.0,1.40114254659073280925254339769605
75,2251.00384857392181014222874902293843,2249.6,1.40384857392181014222874902293843
76,2311.40651867921398181350592092412085,2310.0,1.40651867921398181350592092412085
77,2372.60915380431556866475529810113370,2371.2,1.40915380431556866475529810113370
78,2434.61175485449348397112417430240477,2433.2,1.41175485449348397112417430240477
79,2497.41432270030424961664648319645266,2496.0,1.41432270030424961664648319645266
80,2561.01685817934686084962978759259472,2559.6,1.41685817934686084962978759259472
81,2625.41936209790634279104999520378305,2624.0,1.41936209790634279104999520378305
82,2690.62183523249608041843174215157194,2689.2,1.42183523249608041843174215157194
83,2756.62427833130631501390281547601368,2755.2,1.42427833130631501390281547601368
84,2823.42669211556557577339491461960565,2822.0,1.42669211556557577339491461960565
85,2891.02907728082125599778943973731943,2889.6,1.42907728082125599778943973731943
86,2959.43143449814502742141775353243499,2958.0,1.43143449814502742141775353243499
87,3028.63376441526832876252548526240804,3027.2,1.43376441526832876252548526240804
88,3098.63606765765274120257485465731346,3097.2,1.43606765765274120257485465731346
89,3169.43834482949967999909748713518008,3168.0,1.43834482949967999909748713518008
90,3241.04059651470348822008095897674529,3239.6,1.44059651470348822008095897674529
91,3313.44282327775169713582163537923394,3312.0,1.44282327775169713582163537923394
92,3386.64502566457592950663726965301188,3385.2,1.44502566457592950663726965301188
93,3460.64720420335665974977721680938577,3459.2,1.44720420335665974977721680938577
94,3535.44935940528480204013001933153010,3534.0,1.44935940528480204013001933153010
95,3611.05149176528287624529913163157441,3609.6,1.45149176528287624529913163157441
96,3687.45360176268829977350115933812157,3686.0,1.45360176268829977350115933812157
97,3764.65568986190116907063133090017409,3763.2,1.45568986190116907063133090017409
98,3842.65775651299872162854631383063734,3841.2,1.45775651299872162854631383063734
99,3921.45980215231851589442526226963720,3920.0,1.45980215231851589442526226963720
100,4001.06182720301222013065402983107931,3999.6,1.46182720301222013065402983107931
101,4081.46383207557177197052291634594206,4080.0,1.46383207557177197052291634594206
102,4162.66581716832954484030729883600999,4161.2,1.46581716832954484030729883600999
103,4244.66778286793404950468761597932962,4243.2,1.46778286793404950468761597932962
104,4327.46972954980259172775471993388810,4326.0,1.46972954980259172775471993388810
105,4411.07165757855221396808979010511703,4409.6,1.47165757855221396808979010511703
106,4495.47356730841015826216422869983846,4494.0,1.47356730841015826216422869983846
107,4580.67545908360500936834958168829427,4579.2,1.47545908360500936834958168829427
108,4666.67733323873959800427313722507943,4665.2,1.47733323873959800427313722507943
109,4753.47919009914667541672067987876929,4752.0,1.47919009914667541672067987876929
110,4841.08102998122830810316284446153699,4839.6,1.48102998122830810316284446153699
111,4929.48285319277987564278298177956319,4928.0,1.48285319277987564278298177956319
112,5018.68466003329950516125096061055592,5017.2,1.48466003329950516125096061055592
113,5108.68645079428372041769328917708378,5107.2,1.48645079428372041769328917708378
114,5199.48822575951003474455356638405140,5198.0,1.48822575951003474455356638405140
115,5291.08998520530717662253471828799372,5289.6,1.48998520530717662253471828799372
116,5383.49172940081358834116626286604945,5382.0,1.49172940081358834116626286604945
117,5476.69345860822480648253306013969837,5475.2,1.49345860822480648253306013969837
118,5570.69517308303029193459645010598477,5569.2,1.49517308303029193459645010598477
119,5665.49687307424024342682239058805161,5664.0,1.49687307424024342682239058805161
120,5761.09855882460290273859619658004152,5759.6,1.49855882460290273859619658004152
121,5857.50023057081282146365929344554588,5856.0,1.50023057081282146365929344554588
122,5954.70188854371054030067057661669223,5953.2,1.50188854371054030067057661669223
123,6052.70353296847409964706299379590616,6051.2,1.50353296847409964706299379590616
124,6151.50516406480278259355729584611712,6150.0,1.50516406480278259355729584611712
125,6251.10678204709346185043178894903743,6249.6,1.50678204709346185043178894903743
126,6351.50838712460990693934937672398839,6350.0,1.50838712460990693934937672398839
127,6452.70997950164538740665677478771537,6451.2,1.50997950164538740665677478771537
128,6554.71155937767888522688088129999526,6553.2,1.51155937767888522688088129999526
129,6657.51312694752521749190920219306113,6656.0,1.51312694752521749190920219306113
130,6761.11468240147935209947394480299300,6759.6,1.51468240147935209947394480299300
131,6865.51622592545518375044132522129762,6864.0,1.51622592545518375044132522129762
132,6970.71775770111902258720680423416767,6969.2,1.51775770111902258720680423416767
133,7076.71927790601803602391311731110338,7075.2,1.51927790601803602391311731110338
134,7183.52078671370387304324893664676552,7182.0,1.52078671370387304324893664676552
135,7291.12228429385168212624364441073884,7289.6,1.52228429385168212624364441073884
136,7399.52377081237473029394333835604924,7398.0,1.52377081237473029394333835604924
137,7508.72524643153481743190948597455410,7507.2,1.52524643153481743190948597455410
138,7618.72671131004866645649116124610446,7617.2,1.52671131004866645649116124610446
139,7729.52816560319046777591613006041239,7728.0,1.52816560319046777591613006041239
140,7841.12960946289074105327777402034947,7839.6,1.52960946289074105327777402034947
141,7953.53104303783167272100493466002336,7952.0,1.53104303783167272100493466002336
142,8066.73246647353907962313459539541209,8065.2,1.53246647353907962313459539541209
143,8180.73387991247114051153812440596513,8179.2,1.53387991247114051153812440596513
144,8295.53528349410402994261470356710015,8294.0,1.53528349410402994261470356710015
145,8411.13667735501458493320662389690232,8409.6,1.53667735501458493320662389690232
146,8527.53806162896012686574003160370201,8526.0,1.53806162896012686574003160370201
147,8644.73943644695555292962882089466005,8643.2,1.53943644695555292962882089466005
148,8762.74080193734781242794602055823593,8761.2,1.54080193734781242794602055823593
149,8881.54215822588786975029265179147568,8880.0,1.54215822588786975029265179147568
150,9001.14350543580025765271698320009147,8999.6,1.54350543580025765271698320009147
151,9121.54484368785031675891316673384516,9120.0,1.54484368785031675891316673384516
152,9242.74617310040921158184374252978773,9241.2,1.54617310040921158184374252978773
153,9364.74749378951681201545370979747396,9363.2,1.54749378951681201545370979747396
154,9487.54880586894252419569198566258265,9486.0,1.54880586894252419569198566258265
155,9611.15010945024414896680614517735216,9609.6,1.55010945024414896680614517735216
156,9735.55140464282484581924639841122761,9734.0,1.55140464282484581924639841122761
157,9860.75269155398827334575467805416786,9859.2,1.55269155398827334575467805416786
158,9986.75397028899197803371220044149241,9985.2,1.55397028899197803371220044149241
159,10113.5552409510990950665509152129681,10112.0,1.5552409510990950665509152129681
160,10241.1565036416284274717385207382928,10239.6,1.5565036416284274717385207382928
161,10369.5577584600029621114279529100858,10368.0,1.5577584600029621114279529100858
162,10498.7590055037968819768426453728934,10497.2,1.5590055037968819768426453728934
163,10628.7602448687811296396669101384918,10627.2,1.5602448687811296396669101384918
164,10759.5614766489675764970062907949593,10758.0,1.5614766489675764970062907949593
165,10891.1627009366518464101054244991348,10889.6,1.5627009366518464101054244991348
166,11023.5639178224548442523821802070102,11022.0,1.5639178224548442523821802070102
167,11156.7651273953630365990673508200903,11155.2,1.5651273953630365990673508200903
168,11290.7663297427675272473333156827491,11289.2,1.5663297427675272473333156827491
169,11425.5675249505019726289722067906930,11424.0,1.5675249505019726289722067906930
170,11561.1687131028793768587091110634622,11559.6,1.5687131028793768587091110634622
171,11697.5698942827278066125809966572559,11696.0,1.5698942827278066125809966572559
172,11834.7710685714250637030091184641414,11833.2,1.5710685714250637030091184641414
173,11972.7722360489323507528655112435225,11971.2,1.5722360489323507528655112435225
174,12111.5733967938269658120173566336715,12110.0,1.5733967938269658120173566336715
175,12251.1745508833340599012520500281922,12249.6,1.5745508833340599012520500281922
176,12391.5756983933574871899055616044801,12390.0,1.5756983933574871899055616044801
177,12532.7768393985097810677012899810415,12531.2,1.5768393985097810677012899810415
178,12674.7779739721412852651653750470323,12673.2,1.5779739721412852651653750470323
179,12817.5791021863684664675339546008424,12816.0,1.5791021863684664675339546008424
180,12961.1802241121014393685209426734747,12959.6,1.5802241121014393685209426734747
181,13105.5813398190707268125021695449147,13104.0,1.5813398190707268125021695449147
182,13250.7824493758532827204708044701328,13249.2,1.5824493758532827204708044701328
183,13396.7835528498978008490075999631665,13395.2,1.5835528498978008490075999631665
184,13543.5846503075493336237714699529931,13542.0,1.5846503075493336237714699529931
185,13691.1857418140732428556031106876040,13689.6,1.5857418140732428556031106876040
186,13839.5868274336785033078304273926543,13838.0,1.5868274336785033078304273926543
187,13988.7879072295403829152422933434970,13987.2,1.5879072295403829152422933434970
188,14138.7889812638225150910142167718756,14137.2,1.5889812638225150910142167718756
189,14289.5900495976983868526425527180356,14288.0,1.5900495976983868526425527180356
190,14441.1911122913722584179307844646633,14439.6,1.5911122913722584179307844646633
191,14593.5921694040995334935451839140556,14592.0,1.5921694040995334935451839140556
192,14746.7932209942065966383075903857423,14745.2,1.5932209942065966383075903857423
193,14900.7942671191101360050374284105376,14899.2,1.5942671191101360050374284105376
194,15055.5953078353359648016891542660245,15054.0,1.5953078353359648016891542660245
195,15211.1963431985373594041068376682752,15209.6,1.5963431985373594041068376682752
196,15367.5973732635129278122581794555087,15366.0,1.5973732635129278122581794555087
197,15524.7983980842240228252308886950593,15523.2,1.5983980842240228252308886950593
198,15682.7994177138117140969322059882142,15681.2,1.5994177138117140969322059882142
199,15841.6004322046133319063066355965193,15840.0,1.6004322046133319063066355965193
200,16001.2014416081785965822325646743637,15999.6,1.6014416081785965822325646743637
201,16161.6024459752853445594761538903370,16160.0,1.6024459752853445594761538903370
202,16322.8034453559548644418134146279799,16321.2,1.6034453559548644418134146279799
203,16484.8044397994668537270021536519641,16483.2,1.6044397994668537270021536519641
204,16647.6054293543740078084648474008804,16646.0,1.6054293543740078084648474008804
205,16811.2064140685162512189941332367994,16809.6,1.6064140685162512189941332367994
206,16975.6073939890346241351773619423402,16974.0,1.6073939890346241351773619423402
207,17140.8083691623848300131653275719641,17139.2,1.6083691623848300131653275719641
208,17306.8093396343504585771893747216252,17305.2,1.6093396343504585771893747216252
209,17473.6103054500558899036540565807438,17472.0,1.6103054500558899036540565807438
210,17641.2112666539788910964039444439778,17639.6,1.6112666539788910964039444439778
211,17809.6122232899629129121205756027798,17808.0,1.6122232899629129121205756027798
212,17978.8131754012290965629712155666510,17977.2,1.6131754012290965629712155666510
213,18148.8141230303879950743968575005410,18147.2,1.6141230303879950743968575005410
214,18319.6150662194510241737226425320597,18318.0,1.6150662194510241737226425320597
215,18491.2160050098416419158148690785106,18489.6,1.6160050098416419158148690785106
216,18663.6169394424062710002346428034339,18662.0,1.6169394424062710002346428034339
217,18836.8178695574249677389231268946513,18835.2,1.6178695574249677389231268946513
218,19010.8187953946218466468608302446063,19009.2,1.6187953946218466468608302446063
219,19185.6197169931752639286292844388130,19184.0,1.6197169931752639286292844388130
220,19361.2206343917277723689952607985801,19359.6,1.6206343917277723689952607985801
221,19537.6215476283958455297995343917316,19536.0,1.6215476283958455297995343917316
222,19714.8224567407793884505078258359978,19713.2,1.6224567407793884505078258359978
223,19892.8233617659710284132470690560197,19891.2,1.6233617659710284132470690560197
224,20071.6242627405652008316171004641687,20070.0,1.6242627405652008316171004641687
225,20251.2251597006670328198120538728039,20249.6,1.6251597006670328198120538728039
226,20431.6260526819010279799840252512116,20430.0,1.6260526819010279799840252512116
227,20612.8269417194195610506870484072030,20611.2,1.6269417194195610506870484072030
228,20794.8278268479111842265922364965633,20793.2,1.6278268479111842265922364965633
229,20977.6287081016087523016089208652759,20976.0,1.6287081016087523016089208652759
230,21161.2295855142973713216396076047613,21159.6,1.6295855142973713216396076047613
231,21345.6304591193221725362226473060869,21344.0,1.6304591193221725362226473060869
232,21530.8313289495959220579666675609142,21529.2,1.6313289495959220579666675609142
233,21716.8321950376064612152643670191907,21715.2,1.6321950376064612152643670191907
234,21903.6330574154239937443345796963758,21902.0,1.6330574154239937443345796963758
235,22091.2339161147082129916754688809557,22089.6,1.6339161147082129916754688809557
236,22279.6347711667152788256797868119712,22278.0,1.6347711667152788256797868119712
237,22468.8356226023046478775215500714850,22467.2,1.6356226023046478775215500714850
238,22658.8364704519457588423072824992013,22657.2,1.6364704519457588423072824992013
