Eigenstate,Energy,Kinetic Energy,Potential Energy
1,0.500000000023511920892750105883782239,0.0,0.500000000023511920892750105883782239
2,1.84623093780458810841881124822660688,1.2,0.64623093780458810841881124822660688
3,3.93633761015579111034330713911758863,3.2,0.73633761015579111034330713911758863
4,6.79966527875323464442042137438983594,6.0,0.79966527875323464442042137438983594
5,10.4480465769122159433640586689783326,9.6,0.8480465769122159433640586689783326
6,14.8870659993871625176635620958523022,14.0,0.8870659993871625176635620958523022
7,20.1197208276161325996946917489213234,19.2,0.9197208276161325996946917489213234
8,26.1477838479760167854543889700123449,25.2,0.9477838479760167854543889700123449
9,32.9723835594730655030976020793403078,32.0,0.9723835594730655030976020793403078
10,40.5942802162558345670662278875772379,39.6,0.9942802162558345670662278875772379
11,49.0140093884653532330834234004141998,48.0,1.0140093884653532330834234004141998
12,58.2319621714062450978082791305974752,57.2,1.0319621714062450978082791305974752
13,68.2484326951443140545845968603125857,67.2,1.0484326951443140545845968603125857
14,79.0636476573627024590743689070643773,78.0,1.0636476573627024590743689070643773
15,90.6777854391760739851855176974343990,89.6,1.0777854391760739851855176974343990
16,103.090988910001057482561493862903888,102.0,1.090988910001057482561493862903888
17,116.303374261017750625680179390395655,115.2,1.103374261017750625680179390395655
18,130.315037256175919003893063332910528,129.2,1.115037256175919003893063332910528
19,145.126057755298973549489212826923886,144.0,1.126057755298973549489212826923886
20,160.736503051717906891969424555172991,159.6,1.136503051717906891969424555172991
21,177.146430378352990502031670785525347,176.0,1.146430378352990502031670785525347
22,194.355888818872514818450589470588720,193.2,1.155888818872514818450589470588720
23,212.364920785629313911030177798732568,211.2,1.164920785629313911030177798732568
24,231.173563177061187654237222231691369,230.0,1.173563177061187654237222231691369
25,250.781848294486828136189316270240874,249.6,1.181848294486828136189316270240874
26,271.189804575913407427545661352624014,270.0,1.189804575913407427545661352624014
27,292.397457188999153435125357370389568,291.2,1.197457188999153435125357370389568
28,314.404828514412389756928973160162845,313.2,1.204828514412389756928973160162845
29,337.211938543033487634395652078698496,336.0,1.211938543033487634395652078698496
30,360.818805204796690528886948580504115,359.6,1.218805204796690528886948580504115
31,385.225444642822833349632036347704285,384.0,1.225444642822833349632036347704285
32,410.431871443416078775878199367297319,409.2,1.231871443416078775878199367297319
33,436.438098830188145312037906368025338,435.2,1.238098830188145312037906368025338
34,463.244138828822955448608654059519836,462.0,1.244138828822955448608654059519836
35,490.850002407655437236059487927421029,489.6,1.250002407655437236059487927421029
36,519.255699598204733700428514627335336,518.0,1.255699598204733700428514627335336
37,548.461239598997989980944102167094078,547.2,1.261239598997989980944102167094078
38,578.466630865390469326912767215763557,577.2,1.266630865390469326912767215763557
39,609.271881187589900441658165201796543,608.0,1.271881187589900441658165201796543
40,640.876997758697137877799478532825983,639.6,1.276997758697137877799478532825983
41,673.281987234258466914477092309675499,672.0,1.281987234258466914477092309675499
42,706.486855784569891745661719115451011,705.2,1.286855784569891745661719115451011
43,740.491609140767259463794869981534562,739.2,1.291609140767259463794869981534562
44,775.296252635567978307528022595065969,774.0,1.296252635567978307528022595065969
45,810.900791239392519073350735289526016,809.6,1.300791239392519073350735289526016
46,847.305229592480752308321414165699927,846.0,1.305229592480752308321414165699927
47,884.509572033524697288797356920290494,883.2,1.309572033524697288797356920290494
48,922.513822625261672425824817303879201,921.2,1.313822625261672425824817303879201
49,961.317985177407174193963688217050945,960.0,1.317985177407174193963688217050945
50,1000.92206326725268896667692881579012,999.6,1.32206326725268896667692881579012
51,1041.32606025820817517894978426716853,1040.0,1.32606025820817517894978426716853
52,1082.52997931653060802351071236968047,1081.2,1.32997931653060802351071236968047
53,1124.53382342644752876848522582825746,1123.2,1.33382342644752876848522582825746
54,1167.33759540385697965286223219916403,1166.0,1.33759540385697965286223219916403
55,1210.94129790876172982364442389667833,1209.6,1.34129790876172982364442389667833
56,1255.34493345657562320843238886950276,1254.0,1.34493345657562320843238886950276
57,1300.54850442842268025207588043333014,1299.2,1.34850442842268025207588043333014
58,1346.55201308053478825973716726823030,1345.2,1.35201308053478825973716726823030
59,1393.35546155284106114143826742375764,1392.0,1.35546155284106114143826742375764
60,1440.95885187683092484546341305359766,1439.6,1.35885187683092484546341305359766
61,1489.36218598276342054048503381847404,1488.0,1.36218598276342054048503381847404
62,1538.56546570628691660116941333857293,1537.2,1.36546570628691660116941333857293
63,1588.56869279452617856299875017350078,1587.2,1.36869279452617856299875017350078
64,1639.37186891168743373212526044896640,1638.0,1.37186891168743373212526044896640
65,1690.97499564422653229610100844410361,1689.6,1.37499564422653229610100844410361
66,1743.37807450562045944227378720296956,1742.0,1.37807450562045944227378720296956
67,1796.58110694077819069931422264617886,1795.2,1.38110694077819069931422264617886
68,1850.58409433012312655653126855413457,1849.2,1.38409433012312655653126855413457
69,1905.38703799337602974490695382918135,1904.0,1.38703799337602974490695382918135
70,1960.98993919306446029551762634122134,1959.6,1.38993919306446029551762634122134
71,2017.39279913778210478727818006757025,2016.0,1.39279913778210478727818006757025
72,2074.59561898521909795356619635255459,2073.2,1.39561898521909795356619635255459
73,2132.59839984498238181087973420019079,2131.2,1.39839984498238181087973420019079
74,2191.40114278122332862412993439789332,2190.0,1.40114278122332862412993439789332
75,2251.00384881508822292206679532420488,2249.6,1.40384881508822292206679532420488
76,2311.40651892700574821958136993343817,2310.0,1.40651892700574821958136993343817
77,2372.60915405882432170520967716746267,2371.2,1.40915405882432170520967716746267
78,2434.61175511581095435398352217548947,2433.2,1.41175511581095435398352217548947
79,2497.41432296852226710578128345765318,2496.0,1.41432296852226710578128345765318
80,2561.01685845455735562368733010065710,2559.6,1.41685845455735562368733010065710
81,2625.41936238020134680539221526880905,2624.0,1.41936238020134680539221526880905
82,2690.62183552196772877011230259217822,2689.2,1.42183552196772877011230259217822
83,2756.62427862804684730971787046099692,2755.2,1.42427862804684730971787046099692
84,2823.42669241966733750104264364217340,2822.0,1.42669241966733750104264364217340
85,2891.02907759237669990017403315585256,2889.6,1.42907759237669990017403315585256
86,2959.43143481724671487413407705522353,2958.0,1.43143481724671487413407705522353
87,3028.63376474200893115456121361123335,3027.2,1.43376474200893115456121361123335
88,3098.63606799212504132026733405250512,3097.2,1.43606799212504132026733405250512
89,3169.43834517179657341338306771562101,3168.0,1.43834517179657341338306771562101
90,3241.04059686491798467707498774359001,3239.6,1.44059686491798467707498774359001
91,3313.44282363597692195076774061314572,3312.0,1.44282363597692195076774061314572
92,3386.64502603090512496126496151110276,3385.2,1.44502603090512496126496151110276
93,3460.64720457788318649310723274225109,3459.2,1.44720457788318649310723274225109
94,3535.44935978810214049276721883759885,3534.0,1.44935978810214049276721883759885
95,3611.05149215648462800725311781563245,3609.6,1.45149215648462800725311781563245
96,3687.45360216236818903557512411405332,3686.0,1.45360216236818903557512411405332
97,3764.65569027015304402942002357762618,3763.2,1.45569027015304402942002357762618
98,3842.65775692991655590508428395557520,3841.2,1.45775692991655590508428395557520
99,3921.45980257799640995652693574464167,3920.0,1.45980257799640995652693574464167
100,4001.06182763754440271898741746356812,3999.6,1.46182763754440271898741746356812
101,4081.46383251905260152845911291985902,4080.0,1.46383251905260152845911291985902
102,4162.66581762085351094758821478177996,4161.2,1.46581762085351094758821478177996
103,4244.66778332959577431495464665302713,4243.2,1.46778332959577431495464665302713
104,4327.46973002069683140998143294484734,4326.0,1.46973002069683140998143294484734
105,4411.07165805877386015196190418643037,4409.6,1.47165805877386015196190418643037
106,4495.47356779805423948745050176597497,4494.0,1.47356779805423948745050176597497
107,4580.67545958276669253830747938706436,4579.2,1.47545958276669253830747938706436
108,4666.67733374751418984313343139774141,4665.2,1.47733374751418984313343139774141
109,4753.47919061762962393129542544587873,4752.0,1.47919061762962393129542544587873
110,4841.08103050951520404862141721008920,4839.6,1.48103050951520404862141721008920
111,4929.48285373096645399264116150763361,4928.0,1.48285373096645399264116150763361
112,5018.68466058148164658161830754174536,5017.2,1.48466058148164658161830754174536
113,5108.68645135255745274582431089654573,5107.2,1.48645135255745274582431089654573
114,5199.48822632797153447174846867585877,5198.0,1.48822632797153447174846867585877
115,5291.08998578405277038143578510729541,5289.6,1.48998578405277038143578510729541
116,5383.49172998993975439749618091746160,5382.0,1.49172998993975439749618091746160
117,5476.69345920782817623132176375015579,5475.2,1.49345920782817623132176375015579
118,5570.69517369320765140094335443495280,5569.2,1.49517369320765140094335443495280
119,5665.49687369508853477124110943782260,5664.0,1.49687369508853477124110943782260
120,5761.09855945621922576698914814754404,5759.6,1.49855945621922576698914814754404
121,5857.50023121329443514196984337977547,5856.0,1.50023121329443514196984337977547
122,5954.70188919715486427426064705594237,5953.2,1.50188919715486427426064705594237
123,6052.70353363297871576486433551870240,6051.2,1.50353363297871576486433551870240
124,6151.50516474046543643704488502304149,6150.0,1.50516474046543643704488502304149
125,6251.10678273401206426746810527878316,6249.6,1.50678273401206426746810527878316
126,6351.50838782288253558294856872605242,6350.0,1.50838782288253558294856872605242
127,6452.70998021137028827871801324098195,6451.2,1.50998021137028827871801324098195
128,6554.71156009895447422694047367478711,6553.2,1.51156009895447422694047367478711
129,6657.51312768045008197096131487160570,6656.0,1.51312768045008197096131487160570
130,6761.11468314615225241891006987127914,6759.6,1.51468314615225241891006987127914
131,6865.51622668197505484615889889047138,6864.0,1.51622668197505484615889889047138
132,6970.71775846958497553893772084602568,6969.2,1.51775846958497553893772084602568
133,7076.71927868652935962982305304954388,7075.2,1.51927868652935962982305304954388
134,7183.52078750636003539985882586250629,7182.0,1.52078750636003539985882586250629
135,7291.12228509875233221372488096810948,7289.6,1.52228509875233221372488096810948
136,7399.52377162961969956683851332418599,7398.0,1.52377162961969956683851332418599
137,7508.72524726122412141533086821610748,7507.2,1.52524726122412141533086821610748
138,7618.72671215228250634784937189394241,7617.2,1.52671215228250634784937189394241
139,7729.52816645806923205223178402554857,7728.0,1.52816645806923205223178402554857
140,7841.12961033051500708412913543347497,7839.6,1.52961033051500708412913543347497
141,7953.53104391830220838716495264282290,7952.0,1.53104391830220838716495264282290
142,8066.73246736695684494095102460996278,8065.2,1.53246736695684494095102460996278
143,8180.73388081893728926311070262802179,8179.2,1.53388081893728926311070262802179
144,8295.53528441371991131182373786979539,8294.0,1.53528441371991131182373786979539
145,8411.13667828788174514764753920339688,8409.6,1.53667828788174514764753920339688
146,8527.53806257518031084461888571685597,8526.0,1.53806257518031084461888571685597
147,8644.73943740663070593767405934692818,8643.2,1.53943740663070593767405934692818
148,8762.74080291058008173539201069051791,8761.2,1.54080291058008173539201069051791
149,8881.54215921277960629899098184697716,8880.0,1.54215921277960629899098184697716
150,9001.14350643645401772843172163661331,8999.6,1.54350643645401772843172163661331
151,9121.54484470236886366985673744145681,9120.0,1.54484470236886366985673744145681
152,9242.74617412889551734351029750985838,9241.2,1.54617412889551734351029750985838
153,9364.74749483207405904180731567285063,9363.2,1.54749483207405904180731567285063
154,9487.54880692567410699676718607283035,9486.0,1.54880692567410699676718607283035
155,9611.15011052125367585277889287597919,9609.6,1.55011052125367585277889287597919
156,9735.55140572821614061103369736754304,9734.0,1.55140572821614061103369736754304
157,9860.75269265386537709220156405931872,9859.2,1.55269265386537709220156405931872
158,9986.75397140345915073542512203172484,9985.2,1.55397140345915073542512203172484
159,10113.5552420802608174064368802686256,10112.0,1.5552420802608174064368802686256
160,10241.1565047855894025523097779856307,10239.6,1.5565047855894025523097779856307
161,10369.5577596188681171989323281046361,10368.0,1.5577596188681171989323281046361
162,10498.7590066776713702522800485698502,10497.2,1.5590066776713702522800485698502
163,10628.7602460577703319567528538229258,10627.2,1.5602460577703319567528538229258
164,10759.5614778531771031471436633998639,10758.0,1.5614778531771031471436633998639
165,10891.1627021561875388944262275079639,10889.6,1.5627021561875388944262275079639
166,11023.5639190574227770609211651173572,11022.0,1.5639190574227770609211651173572
167,11156.7651286458695189971300006849226,11155.2,1.5651286458695189971300006849226
168,11290.7663310089191050691209920316618,11289.2,1.5663310089191050691209920316618
169,11425.5675262324054300785276333574405,11424.0,1.5675262324054300785276333574405
170,11561.1687144006417383182458267443948,11559.6,1.5687144006417383182458267443948
171,11697.5698955964563384582607947265203,11696.0,1.5698955964563384582607947265203
172,11834.7710699012272761282318601667348,11833.2,1.5710699012272761282318601667348
173,11972.7722373949159995991361834032824,11971.2,1.5722373949159995991361834032824
174,12111.5733981561000544074556089550270,12110.0,1.5733981561000544074556089550270
175,12251.1745522620048409068098790942181,12249.6,1.5745522620048409068098790942181
176,12391.5756997885344644533592717260014,12390.0,1.5756997885344644533592717260014
177,12532.7768408103017114854842442448916,12531.2,1.5768408103017114854842442448916
178,12674.7779754006571806521084999053749,12673.2,1.5779754006571806521084999053749
179,12817.5791036317175954345813887551145,12816.0,1.5791036317175954345813887551145
180,12961.1802255743933292084887240006362,12959.6,1.5802255743933292084887240006362
181,13105.5813412984151653939482233744685,13104.0,1.5813412984151653939482233744685
182,13250.7824508723603203897449529524380,13249.2,1.5824508723603203897449529524380
183,13396.7835543636777523405508584105247,13395.2,1.5835543636777523405508584105247
184,13543.5846518387127799787342195308653,13542.0,1.5846518387127799787342195308653
185,13691.1857433627310333488523582484421,13689.6,1.5857433627310333488523582484421
186,13839.5868289999417573834166741896961,13838.0,1.5868289999417573834166741896961
187,13988.7879088135204921303971161383512,13987.2,1.5879088135204921303971161383512
188,14138.7889828656311450687501072940914,14137.2,1.5889828656311450687501072940914
189,14289.5900512174474792430270626382111,14288.0,1.5900512174474792430270626382111
190,14441.1911139291740328681074661632525,14439.6,1.5911139291740328681074661632525
191,14593.5921710600664896265743613163235,14592.0,1.5921710600664896265743613163235
192,14746.7932226684515160409004675395686,14745.2,1.5932226684515160409004675395686
193,14900.7942688117460842242575549031789,14899.2,1.5942688117460842242575549031789
194,15055.5953095464762933506957682539690,15054.0,1.5953095464762933506957682539690
195,15211.1963449282957077770150914341057,15209.6,1.5963449282957077770150914341057
196,15367.5973750120032255081918319570376,15366.0,1.5973750120032255081918319570376
197,15524.7983998515604913816435374260100,15523.2,1.5983998515604913816435374260100
198,15682.7994195001088691322736112239837,15681.2,1.5994195001088691322736112239837
199,15841.6004340099859851721113455397373,15840.0,1.6004340099859851721113455397373
200,16001.2014434327418580247084566593720,15999.6,1.6014434327418580247084566593720
201,16161.6024478191546243906710993345952,16160.0,1.6024478191546243906710993345952
202,16322.8034472192458752204388721802385,16321.2,1.6034472192458752204388721802385
203,16484.8044416822956124489929616643986,16483.2,1.6044416822956124489929616643986
204,16647.6054312568568380073551594519087,16646.0,1.6054312568568380073551594519087
205,16811.2064159907697850761898151548181,16809.6,1.6064159907697850761898151548181
206,16975.6073959311758046002059742248870,16974.0,1.6073959311758046002059742248870
207,17140.8083711245309129339852188196570,17139.2,1.6083711245309129339852188196570
208,17306.8093416166190148406400524977969,17305.2,1.6093416166190148406400524977969
209,17473.6103074525648075861306015709750,17472.0,1.6103074525648075861306015709750
210,17641.2112686768463776248388314219092,17639.6,1.6112686768463776248388314219092
211,17809.6122253333074972353567915882587,17808.0,1.6122253333074972353567915882587
212,17978.8131774651696313336112299155444,17977.2,1.6131774651696313336112299155444
213,18148.8141251150436588412126713156499,18147.2,1.6141251150436588412126713156499
214,18319.6150683249413235847125786777952,18318.0,1.6150683249413235847125786777952
215,18491.2160071362864139319935744047875,18489.6,1.6160071362864139319935744047875
216,18663.6169415899256851202433094800589,18662.0,1.6169415899256851202433094800589
217,18836.8178717261395282345475780394083,18835.2,1.6178717261395282345475780394083
218,19010.8187975846523948095457331020006,19009.2,1.6187975846523948095457331020006
219,19185.6197192046429803270774848084426,19184.0,1.6197192046429803270774848084426
220,19361.2206366247541791179418143709873,19359.6,1.6206366247541791179418143709873
221,19537.6215498831028085700506778514911,19536.0,1.6215498831028085700506778514911
222,19714.8224590172891198403358131810209,19713.2,1.6224590172891198403358131810209
223,19892.8233640644060886312324637570723,19891.2,1.6233640644060886312324637570723
224,20071.6242650610485010910307698649353,20070.0,1.6242650610485010910307698649353
225,20251.2251620433218373946298860871957,20249.6,1.6251620433218373946298860871957
226,20431.6260550468509565426279258750623,20430.0,1.6260550468509565426279258750623
227,20612.8269441067885910215866008289671,20611.2,1.6269441067885910215866008289671
228,20794.8278292578236531356620911406432,20793.2,1.6278292578236531356620911406432
229,20977.6287105341893601617376551220059,20976.0,1.6287105341893601617376551220059
230,21161.2295879696711830142865385839225,21159.6,1.6295879696711830142865385839225
231,21345.6304615976146202092197832914161,21344.0,1.6304615976146202092197832914161
232,21530.8313314509328075356237807181885,21529.2,1.6313314509328075356237807181885
233,21716.8321975621139584208758315015766,21715.2,1.6321975621139584208758315015766
234,21903.6330599632286511351874284198748,21902.0,1.6330599632286511351874284198748
235,22091.2339186859369560066588240961308,22089.6,1.6339186859369560066588240961308
236,22279.6347737614954123455966111631716,22278.0,1.6347737614954123455966111631716
237,22468.8356252207638586982044567038344,22467.2,1.6356252207638586982044567038344
238,22658.8364730942121181606408722350321,22657.2,1.6364730942121181606408722350321
