Eigenstate,Energy,Kinetic Energy,Potential Energy
1,0.500000000027609156799748656008703461,0.0,0.500000000027609156799748656008703461
2,1.84623093783133272700003698652629067,1.2,0.64623093783133272700003698652629067
3,3.93633761023435125938567187919160805,3.2,0.73633761023435125938567187919160805
4,6.79966527891686643600346209041517647,6.0,0.79966527891686643600346209041517647
5,10.4480465771956596284675986037806907,9.6,0.8480465771956596284675986037806907
6,14.8870659998257663025759182625636672,14.0,0.8870659998257663025759182625636672
7,20.1197208282455297480116258114098447,19.2,0.9197208282455297480116258114098447
8,26.1477838488319908959409228500310505,25.2,0.9477838488319908959409228500310505
9,32.9723835605914878083470241533582245,32.0,0.9723835605914878083470241533582245
10,40.5942802176726320587384405234194644,39.6,0.9942802176726320587384405234194644
11,49.0140093902164912988625129683341735,48.0,1.0140093902164912988625129683341735
12,58.2319621735277175532867090378911230,57.2,1.0319621735277175532867090378911230
13,68.2484326976721372009486410550157701,67.2,1.0484326976721372009486410550157701
14,79.0636476603329114576206465375982919,78.0,1.0636476603329114576206465375982919
15,90.6777854426247206295150361071454159,89.6,1.0777854426247206295150361071454159
16,103.090988913964208848704493969930679,102.0,1.090988913964208848704493969930679
17,116.303374265531488293284120373472810,115.2,1.103374265531488293284120373472810
18,130.315037261276338660361786435607062,129.2,1.115037261276338660361786435607062
19,145.126057761022184857903735748815092,144.0,1.126057761022184857903735748815092
20,160.736503058100033545073943568025550,159.6,1.136503058100033545073943568025550
21,177.146430385430170410280130503823161,176.0,1.146430385430170410280130503823161
22,194.355888826680900396505499417799189,193.2,1.155888826680900396505499417799189
23,212.364920794205072437824357607648677,211.2,1.164920794205072437824357607648677
24,231.173563186440501688875332632087590,230.0,1.173563186440501688875332632087590
25,250.781848304705895976855095345329456,249.6,1.181848304705895976855095345329456
26,271.189804587008443603978343133469372,270.0,1.189804587008443603978343133469372
27,292.397457201006389227629875162236520,291.2,1.197457201006389227629875162236520
28,314.404828527368073736607822089273444,313.2,1.204828527368073736607822089273444
29,337.211938556973886220544709441277960,336.0,1.211938556973886220544709441277960
30,360.818805219758088560422682061275569,359.6,1.218805219758088560422682061275569
31,385.225444658841534668108106828473843,384.0,1.225444658841534668108106828473843
32,410.431871460528406818170746490072521,409.2,1.231871460528406818170746490072521
33,436.438098848430443711176418619868413,435.2,1.238098848430443711176418619868413
34,463.244138848231588641535561640322558,462.0,1.244138848231588641535561640322558
35,490.850002428266791077339621212593801,489.6,1.250002428266791077339621212593801
36,519.255699620055216081116119011344352,518.0,1.255699620055216081116119011344352
37,548.461239622124031451962487204113673,547.2,1.261239622124031451962487204113673
38,578.466630889828523726418983369098965,577.2,1.266630889828523726418983369098965
39,609.271881213376445525959140949944621,608.0,1.271881213376445525959140949944621
40,640.876997785868675955461941855787444,639.6,1.276997785868675955461941855787444
41,673.281987262851525483335210800191304,672.0,1.281987262851525483335210800191304
42,706.486855814621024132476733266466000,705.2,1.286855814621024132476733266466000
43,740.491609172313045466362339194485038,739.2,1.291609172313045466362339194485038
44,775.296252668645024839062445012521770,774.0,1.296252668645024839062445012521770
45,810.900791274037460809005648332835091,809.6,1.300791274037460809005648332835091
46,847.305229628730252333726724274749016,846.0,1.305229628730252333726724274749016
47,884.509572071415447750515451741884885,883.2,1.309572071415447750515451741884885
48,922.513822664830395183643692516333361,921.2,1.313822664830395183643692516333361
49,961.317985218690621474959410774709693,960.0,1.317985218690621474959410774709693
50,1000.92206331028764402098971582489977,999.6,1.32206331028764402098971582489977
51,1041.32606030303145293722817510689726,1040.0,1.32606030303145293722817510689726
52,1082.52997936317905575598702141024649,1081.2,1.32997936317905575598702141024649
53,1124.53382347495802674565294378970656,1123.2,1.33382347495802674565294378970656
54,1167.33759545426644180773249571111263,1166.0,1.33759545426644180773249571111263
55,1210.94129796110710441556423312509932,1209.6,1.34129796110710441556423312509932
56,1255.34493351089389348845209396540749,1254.0,1.34493351089389348845209396540749
57,1300.54850448475086512985764580927342,1299.2,1.34850448475086512985764580927342
58,1346.55201313890994297199981796509372,1345.2,1.35201313890994297199981796509372
59,1393.35546161330027792193710622994589,1392.0,1.35546161330027792193710622994589
60,1440.95885193941133359650643261221492,1439.6,1.35885193941133359650643261221492
61,1489.36218604750218950598943220614674,1488.0,1.36218604750218950598943220614674
62,1538.56546577322125304126452055306613,1537.2,1.36546577322125304126452055306613
63,1588.56869286369332943018341274640554,1587.2,1.36869286369332943018341274640554
64,1639.37186898312468634898946183783829,1638.0,1.37186898312468634898946183783829
65,1690.97499571797121503462305660530205,1689.6,1.37499571797121503462305660530205
66,1743.37807458170994240470576586603851,1742.0,1.37807458170994240470576586603851
67,1796.58110701924988640066964762377698,1795.2,1.38110701924988640066964762377698
68,1850.58409441101449060869000134785835,1849.2,1.38409441101449060869000134785835
69,1905.38703807672456154235343377872865,1904.0,1.38703807672456154235343377872865
70,1960.98993927890770370272937347758367,1959.6,1.38993927890770370272937347758367
71,2017.39279922615764882778237289789447,2016.0,1.39279922615764882778237289789447
72,2074.59561907616457750068285081447525,2073.2,1.39561907616457750068285081447525
73,2132.59839993853547828017072684593551,2131.2,1.39839993853547828017072684593551
74,2191.40114287742177066757371047390001,2190.0,1.40114287742177066757371047390001
75,2251.00384891396978712397920644321606,2249.6,1.40384891396978712397920644321606
76,2311.40651902860825979430359944888059,2310.0,1.40651902860825979430359944888059
77,2372.60915416318565519658471925814336,2371.2,1.40915416318565519658471925814336
78,2434.61175522296903433664313188589764,2433.2,1.41175522296903433664313188589764
79,2497.41432307851506888826574703543444,2496.0,1.41432307851506888826574703543444
80,2561.01685856742290595342079070603480,2559.6,1.41685856742290595342079070603480
81,2625.41936249597772457553668397777248,2624.0,1.41936249597772457553668397777248
82,2690.62183564069306572832381860220730,2689.2,1.42183564069306572832381860220730
83,2756.62427874975932876882862283441872,2755.2,1.42427874975932876882862283441872
84,2823.42669254440520305169316271973254,2822.0,1.42669254440520305169316271973254
85,2891.02907772017824412541988765096320,2889.6,1.42907772017824412541988765096320
86,2959.43143494815028806605176216351381,2958.0,1.43143494815028806605176216351381
87,3028.63376487605294003287822647388055,3027.2,1.43376487605294003287822647388055
88,3098.63606812934794975304166904558485,3097.2,1.43606812934794975304166904558485
89,3169.43834531223690313975763109138668,3168.0,1.43834531223690313975763109138668
90,3241.04059700861431603213266301002087,3239.6,1.44059700861431603213266301002087
91,3313.44282378296789459251308864066622,3312.0,1.44282378296789459251308864066622
92,3386.64502618122943859975875285010608,3385.2,1.44502618122943859975875285010608
93,3460.64720473157960162178024353266852,3459.2,1.44720473157960162178024353266852
94,3535.44935994520947912193993774843085,3534.0,1.44935994520947912193993774843085
95,3611.05149231704177439988822447193650,3609.6,1.45149231704177439988822447193650
96,3687.45360232641409044528979821280351,3686.0,1.45360232641409044528979821280351
97,3764.65569043772671144078537725839475,3763.2,1.45569043772671144078537725839475
98,3842.65775710105706477623937904722391,3841.2,1.45775710105706477623937904722391
99,3921.45980275274290096413507446172551,3920.0,1.45980275274290096413507446172551
100,4001.06182781593608250556257967044706,3999.6,1.46182781593608250556257967044706
101,4081.46383270112874345209060976979330,4080.0,1.46383270112874345209060976979330
102,4162.66581780665345583409182477606059,4161.2,1.46581780665345583409182477606059
103,4244.66778351915893121247869172998954,4243.2,1.46778351915893121247869172998954
104,4327.46973021406267834609645151533936,4326.0,1.46973021406267834609645151533936
105,4411.07165825598194489326275670008814,4409.6,1.47165825598194489326275670008814
106,4495.47356799914418030169994335339297,4494.0,1.47356799914418030169994335339297
107,4580.67545978777817895915042933275485,4579.2,1.47545978777817895915042933275485
108,4666.67733395648698343741133645767264,4665.2,1.47733395648698343741133645767264
109,4753.47919083060355906899033953396120,4752.0,1.47919083060355906899033953396120
110,4841.08103072653018867545958120572292,4839.6,1.48103072653018867545958120572292
111,4929.48285395206247040538606504815255,4928.0,1.48285395206247040538606504815255
112,5018.68466080669875220608342113779267,5017.2,1.48466080669875220608342113779267
113,5108.68645158193578091763584065150666,5107.2,1.48645158193578091763584065150666
114,5199.48822656155129521988871219191582,5198.0,1.48822656155129521988871219191582
115,5291.08998602187425121459782933175422,5289.6,1.48998602187425121459782933175422
116,5383.49173023204332109328089745199713,5382.0,1.49173023204332109328089745199713
117,5476.69345945425427362830824882012261,5475.2,1.49345945425427362830824882012261
118,5570.69517394399680419366414783936177,5569.2,1.49517394399680419366414783936177
119,5665.49687395028134830809374379771589,5664.0,1.49687395028134830809374379771589
120,5761.09855971585638685111575747726287,5759.6,1.49855971585638685111575747726287
121,5857.50023147741671283513677860309210,5856.0,1.50023147741671283513677860309210
122,5954.70188946580311070377023975060697,5953.2,1.50188946580311070377023975060697
123,6052.70353390619386693353115999930050,6051.2,1.50353390619386693353115999930050
124,6151.50516501828851303626906752214284,6150.0,1.50516501828851303626906752214284
125,6251.10678301648417249343844213661356,6249.6,1.50678301648417249343844213661356
126,6351.50838811004486795600842908317463,6350.0,1.50838811004486795600842908317463
127,6452.70998050326412446592719321404828,6451.2,1.50998050326412446592719321404828
128,6554.71156039562118186786641551606502,6553.2,1.51156039562118186786641551606502
129,6657.51312798193111750673328724488068,6656.0,1.51312798193111750673328724488068
130,6761.11468345248916192457013186822646,6759.6,1.51468345248916192457013186822646
131,6865.51622699320947486634367982442407,6864.0,1.51622699320947486634367982442407
132,6970.71775878575863392692534218058860,6969.2,1.51775878575863392692534218058860
133,7076.71927900768407638997958902230423,7075.2,1.51927900768407638997958902230423
134,7183.52078783253772353351908604711190,7182.0,1.52078783253772353351908604711190
135,7291.12228542999499856854243873479759,7289.6,1.52228542999499856854243873479759
136,7399.52377196596944568964013356656818,7398.0,1.52377196596944568964013356656818
137,7508.72524760272314440851075325369723,7507.2,1.52524760272314440851075325369723
138,7618.72671249897309972933884776149989,7617.2,1.52671249897309972933884776149989
139,7729.52816680999378661908030928292651,7728.0,1.52816680999378661908030928292651
140,7841.12961068771601177973276487183071,7839.6,1.52961068771601177973276487183071
141,7953.53104428082225117217856108763892,7952.0,1.53104428082225117217856108763892
142,8066.73246773483861366792094412706873,8065.2,1.53246773483861366792094412706873
143,8180.73388119222357255486455445293255,8179.2,1.53388119222357255486455445293255
144,8295.53528479245359944365463243194145,8294.0,1.53528479245359944365463243194145
145,8411.13667867210583093332991407257437,8409.6,1.53667867210583093332991407257437
146,8527.53806296493789052629363328628067,8526.0,1.53806296493789052629363328628067
147,8644.73943780196498007964077054704227,8643.2,1.53943780196498007964077054704227
148,8762.74080331153435612184645575630070,8761.2,1.54080331153435612184645575630070
149,8881.54215961939729283574621128981912,8880.0,1.54215961939729283574621128981912
150,9001.14350684877863534866144465941468,8999.6,1.54350684877863534866144465941468
151,9121.54484512044403924389985758623411,9120.0,1.54484512044403924389985758623411
152,9242.74617455276498659277581091024402,9241.2,1.54617455276498659277581091024402
153,9364.74749526178166745681904083753573,9363.2,1.54749526178166745681904083753573
154,9487.54880736126381075938800630028009,9486.0,1.54880736126381075938800630028009
155,9611.15011096276954276265457203424647,9609.6,1.55011096276954276265457203424647
156,9735.55140617570235101629657101436738,9734.0,1.55140617570235101629657101436738
157,9860.75269310736622482447463336078538,9859.2,1.55269310736622482447463336078538
158,9986.75397186301904404916744559380876,9985.2,1.55397186301904404916744559380876
159,10113.5552425459242799226714545960998,10112.0,1.5552425459242799226714545960998
160,10241.1565052574010742067753065931636,10239.6,1.5565052574010742067753065931636
161,10369.5577600968727551947006647259397,10368.0,1.5577600968727551947006647259397
162,10498.7590071619138500168813878560049,10497.2,1.5590071619138500168813878560049
163,10628.7602465482956481038509585891750,10627.2,1.5602465482956481038509585891750
164,10759.5614783500303704428038615326506,10758.0,1.5614783500303704428038615326506
165,10891.1627026594139932280191423902414,10889.6,1.5627026594139932280191423902414
166,11023.5639195670677764207054291491438,11022.0,1.5639195670677764207054291491438
167,11156.7651291619785444505575926023748,11155.2,1.5651291619785444505575926023748
168,11290.7663315315377617479091545741109,11289.2,1.5663315315377617479091545741109
169,11425.5675267615794481685415367697976,11424.0,1.5675267615794481685415367697976
170,11561.1687149364169740542366679307767,11559.6,1.5687149364169740542366679307767
171,11697.5698961388787751235041342240981,11696.0,1.5698961388787751235041342240981
172,11834.7710704503430250591115485497493,11833.2,1.5710704503430250591115485497493
173,11972.7722379507713011947193656949206,11971.2,1.5722379507713011947193656949206
174,12111.5733987187412791441047940196691,12110.0,1.5733987187412791441047940196691
175,12251.1745528314784903578783601776738,12249.6,1.5745528314784903578783601776738
176,12391.5757003648871723140164527117856,12390.0,1.5757003648871723140164527117856
177,12532.7768413935802446027178859865945,12531.2,1.5768413935802446027178859865945
178,12674.7779759909084400599512356666175,12673.2,1.5779759909084400599512356666175
179,12817.5791042289886173946091737935333,12816.0,1.5791042289886173946091737935333
180,12961.1802261787312862556392759231774,12959.6,1.5802261787312862556392759231774
181,13105.5813419098673673877078694001549,13104.0,1.5813419098673673877078694001549
182,13250.7824514909742155707527524814362,13249.2,1.5824514909742155707527524814362
183,13396.7835549895009283926690483677267,13395.2,1.5835549895009283926690483677267
184,13543.5846524717929650966346357245700,13542.0,1.5846524717929650966346357245700
185,13691.1857440031160973111687788229494,13689.6,1.5857440031160973111687788229494
186,13839.5868296476797126315132957515749,13838.0,1.5868296476797126315132957515749
187,13988.7879094686594948528040308265469,13987.2,1.5879094686594948528040308265469
188,14138.7889835282194962913167921476309,14137.2,1.5889835282194962913167921476309
189,14289.5900518875336259248454227342774,14288.0,1.5900518875336259248454227342774
190,14441.1911146068065690032563980516608,14439.6,1.5911146068065690032563980516608
191,14593.5921717452941573517380861215309,14592.0,1.5921717452941573517380861215309
192,14746.7932233613232067489134570046004,14745.2,1.5932233613232067489134570046004
193,14900.7942695123108396836291744675032,14899.2,1.5942695123108396836291744675032
194,15055.5953102547833068311682304500776,15054.0,1.5953102547833068311682304500776
195,15211.1963456443943251812087399458977,15209.6,1.5963456443943251812087399458977
196,15367.5973757359429465093921969844874,15366.0,1.5973757359429465093921969844874
197,15524.7984005833909705677850556723086,15523.2,1.5984005833909705677850556723086
198,15682.7994202398799171561753118868825,15681.2,1.5994202398799171561753118868825
199,15841.6004347577475699080202923884630,15840.0,1.6004347577475699080202923884630
200,16001.2014441885441057312071794827026,15999.6,1.6014441885441057312071794827026
201,16161.6024485830478208800056322214678,16160.0,1.6024485830478208800056322214678
202,16322.8034479912804670343246169140297,16321.2,1.6034479912804670343246169140297
203,16484.8044424625222080409559338093382,16483.2,1.6044424625222080409559338093382
204,16647.6054320453262089316666607019205,16646.0,1.6054320453262089316666607019205
205,16811.2064167875328671834531420511306,16809.6,1.6064167875328671834531420511306
206,16975.6073967362836992396541599823410,16974.0,1.6073967362836992396541599823410
207,17140.8083719380348881625492933792840,17139.2,1.6083719380348881625492933792840
208,17306.8093424385705066388478999928943,17305.2,1.6093424385705066388478999928943
209,17473.6103082830154210808968405609455,17472.0,1.6103082830154210808968405609455
210,17641.2112695158478883192067435591327,17639.6,1.6112695158478883192067435591327
211,17809.6122261809118522452538468908130,17808.0,1.6122261809118522452538468908130
212,17978.8131783214289506316801388430511,17977.2,1.6131783214289506316801388430511
213,18148.8141259800102365077806029540868,18147.2,1.6141259800102365077806029540868
214,18319.6150691986676290659615503441809,18318.0,1.6150691986676290659615503441809
215,18491.2160080188250933053955962073927,18489.6,1.6160080188250933053955962073927
216,18663.6169424813295623673244333736886,18662.0,1.6169424813295623673244333736886
217,18836.8178726264616065210454824414956,18835.2,1.6178726264616065210454824414956
218,19010.8187984939458577730260969239593,19009.2,1.6187984939458577730260969239593
219,19185.6197201229611933720748941206633,19184.0,1.6197201229611933720748941206633
220,19361.2206375521506907186914862915453,19359.6,1.6206375521506907186914862915453
221,19537.6215508196313515808779351122911,19536.0,1.6215508196313515808779351122911
222,19714.8224599630036128137707510394456,19713.2,1.6224599630036128137707510394456
223,19892.8233650193606371439177875669671,19891.2,1.6233650193606371439177875669671
224,20071.6242660252973990774914715590444,20070.0,1.6242660252973990774914715590444
225,20251.2251630169195684889739428572754,20249.6,1.6251630169195684889739428572754
226,20431.6260560298521954282478004683085,20430.0,1.6260560298521954282478004683085
227,20612.8269450992482047889319468380216,20611.2,1.6269450992482047889319468380216
228,20794.8278302597967026481546873453365,20793.2,1.6278302597967026481546873453365
229,20977.6287115457311014299001110727594,20976.0,1.6287115457311014299001110727594
230,21161.2295889908370685781570818884884,21159.6,1.6295889908370685781570818884884
231,21345.6304626284603005291259664276730,21344.0,1.6304626284603005291259664276730
232,21530.8313324915141323913885950464003,21529.2,1.6313324915141323913885950464003
233,21716.8321986124869783195303595220433,21715.2,1.6321986124869783195303595220433
234,21903.6330610234496187272648782514045,21902.0,1.6330610234496187272648782514045
235,22091.2339197560623275111452988774987,22089.6,1.6339197560623275111452988774987
236,22279.6347748415818489836147614900663,22278.0,1.6347748415818489836147614900663
237,22468.8356263108682281355068222027940,22467.2,1.6356263108682281355068222027940
238,22658.8364741943914959589902818140591,22657.2,1.6364741943914959589902818140591
