Eigenstate,Energy,Kinetic Energy,Potential Energy
1,0.500000041797360672476946253986043577,0.0,0.500000041797360672476946253986043577
2,1.84623121059366593985113207040041653,1.2,0.64623121059366593985113207040041653
3,3.93633841195928077120764494959481804,3.2,0.73633841195928077120764494959481804
4,6.79966695026897651643012469802731997,6.0,0.79966695026897651643012469802731997
5,10.4480494755275011593672324605309299,9.6,0.8480494755275011593672324605309299
6,14.8870704907907330286235419404719648,14.0,0.8870704907907330286235419404719648
7,20.1197272830593324728105380429546831,19.2,0.9197272830593324728105380429546831
8,26.1477926434625347195893774420701088,25.2,0.9477926434625347195893774420701088
9,32.9723950756949922159360630617603168,32.0,0.9723950756949922159360630617603168
10,40.5942948388581097837048741101065708,39.6,0.9942948388581097837048741101065708
11,49.0140275084744442958352408423183171,48.0,1.0140275084744442958352408423183171
12,58.2319841857528010522802843898847314,57.2,1.0319841857528010522802843898847314
13,68.2484590072478843203688513463689143,67.2,1.0484590072478843203688513463689143
14,79.0636786777636864391377361246082215,78.0,1.0636786777636864391377361246082215
15,90.6778215862082895075152893445048918,89.6,1.0778215862082895075152893445048918
16,103.091030610502577528220471662419906,102.0,1.091030610502577528220471662419906
17,116.303421951080040709637774908350929,115.2,1.103421951080040709637774908350929
18,130.315091381932756754473430826919970,129.2,1.115091381932756754473430826919970
19,145.126118773757602304134310401938532,144.0,1.126118773757602304134310401938532
20,160.736571431635597507084206405429245,159.6,1.136571431635597507084206405429245
21,177.146506601162783686475814339719655,176.0,1.146506601162783686475814339719655
22,194.355973379662460030423412602582112,193.2,1.155973379662460030423412602582112
23,212.365014194180052289003476161216166,211.2,1.165014194180052289003476161216166
24,231.173665958947272957976520887841621,230.0,1.173665958947272957976520887841621
25,250.781960992247760818191718502055322,249.6,1.181960992247760818191718502055322
26,271.189927750300988291215404045550469,270.0,1.189927750300988291215404045550469
27,292.397591420308458604144477908275387,291.2,1.197591420308458604144477908275387
28,314.404974403904441166360835337289139,313.2,1.204974403904441166360835337289139
29,337.212096714458556701755755666726178,336.0,1.212096714458556701755755666726178
30,360.818976306028141958410528538165908,359.6,1.218976306028141958410528538165908
31,385.225629347612507770826549938819899,384.0,1.225629347612507770826549938819899
32,410.432070453283445992903966548993343,409.2,1.232070453283445992903966548993343
33,436.438312876456856057700801842079822,435.2,1.238312876456856057700801842079822
34,463.244368674820003880432560501380956,462.0,1.244368674820003880432560501380956
35,490.850248851089948364259725400691886,489.6,1.250248851089948364259725400691886
36,519.255963473745443935512104330795648,518.0,1.255963473745443935512104330795648
37,548.461521781070835550254878568140621,547.2,1.261521781070835550254878568140621
38,578.466932271220384275413364473730520,577.2,1.266932271220384275413364473730520
39,609.272202780514009978108788555185289,608.0,1.272202780514009978108788555185289
40,640.877340551780081314891907961478137,639.6,1.277340551780081314891907961478137
41,673.282352294244677706620601158928831,672.0,1.282352294244677706620601158928831
42,706.487244236212396258701883399529531,705.2,1.287244236212396258701883399529531
43,740.492022171578046501157710714779671,739.2,1.292022171578046501157710714779671
44,775.296691501041377087490935294790615,774.0,1.296691501041377087490935294790615
45,810.901257268760472416313204041304989,809.6,1.301257268760472416313204041304989
46,847.305724195067588323875173256644462,846.0,1.305724195067588323875173256644462
47,884.510096705779235558539247537548223,883.2,1.310096705779235558539247537548223
48,922.514378958556553919920674771430249,921.2,1.314378958556553919920674771430249
49,961.318574866709552013020793176805327,960.0,1.318574866709552013020793176805327
50,1000.92268812078732129604116812113404,999.6,1.32268812078732129604116812113404
51,1041.32672220825409543976508945968215,1040.0,1.32672220825409543976508945968215
52,1082.53068043151662418912312948814677,1081.2,1.33068043151662418912312948814677
53,1124.53456592454071890955318669827486,1123.2,1.33456592454071890955318669827486
54,1167.33838166827323111207684164190322,1166.0,1.33838166827323111207684164190322
55,1210.94213050506964298393849815579132,1209.6,1.34213050506964298393849815579132
56,1255.34581515231658756438223817881087,1254.0,1.34581515231658756438223817881087
57,1300.54943821543296454482947692072284,1299.2,1.34943821543296454482947692072284
58,1346.55300220043308120589210705605831,1345.2,1.35300220043308120589210705605831
59,1393.35650952624097241842798163334494,1392.0,1.35650952624097241842798163334494
60,1440.95996253695763841681032804554942,1439.6,1.35996253695763841681032804554942
61,1489.36336351430375677156979675395931,1488.0,1.36336351430375677156979675395931
62,1538.56671469049152000763497935088671,1537.2,1.36671469049152000763497935088671
63,1588.57001826182350783230282044090550,1587.2,1.37001826182350783230282044090550
64,1639.37327640337809436774598675416671,1638.0,1.37327640337809436774598675416671
65,1690.97649128522571738762470117511346,1689.6,1.37649128522571738762470117511346
66,1743.37966509073692517471042711948830,1742.0,1.37966509073692517471042711948830
67,1796.58280003770378365779035066174342,1795.2,1.38280003770378365779035066174342
68,1850.58589840321902923799819200248465,1849.2,1.38589840321902923799819200248465
69,1905.38896255356909360654152186760539,1904.0,1.38896255356909360654152186760539
70,1960.99199498083815769720278572008715,1959.6,1.39199498083815769720278572008715
71,2017.39499834855246413238949532600862,2016.0,1.39499834855246413238949532600862
72,2074.59797554961345568402041132723007,2073.2,1.39797554961345568402041132723007
73,2132.60092978112774222587333222955992,2131.2,1.40092978112774222587333222955992
74,2191.40386464278956280658647745391694,2190.0,1.40386464278956280658647745391694
75,2251.00678426861970237569549647042979,2249.6,1.40678426861970237569549647042979
76,2311.40969350681755356767829406757221,2310.0,1.40969350681755356767829406757221
77,2372.61259817047685352231913828288650,2371.2,1.41259817047685352231913828288650
78,2434.61550539519607117208260821368570,2433.2,1.41550539519607117208260821368570
79,2497.41842416241233191091464790957523,2496.0,1.41842416241233191091464790957523
80,2561.02136608791750009159648322885070,2559.6,1.42136608791750009159648322885070
81,2625.42434665062552821019666431531878,2624.0,1.42434665062552821019666431531878
82,2690.62738718466873395860709100034028,2689.2,1.42738718466873395860709100034028
83,2756.63051826554547016905585453614226,2755.2,1.43051826554547016905585453614226
84,2823.43378580855657149705441630804177,2822.0,1.43378580855657149705441630804177
85,2891.03726287807260936042055870613600,2889.6,1.43726287807260936042055870613600
86,2959.44107480822074517178198638594437,2958.0,1.44107480822074517178198638594437
87,3028.64545989242146489530756349465857,3027.2,1.44545989242146489530756349465857
88,3098.65094561758299945983702744458933,3097.2,1.45094561758299945983702744458933
89,3169.45903660271377295969943253190821,3168.0,1.45903660271377295969943253190821
90,3241.07707893368415429476698724268688,3239.6,1.47707893368415429476698724268688
