Eigenstate,Energy,Kinetic Energy,Potential Energy
1,0.500000000012479670250329288267191521,0.0,0.500000000012479670250329288267191521
2,1.84623093773257540688459879919653937,1.2,0.64623093773257540688459879919653937
3,3.93633760994425998125813656230425652,3.2,0.73633760994425998125813656230425652
4,6.79966527831264051450374873315112644,6.0,0.79966527831264051450374873315112644
5,10.4480465761490190847787592100519378,9.6,0.8480465761490190847787592100519378
6,14.8870659982061876285085355338245239,14.0,0.8870659982061876285085355338245239
7,20.1197208259214386035323976873332133,19.2,0.9197208259214386035323976873332133
8,26.1477838456712599472893025905967121,25.2,0.9477838456712599472893025905967121
9,32.9723835564616686218592729131348104,32.0,0.9723835564616686218592729131348104
10,40.5942802124410731644642154375339773,39.6,0.9942802124410731644642154375339773
11,49.0140093837504026683503667594356529,48.0,1.0140093837504026683503667594356529
12,58.2319621656942077710649374822736246,57.2,1.0319621656942077710649374822736246
13,68.2484326883382357705680144397597173,67.2,1.0484326883382357705680144397597173
14,79.0636476493655825528273061965609598,78.0,1.0636476493655825528273061965609598
15,90.6777854298908716846419024287832742,89.6,1.0777854298908716846419024287832742
16,103.090988899330695907518524737434059,102.0,1.090988899330695907518524737434059
17,116.303374248865119249449351388649723,115.2,1.103374248865119249449351388649723
18,130.315037242443875084160864972132317,129.2,1.115037242443875084160864972132317
19,145.126057739890342849284120396182894,144.0,1.126057739890342849284120396182894
20,160.736503034535483900015359010684672,159.6,1.136503034535483900015359010684672
21,177.146430359299538292536769967952959,176.0,1.146430359299538292536769967952959
22,194.355888797850764646231617773110258,193.2,1.155888797850764646231617773110258
23,212.364920762541964609011089766313078,211.2,1.164920762541964609011089766313078
24,231.173563151810904881064915061920382,230.0,1.173563151810904881064915061920382
25,250.781848266976243508545450409445715,249.6,1.181848266976243508545450409445715
26,271.189804546045117562585292774842172,270.0,1.189804546045117562585292774842172
27,292.397457156675718922007965108227562,291.2,1.197457156675718922007965108227562
28,314.404828479536334071767483959329212,313.2,1.204828479536334071767483959329212
29,337.211938505507296009571497348495158,336.0,1.211938505507296009571497348495158
30,360.818805164522808785188260685574445,359.6,1.218805164522808785188260685574445
31,385.225444599703666697812736257910426,384.0,1.225444599703666697812736257910426
32,410.431871397353990592832196719533577,409.2,1.231871397353990592832196719533577
33,436.438098781085455895712096649269716,435.2,1.238098781085455895712096649269716
34,463.244138776581940754953899621681979,462.0,1.244138776581940754953899621681979
35,490.850002352178327600677990993283317,489.6,1.250002352178327600677990993283317
36,519.255699539393712547073768725552034,518.0,1.255699539393712547073768725552034
37,548.461239536755192518632818944399332,547.2,1.261239536755192518632818944399332
38,578.466630799617981237092364046329587,577.2,1.266630799617981237092364046329587
39,609.271881118189756556620266361819689,608.0,1.271881118189756556620266361819689
40,640.876997685571320851325607636095398,639.6,1.276997685571320851325607636095398
41,673.281987157308905885536912998768025,672.0,1.281987157308905885536912998768025
42,706.486855703698460995848714984288629,705.2,1.286855703698460995848714984288629
43,740.491609055875777069073100934892503,739.2,1.291609055875777069073100934892503
44,775.296252546558204784771739402935595,774.0,1.296252546558204784771739402935595
45,810.900791146166156022082394592104809,809.6,1.300791146166156022082394592104809
46,847.305229494939441047990053693706649,846.0,1.305229494939441047990053693706649
47,884.509571931570017491886046644806726,883.2,1.309571931570017491886046644806726
48,922.513822518795140747031073449166505,921.2,1.313822518795140747031073449166505
49,961.317985066330242895658888134762023,960.0,1.317985066330242895658888134762023
50,1000.92206315146674454081864464583602,999.6,1.32206315146674454081864464583602
51,1041.32606013761453696559358890585366,1040.0,1.32606013761453696559358890585366
52,1082.52997919103052682604464267792242,1081.2,1.32997919103052682604464267792242
53,1124.53382329594218546569003885479251,1123.2,1.33382329594218546569003885479251
54,1167.33759526824748380788331673899361,1166.0,1.33759526824748380788331673899361
55,1210.94129776794911828994633541968706,1209.6,1.34129776794911828994633541968706
56,1255.34493331046085873279405724321685,1254.0,1.34493331046085873279405724321685
57,1300.54850427690665007467333820971486,1299.2,1.34850427690665007467333820971486
58,1346.55201292351830271135082771119085,1345.2,1.35201292351830271135082771119085
59,1393.35546139022485223781327824447310,1392.0,1.35546139022485223781327824447310
60,1440.95885170851564487884409093872947,1439.6,1.35885170851564487884409093872947
61,1489.36218580864964066833780992484664,1488.0,1.36218580864964066833780992484664
62,1538.56546552627512543210289691133113,1537.2,1.36546552627512543210289691133113
63,1588.56869260851678073988440107496117,1587.2,1.36869260851678073988440107496117
64,1639.37186871958074851241762739362503,1638.0,1.37186871958074851241762739362503
65,1690.97499544592279212935240314343699,1689.6,1.37499544592279212935240314343699
66,1743.37807430101980854483471590363513,1742.0,1.37807430101980854483471590363513
67,1796.58110672978068362620765953425237,1795.2,1.38110672978068362620765953425237
68,1850.58409411262872677048599137256621,1849.2,1.38409411262872677048599137256621
69,1905.38703776928460818253254075322266,1904.0,1.38703776928460818253254075322266
70,1960.98993896227579393060147462639067,1959.6,1.38993896227579393060147462639067
71,2017.39279890019587519118270237936613,2016.0,1.39279890019587519118270237936613
72,2074.59561874073488985270256343658708,2073.2,1.39561874073488985270256343658708
73,2132.59839959349968164123273596648183,2131.2,1.39839959349968164123273596648183
74,2191.40114252264152308280701964917985,2190.0,1.40114252264152308280701964917985
75,2251.00384854930659751584289087365119,2249.6,1.40384854930659751584289087365119
76,2311.40651865392348581040981685961671,2310.0,1.40651865392348581040981685961671
77,2372.60915377834050105266841095725036,2371.2,1.40915377834050105266841095725036
78,2434.61175482782454865462453971569965,2433.2,1.41175482782454865462453971569965
79,2497.41432267293214252935041425458118,2496.0,1.41432267293214252935041425458118
80,2561.01685815126226984618044118156509,2559.6,1.41685815126226984618044118156509
81,2625.41936206909994753891307716923408,2624.0,1.41936206909994753891307716923408
82,2690.62183520295855228949656145407368,2689.2,1.42183520295855228949656145407368
83,2756.62427830102831697588683979485772,2755.2,1.42427830102831697588683979485772
84,2823.42669208453776228104992250746310,2822.0,1.42669208453776228104992250746310
85,2891.02907724903427288390730574898789,2889.6,1.42907724903427288390730574898789
86,2959.43143446558951178763385631917296,2958.0,1.43143446558951178763385631917296
87,3028.63376438193490886991769360185400,3027.2,1.43376438193490886991769360185400
88,3098.63606762353203636205598333315741,3097.2,1.43606762353203636205598333315741
89,3169.43834479458230046159909511917543,3168.0,1.43834479458230046159909511917543
90,3241.04059647898003506652630981288996,3239.6,1.44059647898003506652630981288996
91,3313.44282324121276216688561497395407,3312.0,1.44282324121276216688561497395407
92,3386.64502562721209513229101647443175,3385.2,1.44502562721209513229101647443175
93,3460.64720416515849887861519507646276,3459.2,1.44720416515849887861519507646276
94,3535.44935936624287796847722984781672,3534.0,1.44935936624287796847722984781672
95,3611.05149172538774254609613203721383,3609.6,1.45149172538774254609613203721383
96,3687.45360172193050018496453727305632,3686.0,1.45360172193050018496453727305632
97,3764.65568982027123738468724653983904,3763.2,1.45568982027123738468724653983904
98,3842.65775647048718157903470711867441,3841.2,1.45775647048718157903470711867441
99,3921.45980210891588104507229671337846,3920.0,1.45980210891588104507229671337846
100,4001.06182715870899376281032036186629,3999.6,1.46182715870899376281032036186629
101,4081.46383203035844697066506744892540,4080.0,1.46383203035844697066506744892540
102,4162.66581712219660358730026247160671,4161.2,1.46581712219660358730026247160671
103,4244.66778282087196375680535765265166,4243.2,1.46778282087196375680535765265166
104,4327.46972950180182250945665728251283,4326.0,1.46972950180182250945665728251283
105,4411.07165752960321145655045531498893,4409.6,1.47165752960321145655045531498893
106,4495.47356725850336167355358599341156,4494.0,1.47356725850336167355358599341156
107,4580.67545903273084684386141451647732,4579.2,1.47545903273084684386141451647732
108,4666.67733318688848649589890074210934,4665.2,1.47733318688848649589890074210934
109,4753.47919004630902057276619693498187,4752.0,1.47919004630902057276619693498187
110,4841.08102992739450415350521528799044,4839.6,1.48102992739450415350521528799044
111,4929.48285313794030528386504341672661,4928.0,1.48285313794030528386504341672661
112,5018.68465997744453944081063706848760,5017.2,1.48465997744453944081063706848760
113,5108.68645073740371861922514286778829,5107.2,1.48645073740371861922514286778829
114,5199.48822570159534427149985412690567,5198.0,1.48822570159534427149985412690567
115,5291.08998514634813288220323666531299,5289.6,1.48998514634813288220323666531299
116,5383.49172934080051462837224571239332,5382.0,1.49172934080051462837224571239332
117,5476.69345854714801386296239633017536,5475.2,1.49345854714801386296239633017536
118,5570.69517302088007912788745155049948,5569.2,1.49517302088007912788745155049948
119,5665.49687301100689668936334043830987,5664.0,1.49687301100689668936334043830987
120,5761.09855876027669574603588865854492,5759.6,1.49855876027669574603588865854492
121,5857.50023050538401519312776232298983,5856.0,1.50023050538401519312776232298983
122,5954.70188847716938291270719317006649,5953.2,1.50188847716938291270719317006649
123,6052.70353290081082636724910283067473,6051.2,1.50353290081082636724910283067473
124,6151.50516399600761559385054170313389,6150.0,1.50516399600761559385054170313389
125,6251.10678197715661013019927804091680,6249.6,1.50678197715661013019927804091680
126,6351.50838705352156620609679478505581,6350.0,1.50838705352156620609679478505581
127,6452.70997942939573995645057198628126,6451.2,1.50997942939573995645057198628126
128,6554.71155930425809982446062404617174,6553.2,1.51155930425809982446062404617174
129,6657.51312687292344925048717164608274,6656.0,1.51312687292344925048717164608274
130,6761.11468232568674236021905285795337,6759.6,1.51468232568674236021905285795337
131,6865.51622584846185996164440088507043,6864.0,1.51622584846185996164440088507043
132,6970.71775762291509818312428981280044,6969.2,1.51775762291509818312428981280044
133,7076.71927782659361030328620335138849,7075.2,1.51927782659361030328620335138849
134,7183.52078663304903104749513862029991,7182.0,1.52078663304903104749513862029991
135,7291.12228421195649451731782611300156,7289.6,1.52228421195649451731782611300156
136,7399.52377072922925323186516467506646,7398.0,1.52377072922925323186516467506646
137,7508.72524634712909245195426334554143,7507.2,1.52524634712909245195426334554143
138,7618.72671122437272034604102960671726,7617.2,1.52671122437272034604102960671726
139,7729.52816551623431245096853849567298,7728.0,1.52816551623431245096853849567298
140,7841.12960937464437343460816308990776,7839.6,1.52960937464437343460816308990776
141,7953.53104294828507460998053824981136,7952.0,1.53104294828507460998053824981136
142,8066.73246638268221757717625172133707,8065.2,1.53246638268221757717625172133707
143,8180.73387982029396571922697708914627,8179.2,1.53387982029396571922697708914627
144,8295.53528340059647809844065997281619,8294.0,1.53528340059647809844065997281619
145,8411.13667726016657611195540823720729,8409.6,1.53667726016657611195540823720729
146,8527.53806153276156539651568036254210,8526.0,1.53806153276156539651568036254210
147,8644.73943634939632726950842453717408,8643.2,1.53943634939632726950842453717408
148,8762.74080183841779503526352531052995,8761.2,1.54080183841779503526352531052995
149,8881.54215812557691695754849636185654,8880.0,1.54215812557691695754849636185654
150,9001.14350533409820953911035420343999,8999.6,1.54350533409820953911035420343999
151,9121.54484358474699702249361907575566,9120.0,1.54484358474699702249361907575566
152,9242.74617299589442741127892273477728,9241.2,1.54617299589442741127892273477728
153,9364.74749368358035396140991110922897,9363.2,1.54749368358035396140991110922897
154,9487.54880576157416604182423784442749,9486.0,1.54880576157416604182423784442749
155,9611.15010934143364760035453262926632,9609.6,1.55010934143364760035453262926632
156,9735.55140453256194110123527311754471,9734.0,1.55140453256194110123527311754471
157,9860.75269144226268798079143176815371,9859.2,1.55269144226268798079143176815371
158,9986.75397017579341743938223456392979,9985.2,1.55397017579341743938223456392979
159,10113.5552408364172472424054355652218,10112.0,1.5552408364172472424054355652218
160,10241.1565035254529628678717546304946,10239.6,1.5565035254529628678717546304946
161,10369.5577583423235334966403862574080,10368.0,1.5577583423235334966403862574080
162,10498.7590053846031243063868485912717,10497.2,1.5590053846031243063868485912717
163,10628.7602447480626599225725121776313,10627.2,1.5602447480626599225725121776313
164,10759.5614765267139936629806329597808,10758.0,1.5614765267139936629806329597808
165,10891.1627008128527311760064140471710,10889.6,1.5627008128527311760064140471710
166,11023.5639176970997589882598486453344,11022.0,1.5639176970997589882598486453344
167,11156.7651272684415251937706135114406,11155.2,1.5651272684415251937706135114406
168,11290.7663296142691149736783621283272,11289.2,1.5663296142691149736783621283272
169,11425.5675248204161660084690122607881,11424.0,1.5675248204161660084690122607881
170,11561.1687129711956635258424574728431,11559.6,1.5687129711956635258424574728431
171,11697.5698941494356551786424502279257,11696.0,1.5698941494356551786424502279257
172,11834.7710684365139236194763337955494,11833.2,1.5710684365139236194763337955494
173,11972.7722359123916521743252392087078,11971.2,1.5722359123916521743252392087078
174,12111.5733966556461194586285135008996,12110.0,1.5733966556461194586285135008996
175,12251.1745507435024569207451831002925,12249.6,1.5745507435024569207451831002925
176,12391.5756982518644990191150098253697,12390.0,1.5756982518644990191150098253697
177,12532.7768392553447592936263632507923,12531.2,1.5768392553447592936263632507923
178,12674.7779738272935614855568016814802,12673.2,1.5779738272935614855568016814802
179,12817.5791020398273521510018674188872,12816.0,1.5791020398273521510018674188872
180,12961.1802239638562257141606390472859,12959.6,1.5802239638562257141606390472859
181,13105.5813396691106846090338514895388,13104.0,1.5813396691106846090338514895388
182,13250.7824492241676622048895100068976,13249.2,1.5824492241676622048895100068976
183,13396.7835526964758315647394829354540,13395.2,1.5835526964758315647394829354540
184,13543.5846501523802242783325898538869,13542.0,1.5846501523802242783325898538869
185,13691.1857416571461811777568659950847,13689.6,1.5857416571461811777568659950847
186,13839.5868272749826559042397490386786,13838.0,1.5868272749826559042397490386786
187,13988.7879070690648951266126743523085,13987.2,1.5879070690648951266126743523085
188,14138.7889811015565108477236641016032,14137.2,1.5889811015565108477236641016032
189,14289.5900494336309685298544925783813,14288.0,1.5900494336309685298544925783813
190,14441.1911121254925066901859660187800,14439.6,1.5911121254925066901859660187800
191,14593.5921692363965071888285609890851,14592.0,1.5921692363965071888285609890851
192,14746.7932208246693325915861722903726,14745.2,1.5932208246693325915861722903726
193,14900.7942669477276489112650738873386,14899.2,1.5942669477276489112650738873386
194,15055.5953076620972470682742242870237,15054.0,1.5953076620972470682742242870237
195,15211.1963430234313810028386227039468,15209.6,1.5963430234313810028386227039468
196,15367.5973730865286361306880047635239,15366.0,1.5973730865286361306880047635239
197,15524.7983979053503425175037538700114,15523.2,1.5983979053503425175037538700114
198,15682.7994175330375469340648041209806,15681.2,1.5994175330375469340648041209806
199,15841.6004320219275566259075684923746,15840.0,1.6004320219275566259075684923746
200,16001.2014414235700687376605565145492,15999.6,1.6014414235700687376605565145492
201,16161.6024457887428963684320459774056,16160.0,1.6024457887428963684320459774056
202,16322.8034451674673046343616579837127,16321.2,1.6034451674673046343616579837127
203,16484.8044396090229673930175538033840,16483.2,1.6044396090229673930175538033840
204,16647.6054291619625562445002402795265,16646.0,1.6054291619625562445002402795265
205,16811.2064138741259717745646891599970,16809.6,1.6064138741259717745646891599970
206,16975.6073937926542300584571346276973,16974.0,1.6073937926542300584571346276973
207,17140.8083689640030102960917033857116,17139.2,1.6083689640030102960917033857116
208,17306.8093394339558777999710026596069,17305.2,1.6093394339558777999710026596069
209,17473.6103052476371880786778301324575,17472.0,1.6103052476371880786778301324575
210,17641.2112664495246835115365846424497,17639.6,1.6112664495246835115365846424497
211,17809.6122230834617899734003543250028,17808.0,1.6122230834617899734003543250028
212,17978.8131751926696236366852792861129,17977.2,1.6131751926696236366852792861129
213,18148.8141228197587123285396486872567,18147.2,1.6141228197587123285396486872567
214,18319.6150660067404464188308498360667,18318.0,1.6150660067404464188308498360667
215,18491.2160047950382584451743018601645,18489.6,1.6160047950382584451743018601645
216,18663.6169392254985454294544468341048,18662.0,1.6169392254985454294544468341048
217,18836.8178693384013378448726782065653,18835.2,1.6178693384013378448726782065653
218,19010.8187951734707242059646486505692,19009.2,1.6187951734707242059646486505692
219,19185.6197167698850345545152701049923,19184.0,1.6197167698850345545152701049923
220,19361.2206341662867953494915144598029,19359.6,1.6206341662867953494915144598029
221,19537.6215474007924536632750258793012,19536.0,1.6215474007924536632750258793012
222,19714.8224565110018878815521201007148,19713.2,1.6224565110018878815521201007148
223,19892.8233615340076984676842900509643,19891.2,1.6233615340076984676842900509643
224,20071.6242625064042938508493156319144,20070.0,1.6242625064042938508493156319144
225,20251.2251594642967739944871840296915,20249.6,1.6251594642967739944871840296915
226,20431.6260524433096151829833925836108,20430.0,1.6260524433096151829833925836108
227,20612.8269414785951646694276347054209,20611.2,1.6269414785951646694276347054209
228,20794.8278266048419469946386873074421,20793.2,1.6278266048419469946386873074421
229,20977.6287078562827891295902977335707,20976.0,1.6287078562827891295902977335707
230,21161.2295852667027691274658836314603,21159.6,1.6295852667027691274658836314603
231,21345.6304588694469900745958878795545,21344.0,1.6304588694469900745958878795545
232,21530.8313286974281897491817941854642,21529.2,1.6313286974281897491817941854642
233,21716.8321947831341809732944296397158,21715.2,1.6321947831341809732944296397158
234,21903.6330571586351388041953437856349,21902.0,1.6330571586351388041953437856349
235,22091.2339158555907277360641711307673,22089.6,1.6339158555907277360641711307673
236,22279.6347709052570786108828368048007,22278.0,1.6347709052570786108828368048007
237,22468.8356223384936188585859376838610,22467.2,1.6356223384936188585859376838610
238,22658.8364701857697577974704149636903,22657.2,1.6364701857697577974704149636903
