Eigenstate,Energy,Kinetic Energy,Potential Energy
1,0.500000000017202645929358577421540284,0.0,0.500000000017202645929358577421540284
2,1.84623093776340448170934529925987157,1.2,0.64623093776340448170934529925987157
3,3.93633761003481767708159894403965259,3.2,0.73633761003481767708159894403965259
4,6.79966527850126121585730473967261540,6.0,0.79966527850126121585730473967261540
5,10.4480465764757473283393934829184379,9.6,0.8480465764757473283393934829184379
6,14.8870659987117678835336548819335221,14.0,0.8870659987117678835336548819335221
7,20.1197208266469428368117830533450698,19.2,0.9197208266469428368117830533450698
8,26.1477838466579321024461113808298059,25.2,0.9477838466579321024461113808298059
9,32.9723835577508521184638665509930732,32.0,0.9723835577508521184638665509930732
10,40.5942802140741739314739422155297491,39.6,0.9942802140741739314739422155297491
11,49.0140093857688689053759846846489778,48.0,1.0140093857688689053759846846489778
12,58.2319621681395182337775536331636091,57.2,1.0319621681395182337775536331636091
13,68.2484326912518926965764395878412583,67.2,1.0484326912518926965764395878412583
14,79.0636476527891072580511329507642878,78.0,1.0636476527891072580511329507642878
15,90.6777854338658017706429707360754114,89.6,1.0777854338658017706429707360754114
16,103.090988903898583480657413260166130,102.0,1.090988903898583480657413260166130
17,116.303374254067529798123069647182796,115.2,1.103374254067529798123069647182796
18,130.315037248322386797269633982452458,129.2,1.115037248322386797269633982452458
19,145.126057746486546238546118659946108,144.0,1.126057746486546238546118659946108
20,160.736503041890981636531910253714892,159.6,1.136503041890981636531910253714892
21,177.146430367455945197648727438747456,176.0,1.146430367455945197648727438747456
22,194.355888806849707795607899155377600,193.2,1.155888806849707795607899155377600
23,212.364920772425083521266189589251587,211.2,1.164920772425083521266189589251587
24,231.173563162619851770462696290261441,230.0,1.173563162619851770462696290261441
25,250.781848278752683586982143739480534,249.6,1.181848278752683586982143739480534
26,271.189804558830729379960978762603200,270.0,1.189804558830729379960978762603200
27,292.397457170512194736863566561562986,291.2,1.197457170512194736863566561562986
28,314.404828494465380246050681533624487,313.2,1.204828494465380246050681533624487
29,337.211938521570633422840920579526776,336.0,1.211938521570633422840920579526776
30,360.818805181762173264631672846212138,359.6,1.218805181762173264631672846212138
31,385.225444618160809461250918278092473,384.0,1.225444618160809461250918278092473
32,410.431871417070678702481081697827859,409.2,1.231871417070678702481081697827859
33,436.438098802103472720933997458889520,435.2,1.238098802103472720933997458889520
34,463.244138798943086442581631800725744,462.0,1.244138798943086442581631800725744
35,490.850002375924419551770003437302859,489.6,1.250002375924419551770003437302859
36,519.255699564566585899173385647761707,518.0,1.255699564566585899173385647761707
37,548.461239563396700632774555505106789,547.2,1.261239563396700632774555505106789
38,578.466630827769996188933464923326916,577.2,1.266630827769996188933464923326916
39,609.271881147894169631183974896562014,608.0,1.271881147894169631183974896562014
40,640.876997716870043040930112269753210,639.6,1.276997716870043040930112269753210
41,673.281987190243868390554896085653133,672.0,1.281987190243868390554896085653133
42,706.486855738311615728000410497618160,705.2,1.286855738311615728000410497618160
43,740.491609092209097157003385430004684,739.2,1.291609092209097157003385430004684
44,775.296252584653685081701091365446392,774.0,1.296252584653685081701091365446392
45,810.900791186065813615354186249234198,809.6,1.300791186065813615354186249234198
46,847.305229536685315770363845233373635,846.0,1.305229536685315770363845233373635
47,884.509571975204172434449336560236787,883.2,1.309571975204172434449336560236787
48,922.513822564359662773621136341894793,921.2,1.313822564359662773621136341894793
49,961.317985113867243158702521903265883,960.0,1.317985113867243158702521903265883
50,1000.92206320101835899851138979772844,999.6,1.32206320101835899851138979772844
51,1041.32606018922292690035168060932320,1040.0,1.32606018922292690035168060932320
52,1082.52997924473787936417294904600368,1081.2,1.32997924473787936417294904600368
53,1124.53382335179071409821781008545670,1123.2,1.33382335179071409821781008545670
54,1167.33759532627942891252694680442639,1166.0,1.33759532627942891252694680442639
55,1210.94129782820674765416470482213263,1209.6,1.34129782820674765416470482213263
56,1255.34493337298646807790753758010291,1254.0,1.34493337298646807790753758010291
57,1300.54850434174256358102232421106962,1299.2,1.34850434174256358102232421106962
58,1346.55201299070687354447384573488404,1345.2,1.35201299070687354447384573488404
59,1393.35546145980846307562835203447798,1392.0,1.35546145980846307562835203447798
60,1440.95885178053670843982024306447622,1439.6,1.35885178053670843982024306447622
61,1489.36218588315060024064638025760784,1488.0,1.36218588315060024064638025760784
62,1538.56546560329845540374083719092572,1537.2,1.36546560329845540374083719092572
63,1588.56869268810498712976387456851804,1587.2,1.36869268810498712976387456851804
64,1639.37186880177636950241817153349060,1638.0,1.37186880177636950241817153349060
65,1690.97499553076839859733364342735677,1689.6,1.37499553076839859733364342735677
66,1743.37807438855800459860912103693724,1742.0,1.37807438855800459860912103693724
67,1796.58110682005410713847419607788335,1795.2,1.38110682005410713847419607788335
68,1850.58409420568004991472674852157663,1849.2,1.38409420568004991472674852157663
69,1905.38703786515653796987549267602104,1904.0,1.38703786515653796987549267602104
70,1960.98993906101107274765349760742985,1959.6,1.38993906101107274765349760742985
71,2017.39279900183728133883787524172728,2016.0,1.39279900183728133883787524172728
72,2074.59561884532523808593154129490339,2073.2,1.39561884532523808593154129490339
73,2132.59839970108182370985972733010045,2131.2,1.39839970108182370985972733010045
74,2191.40114263325834827328152664661594,2190.0,1.40114263325834827328152664661594
75,2251.00384866300103319401398050862166,2249.6,1.40384866300103319401398050862166
76,2311.40651877073849796531120247468505,2310.0,1.40651877073849796531120247468505
77,2372.60915389831909484132313298198514,2371.2,1.40915389831909484132313298198514
78,2434.61175495100976894787847490457355,2433.2,1.41175495100976894787847490457355
79,2497.41432279936707445874424774747349,2496.0,1.41432279936707445874424774747349
80,2561.01685828099003935187011494526479,2559.6,1.41685828099003935187011494526479
81,2625.41936220216372191864907260912857,2624.0,1.41936220216372191864907260912857
82,2690.62183533940154074867270613742621,2689.2,1.42183533940154074867270613742621
83,2756.62427844089377117866960167007857,2755.2,1.42427844089377117866960167007857
84,2823.42669222786897690259944372481569,2822.0,1.42669222786897690259944372481569
85,2891.02907739587458616370168245884085,2889.6,1.42907739587458616370168245884085
86,2959.43143461598230608390839959407060,2958.0,1.43143461598230608390839959407060
87,3028.63376453592361121523114186280709,3027.2,1.43376453592361121523114186280709
88,3098.63606778116011901999583323528385,3097.2,1.43606778116011901999583323528385
89,3169.43834495589328148463841903051637,3168.0,1.43834495589328148463841903051637
90,3241.04059664401747885504460693704678,3239.6,1.44059664401747885504460693704678
91,3313.44282341002028002936642047402875,3312.0,1.44282341002028002936642047402875
92,3386.64502579983334584670915685296902,3385.2,1.44502579983334584670915685296902
93,3460.64720434163718925502673332561643,3459.2,1.44720434163718925502673332561643
94,3535.44935954662276341282528727081763,3534.0,1.44935954662276341282528727081763
95,3611.05149190971262762524592808336846,3609.6,1.45149190971262762524592808336846
96,3687.45360191024423919298110191341582,3686.0,1.45360191024423919298110191341582
97,3764.65569001261773491036941641237999,3763.2,1.45569001261773491036941641237999
98,3842.65775666691039307471911069156831,3841.2,1.45775666691039307471911069156831
99,3921.45980230945981339672118505974799,3920.0,1.45980230945981339672118505974799
100,4001.06182736341770586139718821688572,3999.6,1.46182736341770586139718821688572
101,4081.46383223927605028487213994434477,4080.0,1.46383223927605028487213994434477
102,4162.66581733536726273754202150047761,4161.2,1.46581733536726273754202150047761
103,4244.66778303833989709059238114044146,4243.2,1.46778303833989709059238114044146
104,4327.46972972361130267811417548163444,4326.0,1.46972972361130267811417548163444
105,4411.07165775579856599330609145153056,4409.6,1.47165775579856599330609145153056
106,4495.47356748912897357300887391032681,4494.0,1.47356748912897357300887391032681
107,4580.67545926783115514286176631705213,4579.2,1.47545926783115514286176631705213
108,4666.67733342650798685581679787497457,4665.2,1.47733342650798685581679787497457
109,4753.47919029049226586321247376752530,4752.0,1.47919029049226586321247376752530
110,4841.08103017618610503748338755108171,4839.6,1.48103017618610503748338755108171
111,4929.48285339138493080438373210974498,4928.0,1.48285339138493080438373210974498
112,5018.68466023558691760896921963213925,5017.2,1.48466023558691760896921963213925
113,5108.68645100028863700378785650554036,5107.2,1.48645100028863700378785650554036
114,5199.48822596926765058997366031797087,5198.0,1.48822596926765058997366031797087
115,5291.08998541885273559343484268715033,5289.6,1.48998541885273559343484268715033
116,5383.49172961818238352667977150163310,5382.0,1.49172961818238352667977150163310
117,5476.69345882945218067381724348959226,5475.2,1.49345882945218067381724348959226
118,5570.69517330815163810516203821462581,5569.2,1.49517330815163810516203821462581
119,5665.49687330329100521416042735164712,5664.0,1.49687330329100521416042735164712
120,5761.09855905761857492711532749249901,5759.6,1.49855905761857492711532749249901
121,5857.50023080782895046894655964758128,5856.0,1.50023080782895046894655964758128
122,5954.70188878476272465508889285306931,5953.2,1.50188878476272465508889285306931
123,6052.70353321359799048669854823520731,6051.2,1.50353321359799048669854823520731
124,6151.50516431403408414653017762590616,6150.0,1.50516431403408414653017762590616
125,6251.10678230046793192658323524511351,6249.6,1.50678230046793192658323524511351
126,6351.50838738216335742131907743269572,6350.0,1.50838738216335742131907743269572
127,6452.70997976341368474236375717803692,6451.2,1.50997976341368474236375717803692
128,6554.71155964369795092342157116648872,6553.2,1.51155964369795092342157116648872
129,6657.51312721783102861088631309841151,6656.0,1.51312721783102861088631309841151
130,6761.11468267610794175376993101874703,6759.6,1.51468267610794175376993101874703
131,6865.51622620444264160245019840848209,6864.0,1.51622620444264160245019840848209
132,6970.71775798450149534853819779455374,6969.2,1.51775798450149534853819779455374
133,7076.71927819383172795658252162252827,7075.2,1.51927819383172795658252162252827
134,7183.52078700598504646236814097586165,7182.0,1.52078700598504646236814097586165
135,7291.12228459063665790422547863781580,7289.6,1.52228459063665790422547863781580
136,7399.52377111369988836623485437483740,7398.0,1.52377111369988836623485437483740
137,7508.72524673743659730426783434153661,7507.2,1.52524673743659730426783434153661
138,7618.72671162056356771381647298287779,7617.2,1.52671162056356771381647298287779
139,7729.52816591835505059265577503639502,7728.0,1.52816591835505059265577503639502
140,7841.12960978274162670541647196181451,7839.6,1.52960978274162670541647196181451
141,7953.53104336240554409965523733018792,7952.0,1.53104336240554409965523733018792
142,8066.73246680287268174974235881560999,8065.2,1.53246680287268174974235881560999
143,8180.73388024660128105471765895092950,8179.2,1.53388024660128105471765895092950
144,8295.53528383306757973662836823050685,8294.0,1.53528383306757973662836823050685
145,8411.13667769884847849810369271756347,8409.6,1.53667769884847849810369271756347
146,8527.53806197770136292916977006004711,8526.0,1.53806197770136292916977006004711
147,8644.73943680064119495034276277855238,8643.2,1.53943680064119495034276277855238
148,8762.74080229601498912100451958067710,8761.2,1.54080229601498912100451958067710
149,8881.54215858957377561399088162536351,8880.0,1.54215858957377561399088162536351
150,9001.14350580454215349724559869953395,8999.6,1.54350580454215349724559869953395
151,9121.54484406168553023676898031408303,9120.0,1.54484406168553023676898031408303
152,9242.74617347937513772000579398988521,9241.2,1.54617347937513772000579398988521
153,9364.74749417365091374934023132564062,9363.2,1.54749417365091374934023132564062
154,9487.54880625828233290491380493020686,9486.0,1.54880625828233290491380493020686
155,9611.15010984482726501273221563235143,9609.6,1.55010984482726501273221563235143
156,9735.55140504268893908439717585109529,9734.0,1.55140504268893908439717585109529
157,9860.75269195917108377503916645605893,9859.2,1.55269195917108377503916645605893
158,9986.75397069953131617752458833440631,9985.2,1.55397069953131617752458833440631
159,10113.5552413670328426257428022395579,10112.0,1.5552413670328426257428022395579
160,10241.1565040629945378444827899613664,10239.6,1.5565040629945378444827899613664
161,10369.5577588868394609419904953888071,10368.0,1.5577588868394609419904953888071
162,10498.7590059361418677062782130102047,10497.2,1.5590059361418677062782130102047
163,10628.7602453066727740584554082824194,10627.2,1.5602453066727740584554082824194
164,10759.5614770924441252996459753915729,10758.0,1.5614770924441252996459753915729
165,10891.1627013857516197516795697563638,10889.6,1.5627013857516197516795697563638
166,11023.5639182772162373071158036805439,11022.0,1.5639182772162373071158036805439
167,11156.7651278558245201208907461668556,11155.2,1.5651278558245201208907461668556
168,11290.7663302089676481324692030889845,11289.2,1.5663302089676481324692030889845
169,11425.5675254224793544805634129010158,11424.0,1.5675254224793544805634129010158
170,11561.1687135806727205535037974442112,11559.6,1.5687135806727205535037974442112
171,11697.5698947663758908696925367157518,11696.0,1.5698947663758908696925367157518
172,11834.7710690609667456547678301641261,11833.2,1.5710690609667456547678301641261
173,11972.7722365444065665177795468509503,11971.2,1.5722365444065665177795468509503
174,12111.5733972952727310698601547540701,12110.0,1.5733972952727310698601547540701
175,12251.1745513907904704702938531376960,12249.6,1.5745513907904704702938531376960
176,12391.5756989068637196063066016363011,12390.0,1.5756989068637196063066016363011
177,12532.7768399181050931670843578933062,12531.2,1.5768399181050931670843578933062
178,12674.7779744978650167663855752681760,12673.2,1.5779744978650167663855752681760
179,12817.5791027182600395586635612601439,12816.0,1.5791027182600395586635612601439
180,12961.1802246502003592950673930907757,12959.6,1.5802246502003592950673930907757
181,13105.5813403634165824678773014190107,13104.0,1.5813403634165824678773014190107
182,13250.7824499264857472387295743015352,13249.2,1.5824499264857472387295743015352
183,13396.7835534068566321998746339426087,13395.2,1.5835534068566321998746339426087
184,13543.5846508708743752099738858447314,13542.0,1.5846508708743752099738858447314
185,13691.1857423838044241125281984488659,13689.6,1.5857423838044241125281984488659
186,13839.5868280098558403055268221459006,13838.0,1.5868280098558403055268221459006
187,13988.7879078122039789627834416044964,13987.2,1.5879078122039789627834416044964
188,14138.7889818530125613432430506805496,14137.2,1.5889818530125613432430506805496
189,14289.5900501934551629193163575789946,14288.0,1.5900501934551629193163575789946
190,14441.1911128937361329752853966929664,14439.6,1.5911128937361329752853966929664
191,14593.5921700131109648982977594811723,14592.0,1.5921700131109648982977594811723
192,14746.7932216099061335441173110612358,14745.2,1.5932216099061335441173110612358
193,14900.7942677415384179814436165595130,14899.2,1.5942677415384179814436165595130
194,15055.5953084645337229555463946040434,15054.0,1.5953084645337229555463946040434
195,15211.1963438345454170035368265089426,15209.6,1.5963438345454170035368265089426
196,15367.5973739063722009131381354653402,15366.0,1.5973739063722009131381354653402
197,15524.7983987339755209002385036859871,15523.2,1.5983987339755209002385036859871
198,15682.7994183704965406671671912948017,15681.2,1.5994183704965406671671912948017
199,15841.6004328682726851755091115011107,15840.0,1.6004328682726851755091115011107
200,16001.2014422788537700736186050668957,15999.6,1.6014422788537700736186050668957
201,16161.6024466530177277552109490944707,16160.0,1.6024466530177277552109490944707
202,16322.8034460407859434251426732745165,16321.2,1.6034460407859434251426732745165
203,16484.8044404914382118270624214509604,16483.2,1.6044404914382118270624214509604
204,16647.6054300535273262477936527562252,16646.0,1.6054300535273262477936527562252
205,16811.2064147748933097637608739467507,16809.6,1.6064147748933097637608739467507
206,16975.6073947026773017481561155998205,16974.0,1.6073947026773017481561155998205
207,17140.8083698833351055094707919943301,17139.2,1.6083698833351055094707919943301
208,17306.8093403626504112827973535486158,17305.2,1.6093403626504112827973535486158
209,17473.6103061857477003167280047174229,17472.0,1.6103061857477003167280047174229
210,17641.2112673971048415514492374000023,17639.6,1.6112673971048415514492374000023
211,17809.6122240405653882469882986601390,17808.0,1.6122240405653882469882986601390
212,17978.8131761593505847887334074478179,17977.2,1.6131761593505847887334074478179
213,18148.8141237960710880481153180802084,18147.2,1.6141237960710880481153180802084
214,18319.6150669927384182741335126398496,18318.0,1.6150669927384182741335126398496
215,18491.2160057907761387219513475371162,18489.6,1.6160057907761387219513475371162
216,18663.6169402310307779730103664698123,18662.0,1.6169402310307779730103664698123
217,18836.8178703537824989056988882672461,18835.2,1.6178703537824989056988882672461
218,19010.8187961987555232890174118152608,19009.2,1.6187961987555232890174118152608
219,19185.6197178051283152721694051497044,19184.0,1.6197178051283152721694051497044
220,19361.2206352115435362781977116974856,19359.6,1.6206352115435362781977116974856
221,19537.6215484561177692039488144243503,19536.0,1.6215484561177692039488144243503
222,19714.8224575764510291237226555666887,19713.2,1.6224575764510291237226555666887
223,19892.8233626096360540574313627131166,19891.2,1.6233626096360540574313627131166
224,20071.6242635922673908625571310824694,20070.0,1.6242635922673908625571310824694
225,20251.2251605604502788064437161344383,20249.6,1.6251605604502788064437161344383
226,20431.6260535498093343568542115148820,20430.0,1.6260535498093343568542115148820
227,20612.8269425954970458336333575292080,20611.2,1.6269425954970458336333575292080
228,20794.8278277322020797316653927413909,20793.2,1.6278277322020797316653927413909
229,20977.6287089941574058672624351236927,20976.0,1.6287089941574058672624351236927
230,21161.2295864151482460342113509190280,21159.6,1.6295864151482460342113509190280
231,21345.6304600285198479587332507919674,21344.0,1.6304600285198479587332507919674
232,21530.8313298671850949622597458310166,21529.2,1.6313298671850949622597458310166
233,21716.8321959636319463175137697136803,21715.2,1.6321959636319463175137697136803
234,21903.6330583499307244439440656178429,21902.0,1.6330583499307244439440656178429
235,22091.2339170577412421135963333381752,22089.6,1.6339170577412421135963333381752
236,22279.6347721183197793661721479602231,22278.0,1.6347721183197793661721479602231
237,22468.8356235625259137533852338373026,22467.2,1.6356235625259137533852338373026
238,22658.8364714208292056436083448166286,22657.2,1.6364714208292056436083448166286
