Eigenstate,Energy,Kinetic Energy,Potential Energy
1,0.500000000243942084008135578715470034,0.0,0.500000000243942084008135578715470034
2,1.84623093924345497373233839293087953,1.2,0.64623093924345497373233839293087953
3,3.93633761438240861279580381744688032,3.2,0.73633761438240861279580381744688032
4,6.79966528755697375374460315239444091,6.0,0.79966528755697375374460315239444091
5,10.4480465921624853683163367157192705,9.6,0.8480465921624853683163367157192705
6,14.8870660229863362200520418190323493,14.0,0.8870660229863362200520418190323493
7,20.1197208614822440015608225624358165,19.2,0.9197208614822440015608225624358165
8,26.1477838940355768729636954921443230,25.2,0.9477838940355768729636954921443230
9,32.9723836196577557194533642448561246,32.0,0.9723836196577557194533642448561246
10,40.5942802925008582598300529727238532,39.6,0.9942802925008582598300529727238532
11,49.0140094827085679256087467430027072,48.0,1.0140094827085679256087467430027072
12,58.2319622855876927096095070475097031,57.2,1.0319622855876927096095070475097031
13,68.2484328312059678201238746156266198,67.2,1.0484328312059678201238746156266198
14,79.0636478172483386111762126790528418,78.0,1.0636478172483386111762126790528418
15,90.6777856248312187617802898137160909,89.6,1.0777856248312187617802898137160909
16,103.090989123372981503846684912103822,102.0,1.090989123372981503846684912103822
17,116.303374504055494141917101168675677,115.2,1.103374504055494141917101168675677
18,130.315037530830337903300829539809421,129.2,1.115037530830337903300829539809421
19,145.126058063522799724950697531577700,144.0,1.126058063522799724950697531577700
20,160.736503395465818795567394130947879,159.6,1.136503395465818795567394130947879
21,177.146430759581691099833544665245319,176.0,1.146430759581691099833544665245319
22,194.355889239540815040175967537237492,193.2,1.155889239540815040175967537237492
23,212.364921247698220266002009679825989,211.2,1.164921247698220266002009679825989
24,231.173563682493993070636120640208623,230.0,1.173563682493993070636120640208623
25,250.781848845249205343736380054411478,249.6,1.181848845249205343736380054411478
26,271.189805173973504386599593309004302,270.0,1.189805173973504386599593309004302
27,292.397457836327690444430652276995595,291.2,1.197457836327690444430652276995595
28,314.404829212982757965034073821255816,313.2,1.204829212982757965034073821255816
29,337.211939294821848747318141226897835,336.0,1.211939294821848747318141226897835
30,360.818806011782077556445934265562907,359.6,1.218806011782077556445934265562907
31,385.225445506987252270092815680226981,384.0,1.225445506987252270092815680226981
32,410.431872366744611026672719427639207,409.2,1.231872366744611026672719427639207
33,436.438099814669051035791294330466869,435.2,1.238099814669051035791294330466869
34,463.244139876447777440254442517874368,462.0,1.244139876447777440254442517874368
35,490.850003520419105549709948533602482,489.6,1.250003520419105549709948533602482
36,519.255700778105670884783678641718157,518.0,1.255700778105670884783678641718157
37,548.461240848038216920036192079566146,547.2,1.261240848038216920036192079566146
38,578.466632185575711669379910613359193,577.2,1.266632185575711669379910613359193
39,609.271882580929695606889061988096186,608.0,1.271882580929695606889061988096186
40,640.876999227204942631464234138798249,639.6,1.276999227204942631464234138798249
41,673.281988779951765509367784900294230,672.0,1.281988779951765509367784900294230
42,706.486857409470304626570487263049619,705.2,1.286857409470304626570487263049619
43,740.491610846900652537480680147370253,739.2,1.291610846900652537480680147370253
44,775.296254424964572780761781210908181,774.0,1.296254424964572780761781210908181
45,810.900793114087001863657904130785293,809.6,1.300793114087001863657904130785293
46,847.305231554512387033420775178922731,846.0,1.305231554512387033420775178922731
47,884.509574084937435841910390100776799,883.2,1.309574084937435841910390100776799
48,922.513824768104267145041038061141086,921.2,1.313824768104267145041038061141086
49,961.317987413733290634721746337297120,960.0,1.317987413733290634721746337297120
50,1000.92206559912101928718426779430616,999.6,1.32206559912101928718426779430616
51,1041.32606268768255214903514104352848,1040.0,1.32606268768255214903514104352848
52,1082.52998184568011966799829826444154,1081.2,1.32998184568011966799829826444154
53,1124.53382605734663365671123012318540,1123.2,1.33382605734663365671123012318540
54,1167.33759813858562284643380247121115,1166.0,1.33759813858562284643380247121115
55,1210.94130074940545949497676925300900,1209.6,1.34130074940545949497676925300900
56,1255.34493640522570794299908606730505,1254.0,1.34493640522570794299908606730505
57,1300.54850748717622704767607890533162,1299.2,1.34850748717622704767607890533162
58,1346.55201625149486123642808135986841,1345.2,1.35201625149486123642808135986841
59,1393.35546483811680097610315572790814,1392.0,1.35546483811680097610315572790814
60,1440.95885527853766894529125960829567,1439.6,1.35885527853766894529125960829567
61,1489.36218950302282396992903569600679,1488.0,1.36218950302282396992903569600679
62,1538.56546934722707377723097387518765,1537.2,1.36546934722707377723097387518765
63,1588.56869655828174573395289830081355,1587.2,1.36869655828174573395289830081355
64,1639.37187280039975225506536505270188,1638.0,1.37187280039975225506536505270188
65,1690.97499966004375272893696054005446,1689.6,1.37499966004375272893696054005446
66,1743.37807865069766646606820908434406,1742.0,1.37807865069766646606820908434406
67,1796.58111121727752888708894672778488,1795.2,1.38111121727752888708894672778488
68,1850.58409874021392700492099045041024,1849.2,1.38409874021392700492099045041024
69,1905.38704253923493758528124430090181,1904.0,1.38704253923493758528124430090181
70,1960.98994387687556310143299843284325,1959.6,1.38994387687556310143299843284325
71,2017.39280396173706189536642095658055,2016.0,1.39280396173706189536642095658055
72,2074.59562395151727071520595424141428,2073.2,1.39562395151727071520595424141428
73,2132.59840495583096479224379838989228,2131.2,1.39840495583096479224379838989228
74,2191.40114803883748177244478573957101,2190.0,1.40114803883748177244478573957101
75,2251.00385422169120471616925770431305,2249.6,1.40385422169120471616925770431305
76,2311.40652448482904982310576786658287,2310.0,1.40652448482904982310576786658287
77,2372.60915977010780214099208391273290,2371.2,1.40915977010780214099208391273290
78,2434.61176098280297671852487617847805,2433.2,1.41176098280297671852487617847805
79,2497.41432899347983584287007615167680,2496.0,1.41432899347983584287007615167680
80,2561.01686463974625487654419258823016,2559.6,1.41686463974625487654419258823016
81,2625.41936872789627986696606063006197,2624.0,1.41936872789627986696606063006197
82,2690.62184203445245865142739691426832,2689.2,1.42184203445245865142739691426832
83,2756.62428530761433844644601508175728,2755.2,1.42428530761433844644601508175728
84,2823.42669926861989861875427594693434,2822.0,1.42669926861989861875427594693434
85,2891.02908461302612805900611398033736,2889.6,1.42908461302612805900611398033736
86,2959.43144201191444071390119161839118,2958.0,1.43144201191444071390119161839118
87,3028.63377211302616536163171550235004,3027.2,1.43377211302616536163171550235004
88,3098.63607554183292233782489353924221,3097.2,1.43607554183292233782489353924221
89,3169.43835290254631641699986337647221,3168.0,1.43835290254631641699986337647221
90,3241.04060477907103183783314146119660,3239.6,1.44060477907103183783314146119660
91,3313.44283173590509400848315362609296,3312.0,1.44283173590509400848315362609296
92,3386.64503431899077413068966586005691,3385.2,1.44503431899077413068966586005691
93,3460.64721305651935072631613525973765,3459.2,1.44721305651935072631613525973765
94,3535.44936845969269912127035102226000,3534.0,1.44936845969269912127035102226000
95,3611.05150102344445878771662524984348,3609.6,1.45150102344445878771662524984348
96,3687.45361122712332662338253506757844,3686.0,1.45361122712332662338253506757844
97,3764.65569953514083990466230238775852,3763.2,1.45569953514083990466230238775852
98,3842.65776639758583977592804464871587,3841.2,1.45776639758583977592804464871587
99,3921.45981225080765266528225161207218,3920.0,1.45981225080765266528225161207218
100,4001.06183751796988067657231564637432,3999.6,1.46183751796988067657231564637432
101,4081.46384260957656270334412513442125,4080.0,1.46384260957656270334412513442125
102,4162.66582792397234243569658401272100,4161.2,1.46582792397234243569658401272100
103,4244.66779384781817151739402007118700,4243.2,1.46779384781817151739402007118700
104,4327.46974075654396884589332197158584,4326.0,1.46974075654396884589332197158584
105,4411.07166901477956393419058217977598,4409.6,1.47166901477956393419058217977598
106,4495.47357897676516148915955490469212,4494.0,1.47357897676516148915955490469212
107,4580.67547098674248627910678913741630,4579.2,1.47547098674248627910678913741630
108,4666.67734537932768812372190818545619,4665.2,1.47734537932768812372190818545619
109,4753.47920247986701824607784695899525,4752.0,1.47920247986701824607784695899525
110,4841.08104260477622580621882018851927,4839.6,1.48104260477622580621882018851927
111,4929.48286606186455757468556855449450,4928.0,1.48286606186455757468556855449450
112,5018.68467315064419427070362895333606,5017.2,1.48467315064419427070362895333606
113,5108.68646416262590155397533263618004,5107.2,1.48646416262590155397533263618004
114,5199.48823938160162490127146455569682,5198.0,1.48823938160162490127146455569682
115,5291.08999908391471715052480008966032,5289.6,1.48999908391471715052480008966032
116,5383.49174353871843916349175883793527,5382.0,1.49174353871843916349175883793527
117,5476.69347300822334234505047840788221,5475.2,1.49347300822334234505047840788221
118,5570.69518774793410072611131985683276,5569.2,1.49518774793410072611131985683276
119,5665.49688800687632660340887162336867,5664.0,1.49688800687632660340887162336867
120,5761.09857402781387788722225738577503,5759.6,1.49857402781387788722225738577503
121,5857.50024604745712704083856355442965,5856.0,1.50024604745712704083856355442965
122,5954.70190429666264258245152432091577,5953.2,1.50190429666264258245152432091577
123,6052.70354900062470192727057086290980,6051.2,1.50354900062470192727057086290980
124,6151.50518037905903666781696018616756,6150.0,1.50518037905903666781696018616756
125,6251.10679864637918182413574001976338,6249.6,1.50679864637918182413574001976338
126,6351.50840401186578539836603228032679,6350.0,1.50840401186578539836603228032679
127,6452.70999667982921399024041402046047,6451.2,1.50999667982921399024041402046047
128,6554.71157684976576764290798522421866,6553.2,1.51157684976576764290798522421866
129,6657.51314471650780501525157260074279,6656.0,1.51314471650780501525157260074279
130,6761.11470047036806159501601245043030,6759.6,1.51470047036806159501601245043030
131,6865.51624429727842826296280278234890,6864.0,1.51624429727842826296280278234890
132,6970.71777637892344254108072883529639,6969.2,1.51777637892344254108072883529639
133,7076.71929689286873307630992691065661,7075.2,1.51929689286873307630992691065661
134,7183.52080601268464663530005042190352,7182.0,1.52080601268464663530005042190352
135,7291.12230390806526877739190793275987,7289.6,1.52230390806526877739190793275987
136,7399.52379074494304568549947099571943,7398.0,1.52379074494304568549947099571943
137,7508.72526668559920132664497618101144,7507.2,1.52526668559920132664497618101144
138,7618.72673188877013050192263633005837,7617.2,1.52673188877013050192263633005837
139,7729.52818650974994623978175977283744,7728.0,1.52818650974994623978175977283744
140,7841.12963070048934454056968931690165,7839.6,1.52963070048934454056968931690165
141,7953.53106460969094492280111616520267,7952.0,1.53106460969094492280111616520267
142,8066.73248838290125714837587037157989,8065.2,1.53248838290125714837587037157989
143,8180.73390216259941585381580044415410,8179.2,1.53390216259941585381580044415410
144,8295.53530608828281763497356998716080,8294.0,1.53530608828281763497356998716080
145,8411.13670029654979094492906128477002,8409.6,1.53670029654979094492906128477002
146,8527.53808492117942129605965263775945,8526.0,1.53808492117942129605965263775945
147,8644.73946009320864605432370112336342,8643.2,1.53946009320864605432370112336342
148,8762.74082594100673415578681920739579,8761.2,1.54082594100673415578681920739579
149,8881.54218259034725254737056646059517,8880.0,1.54218259034725254737056646059517
150,9001.14353016447762299374379040026633,8999.6,1.54353016447762299374379040026633
151,9121.54486878418636516568433193896639,9120.0,1.54486878418636516568433193896639
152,9242.74619856786811631017034096404358,9241.2,1.54619856786811631017034096404358
153,9364.74751963158651645301553782223675,9363.2,1.54751963158651645301553782223675
154,9487.54883208913504303443128606650913,9486.0,1.54883208913504303443128606650913
155,9611.15013605209587321467707029986322,9609.6,1.55013605209587321467707029986322
156,9735.55143162989685171735842379857824,9734.0,1.55143162989685171735842379857824
157,9860.75271892986663525819509398500084,9859.2,1.55271892986663525819509398500084
158,9986.75399805728808537861260090164760,9985.2,1.55399805728808537861260090164760
159,10113.5552691154499733582659691075417,10112.0,1.5552691154499733582659691075417
160,10241.1565322056970635453441231971798,10239.6,1.5565322056970635453441231971798
161,10369.5577874274786336021088129310247,10368.0,1.5577874274786336021088129310247
162,10498.7590348783954911281384086463580,10497.2,1.5590348783954911281384086463580
163,10628.7602746542455415159720855344818,10627.2,1.5602746542455415159720855344818
164,10759.5615068490679616771834918379503,10758.0,1.5615068490679616771834918379503
165,10891.1627315551860282405640841697706,10889.6,1.5627315551860282405640841697706
166,11023.5639488632486507395038925569594,11022.0,1.5639488632486507395038925569594
167,11156.7651588622706570224233945395728,11155.2,1.5651588622706570224233945395728
168,11290.7663616396718735767410724193247,11289.2,1.5663616396718735767410724193247
169,11425.5675572813150458300720005802478,11424.0,1.5675572813150458300720005802478
170,11561.1687458715426381734209264189006,11559.6,1.5687458715426381734209264189006
171,11697.5699274932125539025115862938171,11696.0,1.5699274932125539025115862938171
172,11834.7711022277328129456365936686961,11833.2,1.5711022277328129456365936686961
173,11972.7722701550952227821209315765724,11971.2,1.5722701550952227821209315765724
174,12111.5734313539080783967221636721852,12110.0,1.5734313539080783967221636721852
175,12251.1745859014279252567485147069491,12249.6,1.5745859014279252567485147069491
176,12391.5757338735904150201425956964573,12390.0,1.5757338735904150201425956964573
177,12532.7768753450402872370081852969742,12531.2,1.5768753450402872370081852969742
178,12674.7780103891605062009610395325778,12673.2,1.5780103891605062009610395325778
179,12817.5791390781005793972855936546928,12816.0,1.5791390781005793972855936546928
180,12961.1802614828040884963786238953114,12959.6,1.5802614828040884963786238953114
181,13105.5813776730354555432000971179792,13104.0,1.5813776730354555432000971179792
182,13250.7824877174059720403015260021558,13249.2,1.5824877174059720403015260021558
183,13396.7835916833991139759459467378715,13395.2,1.5835916833991139759459467378715
184,13543.5846896373951670411467101416272,13542.0,1.5846896373951670411467101416272
185,13691.1857816446951838461017702492021,13689.6,1.5857816446951838461017702492021
186,13839.5868677695442941070446003296309,13838.0,1.5868677695442941070446003296309
187,13988.7879480751543916064796225856957,13987.2,1.5879480751543916064796225856957
188,14138.7890226237262133656423598347291,14137.2,1.5890226237262133656423598347291
189,14289.5900914764708347628608262377126,14288.0,1.5900914764708347628608262377126
190,14441.1911546936305962515467717736730,14439.6,1.5911546936305962515467717736730
191,14593.5922123344994809030851684126074,14592.0,1.5922123344994809030851684126074
192,14746.7932644574429591596088531955101,14745.2,1.5932644574429591596088531955101
193,14900.7943111199173191033570975570794,14899.2,1.5943111199173191033570975570794
194,15055.5953523784884955863265647562381,15054.0,1.5953523784884955863265647562381
195,15211.1963882888504161555694737928443,15209.6,1.5963882888504161555694737928443
196,15367.5974189058428774691102880299652,15366.0,1.5974189058428774691102880299652
197,15524.7984442834689665809526797496668,15523.2,1.5984442834689665809526797496668
198,15682.7994644749120412603841867751147,15681.2,1.5994644749120412603841867751147
199,15841.6004795325522821827455899915983,15840.0,1.6004795325522821827455899915983
200,16001.2014895079828309352582662893458,15999.6,1.6014895079828309352582662893458
201,16161.6024944520255248178106666853533,16160.0,1.6024944520255248178106666853533
202,16322.8034944147462418184294464152066,16321.2,1.6034944147462418184294464152066
203,16484.8044894454698664218156300791519,16483.2,1.6044894454698664218156300791519
204,16647.6054795927948878696105944439530,16646.0,1.6054795927948878696105944439530
205,16811.2064649046076408415964914217522,16809.6,1.6064649046076408415964914217522
206,16975.6074454280962015805271894659543,16974.0,1.6074454280962015805271894659543
207,17140.8084212097639453353136098938721,17139.2,1.6084212097639453353136098938721
208,17306.8093922954427793481746904121387,17305.2,1.6093922954427793481746904121387
209,17473.6103587303060571328978283486812,17472.0,1.6103587303060571328978283486812
210,17641.2113205588811855442364002328488,17639.6,1.6113205588811855442364002328488
211,17809.6122778250619320019444995755586,17808.0,1.6122778250619320019444995755586
212,17978.8132305721204421012355715597609,17977.2,1.6132305721204421012355715597609
213,18148.8141788427189719923425655547704,18147.2,1.6141788427189719923425655547704
214,18319.6151226789213505097720430292038,18318.0,1.6151226789213505097720430292038
215,18491.2160621222041702625260172372565,18489.6,1.6160621222041702625260172372565
216,18663.6169972134677216449191610788619,18662.0,1.6169972134677216449191610788619
217,18836.8179279930466737323437081634701,18835.2,1.6179279930466737323437081634701
218,19010.8188545007205110398850280573343,19009.2,1.6188545007205110398850280573343
219,19185.6197767757237294223253904527233,19184.0,1.6197767757237294223253904527233
220,19361.2206948567558036294127503958874,19359.6,1.6206948567558036294127503958874
221,19537.6216087819909244245932737788426,19536.0,1.6216087819909244245932737788426
222,19714.8225185890875224706408088942919,19713.2,1.6225185890875224706408088942919
223,19892.8234243151975725492477093948064,19891.2,1.6234243151975725492477093948064
224,20071.6243259969756931802797433554858,20070.0,1.6243259969756931802797433554858
225,20251.2252236705880442038208354278733,20249.6,1.6252236705880442038208354278733
226,20431.6261173717210258697070775777204,20430.0,1.6261173717210258697070775777204
227,20612.8270071355897880843483343940325,20611.2,1.6270071355897880843483343940325
228,20794.8278929969465516321803492264889,20793.2,1.6278929969465516321803492264889
229,20977.6287749900887485312313931409271,20976.0,1.6287749900887485312313931409271
230,21161.2296531488669862165879540093256,21159.6,1.6296531488669862165879540093256
231,21345.6305275066928373487829705311138,21344.0,1.6305275066928373487829705311138
232,21530.8313980965464656639959233174512,21529.2,1.6313980965464656639959233174512
233,21716.8322649509840828597687086963843,21715.2,1.6322649509840828597687086963843
234,21903.6331281021452526707291021520888,21902.0,1.6331281021452526707291021520888
235,22091.2339875817600353140935231946368,22089.6,1.6339875817600353140935231946368
236,22279.6348434211559820126353563307913,22278.0,1.6348434211559820126353563307913
237,22468.8356956512649832244185574266930,22467.2,1.6356956512649832244185574266930
238,22658.8365443026299723197475130726354,22657.2,1.6365443026299723197475130726354
