Eigenstate,Energy,Kinetic Energy,Potential Energy
1,0.500000000868638044422894970518797071,0.0,0.500000000868638044422894970518797071
2,1.84623094332127977609049822942152679,1.2,0.64623094332127977609049822942152679
3,3.93633762636130626766430018498665595,3.2,0.73633762636130626766430018498665595
4,6.79966531250940873192112276152700586,6.0,0.79966531250940873192112276152700586
5,10.4480466353890918798135109548980288,9.6,0.8480466353890918798135109548980288
6,14.8870660898829788642696142646494231,14.0,0.8870660898829788642696142646494231
7,20.1197209574914378045404762788601542,19.2,0.9197209574914378045404762788601542
8,26.1477840246265994562345425327116623,25.2,0.9477840246265994562345425327116623
9,32.9723837903177418452193211130517287,32.0,0.9723837903177418452193211130517287
10,40.5942805087305961035792086042254792,39.6,0.9942805087305961035792086042254792
11,49.0140097500205097421798612549040773,48.0,1.0140097500205097421798612549040773
12,58.2319626095050949831333336525709693,57.2,1.0319626095050949831333336525709693
13,68.2484332172626473988128155144823483,67.2,1.0484332172626473988128155144823483
14,79.0636482709887844569599642246501797,78.0,1.0636482709887844569599642246501797
15,90.6777861518109193728823161582969885,89.6,1.0777861518109193728823161582969885
16,103.090989729158888970055439691138392,102.0,1.090989729158888970055439691138392
17,116.303375194226578253480291210334473,115.2,1.103375194226578253480291210334473
18,130.315038310978201844133847333985601,129.2,1.115038310978201844133847333985601
19,145.126058939252339395295476446368543,144.0,1.126058939252339395295476446368543
20,160.736504372395914132215768715469292,159.6,1.136504372395914132215768715469292
21,177.146431843345921684827480975224736,176.0,1.146431843345921684827480975224736
22,194.355890435788194791328809958608531,193.2,1.155890435788194791328809958608531
23,212.364922562093947639399371879781034,211.2,1.164922562093947639399371879781034
24,231.173565120720214300424702443784600,230.0,1.173565120720214300424702443784600
25,250.781850413005788992524527894523358,249.6,1.181850413005788992524527894523358
26,271.189806876978826000473728910336710,270.0,1.189806876978826000473728910336710
27,292.397459680319426475434293328349427,291.2,1.197459680319426475434293328349427
28,314.404831203718688389544992193743840,313.2,1.204831203718688389544992193743840
29,337.211941438080668002969944613174767,336.0,1.211941438080668002969944613174767
30,360.818808313364213564358611188437364,359.6,1.218808313364213564358611188437364
31,385.225447972715693417652588484491488,384.0,1.225447972715693417652588484491488
32,410.431875002465741068891467943781925,409.2,1.231875002465741068891467943781925
33,436.438102626253491937340941870158145,435.2,1.238102626253491937340941870158145
34,463.244142869791240230539826617851689,462.0,1.244142869791240230539826617851689
35,490.850006701443249303349041973356983,489.6,1.250006701443249303349041973356983
36,519.255704152758969972166903466806450,518.0,1.255704152758969972166903466806450
37,548.461244422296836699118143488795382,547.2,1.261244422296836699118143488795382
38,578.466635965444392811904573595519723,577.2,1.266635965444392811904573595519723
39,609.271886572442647270905367352660131,608.0,1.271886572442647270905367352660131
40,640.877003436426744708037732181946033,639.6,1.277003436426744708037732181946033
41,673.281993212978280185430935399868240,672.0,1.281993212978280185430935399868240
42,706.486862072429597518340902008603898,705.2,1.286862072429597518340902008603898
43,740.491615745953923660165447717407865,739.2,1.291615745953923660165447717407865
44,775.296259566307097630635385720341061,774.0,1.296259566307097630635385720341061
45,810.900798503949082898267951198089735,809.6,1.300798503949082898267951198089735
46,847.305237199160315844813368645771962,846.0,1.305237199160315844813368645771962
47,884.509579990674466326513078945058299,883.2,1.309579990674466326513078945058299
48,922.513830941271599982305439254096297,921.2,1.313830941271599982305439254096297
49,961.317993860711069394903700131339321,960.0,1.317993860711069394903700131339321
50,1000.92207232632933849679543459520961,999.6,1.32207232632933849679543459520961
51,1041.32606970158247765060326690212738,1040.0,1.32606970158247765060326690212738
52,1082.52998915277472161886996747415107,1081.2,1.32998915277472161886996747415107
53,1124.53383366418203251976484256595782,1123.2,1.33383366418203251976484256595782
54,1167.33760605175204873378158882438062,1166.0,1.33760605175204873378158882438062
55,1210.94130897553832523404851763906599,1209.6,1.34130897553832523404851763906599
56,1255.34494495100669624284937657324660,1254.0,1.34494495100669624284937657324660
57,1300.54851635933439215196140743011495,1299.2,1.34851635933439215196140743011495
58,1346.55202545680774545828818069642622,1345.2,1.35202545680774545828818069642622
59,1393.35547438341156651916045823822729,1392.0,1.35547438341156651916045823822729
60,1440.95886517069224542418534921017585,1439.6,1.35886517069224542418534921017585
61,1489.36219974896707205323422369503567,1488.0,1.36219974896707205323422369503567
62,1538.56547995394396538528934473849820,1537.2,1.36547995394396538528934473849820
63,1588.56870753280856123409913397484705,1587.2,1.36870753280856123409913397484705
64,1639.37188414982929510694361056242689,1638.0,1.37188414982929510694361056242689
65,1690.97501139152558204312832495970684,1689.6,1.37501139152558204312832495970684
66,1743.37809077143934795006715188124834,1742.0,1.37809077143934795006715188124834
67,1796.58112373454590466380973941428681,1795.2,1.38112373454590466380973941428681
68,1850.58411166133640480038771236475133,1849.2,1.38411166133640480038771236475133
69,1905.38705587160079979397897779142457,1904.0,1.38705587160079979397897779142457
70,1960.98995762793729624997356303732185,1959.6,1.38995762793729624997356303732185
71,2017.39281813901170703768146227078544,2016.0,1.39281813901170703768146227078544
72,2074.59563856258779530541819863873679,2073.2,1.39563856258779530541819863873679
73,2132.59842000834765659471503146601246,2131.2,1.39842000834765659471503146601246
74,2191.40116354051936538225846244920648,2190.0,1.40116354051936538225846244920648
75,2251.00387018032748127750071950043155,2249.6,1.40387018032748127750071950043155
76,2311.40654090828056054757103139090591,2310.0,1.40654090828056054757103139090591
77,2372.60917666630851624317223779597495,2371.2,1.40917666630851624317223779597495
78,2434.61177835976150440144597488831497,2433.2,1.41177835976150440144597488831497
79,2497.41434685928096698229868583310051,2496.0,1.41434685928096698229868583310051
80,2561.01688300255252406955183902105154,2559.6,1.41688300255252406955183902105154
81,2625.41938759594955852734411713308401,2624.0,1.41938759594955852734411713308401
82,2690.62186141607557485221094662293800,2689.2,1.42186141607557485221094662293800
83,2756.62430521121272522805284167914890,2755.2,1.42430521121272522805284167914890
84,2823.42671970268327150008390878251397,2822.0,1.42671970268327150008390878251397
85,2891.02910558613019250829686547557939,2889.6,1.42910558613019250829686547557939
86,2959.43146353272263035622178096458946,2958.0,1.43146353272263035622178096458946
87,3028.63379419029141172063024520493679,3027.2,1.43379419029141172063024520493679
88,3098.63609818439945693077451756689262,3097.2,1.43609818439945693077451756689262
89,3169.43837611935150604430062267518566,3168.0,1.43837611935150604430062267518566
90,3241.04062857914724793098924582622059,3239.6,1.44062857914724793098924582622059
91,3313.44285612838161692417500694673873,3312.0,1.44285612838161692417500694673873
92,3386.64505931309573330295712131513648,3385.2,1.44505931309573330295712131513648
93,3460.64723866158170161406813301717334,3459.2,1.44723866158170161406813301717334
94,3535.44939468514423791438062631261669,3534.0,1.44939468514423791438062631261669
95,3611.05152787882187586188351672776743,3609.6,1.45152787882187586188351672776743
96,3687.45363872207029976174478130550410,3686.0,1.45363872207029976174478130550410
97,3764.65572767941016833292954620353710,3763.2,1.45572767941016833292954620353710
98,3842.65779520104162008750560441546251,3841.2,1.45779520104162008750560441546251
99,3921.45984172342749774361644333069894,3920.0,1.45984172342749774361644333069894
100,4001.06186766984718275372595340140639,3999.6,1.46186766984718275372595340140639
101,4081.46387345092280172668570986075427,4080.0,1.46387345092280172668570986075427
102,4162.66585946511944094858589200547816,4161.2,1.46585946511944094858589200547816
103,4244.66782609922089729491862997503999,4243.2,1.46782609922089729491862997503999
104,4327.46977372878238656309860653917405,4326.0,1.46977372878238656309860653917405
105,4411.07170271856153718189130075639930,4409.6,1.47170271856153718189130075639930
106,4495.47361342292890649138161301341322,4494.0,1.47361342292890649138161301341322
107,4580.67550618625917870652706920806105,4579.2,1.47550618625917870652706920806105
108,4666.67738134330412443921018441522178,4665.2,1.47738134330412443921018441522178
109,4753.47923921954833306164772221708892,4752.0,1.47923921954833306164772221708892
110,4841.08108013154866677542865188047147,4839.6,1.48108013154866677542865188047147
111,4929.48290438725831939084973260057175,4928.0,1.48290438725831939084973260057175
112,5018.68471228633631338924434811510436,5017.2,1.48471228633631338924434811510436
113,5108.68650412044321330693486877119693,5107.2,1.48650412044321330693486877119693
114,5199.48828017352378472347577661943311,5198.0,1.48828017352378472347577661943311
115,5291.09004072207728769022189997120486,5289.6,1.49004072207728769022189997120486
116,5383.49178603541604510555093035780745,5382.0,1.49178603541604510555093035780745
117,5476.69351637591289483207996813365032,5475.2,1.49351637591289483207996813365032
118,5570.69523199923809332222176081502798,5569.2,1.49523199923809332222176081502798
119,5665.49693315458620480689368900685154,5664.0,1.49693315458620480689368900685154
120,5761.09862008489348426224106256644832,5759.6,1.49862008489348426224106256644832
121,5857.50029302704622410436527065615070,5856.0,1.50029302704622410436527065615070
122,5954.70195221208051565138949359823999,5953.2,1.50195221208051565138949359823999
123,6052.70359786537384420183436813515895,6051.2,1.50359786537384420183436813515895
124,6151.50523020682891890115615288645298,6150.0,1.50523020682891890115615288645298
125,6251.10684945105010900482991777134780,6249.6,1.50684945105010900482991777134780
126,6351.50845580751284295198468810359557,6350.0,1.50845580751284295198468810359557
127,6452.71004948072630608874154115875979,6451.2,1.51004948072630608874154115875979
128,6554.71163067038975029639199577804832,6553.2,1.51163067038975029639199577804832
129,6657.51319957154271670962373396989598,6656.0,1.51319957154271670962373396989598
130,6761.11475637470945433156835401825376,6759.6,1.51475637470945433156835401825376
131,6865.51630126603780195194770425390220,6864.0,1.51630126603780195194770425390220
132,6970.71783442743278580113213166835972,6969.2,1.51783442743278580113213166835972
133,7076.71935603668517359525989220247103,7075.2,1.51935603668517359525989220247103
134,7183.52086626759521435571697962785908,7182.0,1.52086626759521435571697962785908
135,7291.12236529009177528219446038316931,7289.6,1.52236529009177528219446038316931
136,7399.52385327034708327546740433554708,7398.0,1.52385327034708327546740433554708
137,7508.72533037088726540278340300652913,7507.2,1.52533037088726540278340300652913
138,7618.72679675069886899160893538030561,7617.2,1.52679675069886899160893538030561
139,7729.52825256533153993668277605103255,7728.0,1.52825256533153993668277605103255
140,7841.12969796699702236467859059467619,7839.6,1.52969796699702236467859059467619
141,7953.53113310466463824885631254069978,7952.0,1.53113310466463824885631254069978
142,8066.73255812415339749864859783193122,8065.2,1.53255812415339749864859783193122
143,8180.73397316822088040504095152087853,8179.2,1.53397316822088040504095152087853
144,8295.53537837664902714935220038869546,8294.0,1.53537837664902714935220038869546
145,8411.13677388632696490193693780966977,8409.6,1.53677388632696490193693780966977
146,8527.53815983133099517556198417842494,8526.0,1.53815983133099517556198417842494
147,8644.73953634300185590257459033545523,8643.2,1.53953634300185590257459033545523
148,8762.74090355001937375458840952429328,8761.2,1.54090355001937375458840952429328
149,8881.54226157847460870339749294646144,8880.0,1.54226157847460870339749294646144
150,9001.14361055193959467013933988716220,8999.6,1.54361055193959467013933988716220
151,9121.54495059153477239195167016717277,9120.0,1.54495059153477239195167016717277
152,9242.74628181599420502951011882186272,9241.2,1.54628181599420502951011882186272
153,9364.74760434172866569907275240757172,9363.2,1.54760434172866569907275240757172
154,9487.54891828288668107237408608129458,9486.0,1.54891828288668107237408608129458
155,9611.15022375141360953514035875933659,9609.6,1.55022375141360953514035875933659
156,9735.55152085710883203659111876338600,9734.0,1.55152085710883203659111876338600
157,9860.75280970768112695426363081988213,9859.2,1.55280970768112695426363081988213
158,9986.75409040880230108240170136172886,9985.2,1.55409040880230108240170136172886
159,10113.5553630641591407198107653735403,10112.0,1.5553630641591407198107653735403
160,10241.1566277755037495114762253402319,10239.6,1.5566277755037495114762253402319
161,10369.5578846427023318711226746589290,10368.0,1.5578846427023318711226746589290
162,10498.7591337637824817919741010471422,10497.2,1.5591337637824817919741010471422
163,10628.7603752349790322609913828718179,10627.2,1.5603752349790322609913828718179
164,10759.5616091507785202918849507311294,10758.0,1.5616091507785202918849507311294
165,10891.1628356039623165733259774187146,10889.6,1.5628356039623165733259774187146
166,11023.5640546856484706626427394628236,11022.0,1.5640546856484706626427394628236
167,11156.7652664853323193914788577873341,11155.2,1.5652664853323193914788577873341
168,11290.7664710909259016269589507202421,11289.2,1.5664710909259016269589507202421
169,11425.5676685887962249266502197159541,11424.0,1.5676685887962249266502197159541
170,11561.1688590638024243294289249061809,11559.6,1.5688590638024243294289249061809
171,11697.5700425993318539996343553568365,11696.0,1.5700425993318539996343553568365
172,11834.7712192773351501394244818922485,11833.2,1.5712192773351501394244818922485
173,11972.7723891783603011465531661979565,11971.2,1.5723891783603011465531661979565
174,12111.5735523815857614641888039818690,12110.0,1.5735523815857614641888039818690
175,12251.1747089648526437404747271799397,12249.6,1.5747089648526437404747271799397
176,12391.5758590046960196683757492103386,12390.0,1.5758590046960196683757492103386
177,12532.7770025763753634636756169200290,12531.2,1.5770025763753634636756169200290
178,12674.7781397539041678679019099913767,12673.2,1.5781397539041678679019099913767
179,12817.5792706100787598905207178237390,12816.0,1.5792706100787598905207178237390
180,12961.1803952165063480453769928635847,12959.6,1.5803952165063480453769928635847
181,13105.5815136436323245799758669775634,13104.0,1.5815136436323245799758669775634
182,13250.7826259607668512868176748663474,13249.2,1.5826259607668512868176748663474
183,13396.7837322361107528863608139786501,13395.2,1.5837322361107528863608139786501
184,13543.5848325367807432125375112113185,13542.0,1.5848325367807432125375112113185
185,13691.1859269288340070504607782196372,13689.6,1.5859269288340070504607782196372
186,13839.5870154772921596916354808397309,13838.0,1.5870154772921596916354808397309
187,13988.7880982461646091623863772192703,13987.2,1.5880982461646091623863772192703
188,14138.7891752984713377791179035371694,14137.2,1.5891752984713377791179035371694
189,14289.5902466962651280446499644181194,14288.0,1.5902466962651280446499644181194
190,14441.1913125006532498897860189485414,14439.6,1.5913125006532498897860189485414
191,14593.5923727718186299100100953093936,14592.0,1.5923727718186299100100953093936
192,14746.7934275690405204857391875215216,14745.2,1.5934275690405204857391875215216
193,14900.7944769507146886800762662238296,14899.2,1.5944769507146886800762662238296
194,15055.5955209743731399340989190118520,15054.0,1.5955209743731399340989190118520
195,15211.1965596967033962661448987370367,15209.6,1.5965596967033962661448987370367
196,15367.5975931735673445420746087385073,15366.0,1.5975931735673445420746087385073
197,15524.7986214600196711743968685148278,15523.2,1.5986214600196711743968685148278
198,15682.7996446103258995093017602342644,15681.2,1.5996446103258995093017602342644
199,15841.6006626779800449545878060612593,15840.0,1.6006626779800449545878060612593
200,16001.2016757157219041378964850623468,15999.6,1.6016757157219041378964850623468
201,16161.6026837755539915597475106440481,16160.0,1.6026837755539915597475106440481
202,16322.8036869087581397537326726209228,16321.2,1.6036869087581397537326726209228
203,16484.8046851659117764029762442569237,16483.2,1.6046851659117764029762442569237
204,16647.6056785969038929912107455471895,16646.0,1.6056785969038929912107455471895
205,16811.2066672509507180978565091937012,16809.6,1.6066672509507180978565091937012
206,16975.6076511766111116931607013472487,16974.0,1.6076511766111116931607013472487
207,17140.8086304218016898480188437468285,17139.2,1.6086304218016898480188437468285
208,17306.8096050338116978452549055008956,17305.2,1.6096050338116978452549055008956
209,17473.6105750593176414376089447499240,17472.0,1.6105750593176414376089447499240
210,17641.2115405443976920044880132287934,17639.6,1.6115405443976920044880132287934
211,17809.6125015345458774953903817871620,17808.0,1.6125015345458774953903817871620
212,17978.8134580746860742083820483332141,17977.2,1.6134580746860742083820483332141
213,18148.8144102091858089165856301511329,18147.2,1.6144102091858089165856301511329
214,18319.6153579818698917905949711266537,18318.0,1.6153579818698917905949711266537
215,18491.2163014360338851576023091474860,18489.6,1.6163014360338851576023091474860
216,18663.6172406144574282759617558166166,18662.0,1.6172406144574282759617558166166
217,18836.8181755594174287279135818055710,18835.2,1.6181755594174287279135818055710
218,19010.8191063127011364981923775284262,19009.2,1.6191063127011364981923775284262
219,19185.6200329156191115934232721377690,19184.0,1.6200329156191115934232721377690
220,19361.2209554090181058170435653765707,19359.6,1.6209554090181058170435653765707
221,19537.6218738332938652748792800923181,19536.0,1.6218738332938652748792800923181
222,19714.8227882284038800927439761195454,19713.2,1.6227882284038800927439761195454
223,19892.8236986338800848513853854944312,19891.2,1.6236986338800848513853854944312
224,20071.6246050888415354565446539558478,20070.0,1.6246050888415354565446539558478
225,20251.2255076320070764316997888931140,20249.6,1.6255076320070764316997888931140
226,20431.6264063017080144389066293273706,20430.0,1.6264063017080144389066293273706
227,20612.8273011359008198443962889503775,20611.2,1.6273011359008198443962889503775
228,20794.8281921721798722957208941032506,20793.2,1.6281921721798722957208941032506
229,20977.6290794477902726857163902509972,20976.0,1.6290794477902726857163902509972
230,21161.2299629996407425708485886212530,21159.6,1.6299629996407425708485886212530
231,21345.6308428643166304735377717477761,21344.0,1.6308428643166304735377717477761
232,21530.8317190780930544871064418298024,21529.2,1.6317190780930544871064418298024
233,21716.8325916769481966695229366288810,21715.2,1.6325916769481966695229366288810
234,21903.6334606965767874971748021759672,21902.0,1.6334606965767874971748021759672
235,22091.2343261724037974465969396244749,22089.6,1.6343261724037974465969396244749
236,22279.6351881395983712335463727742366,22278.0,1.6351881395983712335463727742366
237,22468.8360466330880362728407018491252,22467.2,1.6360466330880362728407018491252
238,22658.8369016875732173434819733162688,22657.2,1.6369016875732173434819733162688
