Eigenstate,Energy,Kinetic Energy,Potential Energy
1,0.500000000017503874703903842410393471,0.0,0.500000000017503874703903842410393471
2,1.84623093776537074378943011805820053,1.2,0.64623093776537074378943011805820053
3,3.93633761004059340243638162739929576,3.2,0.73633761004059340243638162739929576
4,6.79966527851329136132326401311740196,6.0,0.79966527851329136132326401311740196
5,10.4480465764965859337813314633323609,9.6,0.8480465764965859337813314633323609
6,14.8870659987440136442046995993278201,14.0,0.8870659987440136442046995993278201
7,20.1197208266932153532597541826130554,19.2,0.9197208266932153532597541826130554
8,26.1477838467208619650998572113112717,25.2,0.9477838467208619650998572113112717
9,32.9723835578330762871799421005467667,32.0,0.9723835578330762871799421005467667
10,40.5942802141783333814453428839868550,39.6,0.9942802141783333814453428839868550
11,49.0140093858976073399346958175585970,48.0,1.0140093858976073399346958175585970
12,58.2319621682954813408643207500631014,57.2,1.0319621682954813408643207500631014
13,68.2484326914377277011794591506545471,67.2,1.0484326914377277011794591506545471
14,79.0636476530074626449698419610892933,78.0,1.0636476530074626449698419610892933
15,90.6777854341193271100003343995647719,89.6,1.0777854341193271100003343995647719
16,103.090988904189929317948441569993958,102.0,1.090988904189929317948441569993958
17,116.303374254399347586238117258461941,115.2,1.103374254399347586238117258461941
18,130.315037248697328856661925594950920,129.2,1.115037248697328856661925594950920
19,145.126057746907265736781565710714632,144.0,1.126057746907265736781565710714632
20,160.736503042360132581506901451108417,159.6,1.136503042360132581506901451108417
21,177.146430367976182440651893452105848,176.0,1.146430367976182440651893452105848
22,194.355888807423687041607298530445784,193.2,1.155888807423687041607298530445784
23,212.364920773055461344591416887399832,211.2,1.164920773055461344591416887399832
24,231.173563163309285634578263885103427,230.0,1.173563163309285634578263885103427
25,250.781848279503831867407927206181050,249.6,1.181848279503831867407927206181050
26,271.189804559646251389645299998840079,270.0,1.189804559646251389645299998840079
27,292.397457171394750753491015096525905,291.2,1.197457171394750753491015096525905
28,314.404828495417631540893467170499117,313.2,1.204828495417631540893467170499117
29,337.211938522595242290854770853777659,336.0,1.211938522595242290854770853777659
30,360.818805182861803055565303970822715,359.6,1.218805182861803055565303970822715
31,385.225444619338124611588874721088520,384.0,1.225444619338124611588874721088520
32,410.431871418328344768078062550018488,409.2,1.231871418328344768078062550018488
33,436.438098803444156410228018249487573,435.2,1.238098803444156410228018249487573
34,463.244138800369455650295882520838201,462.0,1.244138800369455650295882520838201
35,490.850002377439143393030758000836786,489.6,1.250002377439143393030758000836786
36,519.255699566172334743985033903784691,518.0,1.255699566172334743985033903784691
37,548.461239565096146140803658511540409,547.2,1.261239565096146140803658511540409
38,578.466630829565811344562360603565803,577.2,1.266630829565811344562360603565803
39,609.271881149789028778801371336181282,608.0,1.271881149789028778801371336181282
40,640.876997718866621920431682637485373,639.6,1.276997718866621920431682637485373
41,673.281987192344844173031417979352048,672.0,1.281987192344844173031417979352048
42,706.486855740519667051594689590930682,705.2,1.286855740519667051594689590930682
43,740.491609094526904162920242341169503,739.2,1.291609094526904162920242341169503
44,775.296252587083929450357197731128907,774.0,1.296252587083929450357197731128907
45,810.900791188611178602656616892186643,809.6,1.300791188611178602656616892186643
46,847.305229539348486244107949833407305,846.0,1.305229539348486244107949833407305
47,884.509571977987834910827989157640909,883.2,1.309571977987834910827989157640909
48,922.513822567266505453838640664455569,921.2,1.313822567266505453838640664455569
49,961.317985116899955965687489639413019,960.0,1.317985116899955965687489639413019
50,1000.92206320417963361372378055086724,999.6,1.32206320417963361372378055086724
51,1041.32606019251545680067994085724173,1040.0,1.32606019251545680067994085724173
52,1082.52997924816435985891782731760253,1081.2,1.32997924816435985891782731760253
53,1124.53382335535384236615996925533784,1123.2,1.33382335535384236615996925533784
54,1167.33759532998190403907596836917009,1166.0,1.33759532998190403907596836917009
55,1210.94129783205127066858748579447705,1209.6,1.34129783205127066858748579447705
56,1255.34493337697574199063443238022424,1254.0,1.34493337697574199063443238022424
57,1300.54850434587929342102968911322666,1299.2,1.34850434587929342102968911322666
58,1346.55201299499376639674191527877658,1345.2,1.35201299499376639674191527877658
59,1393.35546146424822811867360154539293,1392.0,1.35546146424822811867360154539293
60,1440.95885178513205698330160378287981,1439.6,1.35885178513205698330160378287981
61,1489.36218588790424576304484740555875,1488.0,1.36218588790424576304484740555875
62,1538.56546560821311359011217425421200,1537.2,1.36546560821311359011217425421200
63,1588.56869269318337590956425153063173,1587.2,1.36869269318337590956425153063173
64,1639.37186880702120908740270406003085,1638.0,1.37186880702120908740270406003085
65,1690.97499553618241151952790559473372,1689.6,1.37499553618241151952790559473372
66,1743.37807439414391574835380548674246,1742.0,1.37807439414391574835380548674246
67,1796.58110682581464380254318119124146,1795.2,1.38110682581464380254318119124146
68,1850.58409421161794181451890974668576,1849.2,1.38409421161794181451890974668576
69,1905.38703787127451729968066658678565,1904.0,1.38703787127451729968066658678565
70,1960.98993906731187421299307046753874,1959.6,1.38993906731187421299307046753874
71,2017.39279900832364219488052354767333,2016.0,1.39279900832364219488052354767333
72,2074.59561885199989817598470401169123,2073.2,1.39561885199989817598470401169123
73,2132.59839970794752550393743555397642,2131.2,1.39839970794752550393743555397642
74,2191.40114264031783690674925848358377,2190.0,1.40114264031783690674925848358377
75,2251.00384867025705650631124904104594,2249.6,1.40384867025705650631124904104594
76,2311.40651877819380653875261724913569,2310.0,1.40651877819380653875261724913569
77,2372.60915390597644203997871122427357,2371.2,1.40915390597644203997871122427357
78,2434.61175495887191095653399822262386,2433.2,1.41175495887191095653399822262386
79,2497.41432280743677032194250621522150,2496.0,1.41432280743677032194250621522150
80,2561.01685828927005101303388435976265,2559.6,1.41685828927005101303388435976265
81,2625.41936221065681425928670772137009,2624.0,1.41936221065681425928670772137009
82,2690.62183534811048162766724848217594,2689.2,1.42183534811048162766724848217594
83,2756.62427844982133147165232245736240,2755.2,1.42427844982133147165232245736240
84,2823.42669223701793054140875568061721,2822.0,1.42669223701793054140875568061721
85,2891.02907740524771017592838006571188,2889.6,1.42907740524771017592838006571188
86,2959.43143462558238063252820138076346,2958.0,1.43143462558238063252820138076346
87,3028.63376454575341963832551273794999,3027.2,1.43376454575341963832551273794999
88,3098.63606779122244787056209870743229,3097.2,1.43606779122244787056209870743229
89,3169.43834496619092057049017748636571,3168.0,1.43834496619092057049017748636571
90,3241.04059665455322127880347058780361,3239.6,1.44059665455322127880347058780361
91,3313.44282342079692222854612679571085,3312.0,1.44282342079692222854612679571085
92,3386.64502581085368763389309998495145,3385.2,1.44502581085368763389309998495145
93,3460.64720435290403385813997250433618,3459.2,1.44720435290403385813997250433618
94,3535.44935955813891751550211784238622,3534.0,1.44935955813891751550211784238622
95,3611.05149192148090140729408333979898,3609.6,1.45149192148090140729408333979898
96,3687.45360192226744637094369000390482,3686.0,1.45360192226744637094369000390482
97,3764.65569002489869277818569158809289,3763.2,1.45569002489869277818569158809289
98,3842.65775667945192254448518643128675,3841.2,1.45775667945192254448518643128675
99,3921.45980232226473903955181636622351,3920.0,1.45980232226473903955181636622351
100,4001.06182737648885594838974608700869,3999.6,1.46182737648885594838974608700869
101,4081.46383225261625682817392038454243,4080.0,1.46383225261625682817392038454243
102,4162.66581734897936153152203239972299,4161.2,1.46581734897936153152203239972299
103,4244.66778305222672775311876129419482,4243.2,1.46778305222672775311876129419482
104,4327.46972973777570869193840805561941,4326.0,1.46972973777570869193840805561941
105,4411.07165777024339474755517996092531,4409.6,1.47165777024339474755517996092531
106,4495.47356750385707640478666065644318,4494.0,1.47356750385707640478666065644318
107,4580.67545928284538737896057629745814,4579.2,1.47545928284538737896057629745814
108,4666.67733344181120785454059784569638,4665.2,1.47733344181120785454059784569638
109,4753.47919030608733905631275209347130,4752.0,1.47919030608733905631275209347130
110,4841.08103019207589797220895488822338,4839.6,1.48103019207589797220895488822338
111,4929.48285340757231518564566033790856,4928.0,1.48285340757231518564566033790856
112,5018.68466025207476934162214003506987,5017.2,1.48466025207476934162214003506987
113,5108.68645101707983623502884484350901,5107.2,1.48645101707983623502884484350901
114,5199.48822598636508175185994168355427,5198.0,1.48822598636508175185994168355427
115,5291.08998543625928744552156375670918,5289.6,1.48998543625928744552156375670918
116,5383.49172963590094919877908466951370,5382.0,1.49172963590094919877908466951370
117,5476.69345884748565770887996044169886,5475.2,1.49345884748565770887996044169886
118,5570.69517332650292850228311913776256,5569.2,1.49517332650292850228311913776256
119,5665.49687332196301547170957238731409,5664.0,1.49687332196301547170957238731409
120,5761.09855907661421608599394648358850,5759.6,1.49855907661421608599394648358850
121,5857.50023082715113815597241329873020,5856.0,1.50023082715113815597241329873020
122,5954.70188880441437912650968500963644,5953.2,1.50188880441437912650968500963644
123,6052.70353323358203667183577552977465,6051.2,1.50353323358203667183577552977465
124,6151.50516433435345169155453981370346,6150.0,1.50516433435345169155453981370346
125,6251.10678232112555523842291525044738,6249.6,1.50678232112555523842291525044738
126,6351.50838740316217571170222010836663,6350.0,1.50838740316217571170222010836663
127,6452.70997978475664207199646411571932,6451.2,1.50997978475664207199646411571932
128,6554.71155966538799624630274879956715,6553.2,1.51155966538799624630274879956715
129,6657.51312723987111581876071713185707,6656.0,1.51312723987111581876071713185707
130,6761.11468269850102972072075287820404,6759.6,1.51468269850102972072075287820404
131,6865.51622622719169422963255330183138,6864.0,1.51622622719169422963255330183138
132,6970.71775800760948160905487439652533,6969.2,1.51775800760948160905487439652533
133,7076.71927821730162194050336215223628,7075.2,1.51927821730162194050336215223628
134,7183.52078702981982742189443290887087,7182.0,1.52078702981982742189443290887087
135,7291.12228461483931029900074610883715,7289.6,1.52228461483931029900074610883715
136,7399.52377113827340190880343631071582,7398.0,1.52377113827340190880343631071582
137,7508.72524676238396700568265376249623,7507.2,1.52524676238396700568265376249623
138,7618.72671164588779392939740292555903,7617.2,1.52671164588779392939740292555903
139,7729.52816594405913906790001881237927,7728.0,1.52816594405913906790001881237927
140,7841.12960980882858862206238287712163,7839.6,1.52960980882858862206238287712163
141,7953.53104338887839612190100995910638,7952.0,1.53104338887839612190100995910638
142,8066.73246682973444607062102411316388,8065.2,1.53246682973444607062102411316388
143,8180.73388027385498544262983940630240,8179.2,1.53388027385498544262983940630240
144,8295.53528386071625758203424556508774,8294.0,1.53528386071625758203424556508774
145,8411.13667772689516886037565092487810,8409.6,1.53667772689516886037565092487810
146,8527.53806200614911058360718188774988,8526.0,1.53806200614911058360718188774988
147,8644.73943682949305043535041106328899,8643.2,1.53943682949305043535041106328899
148,8762.74080232527400878543613100783732,8761.2,1.54080232527400878543613100783732
149,8881.54215861924302166465927289032211,8880.0,1.54215861924302166465927289032211
150,9001.14350583462469404660093863790208,8999.6,1.54350583462469404660093863790208
151,9121.54484409218443935074668608181156,9120.0,1.54484409218443935074668608181156
152,9242.74617351029349546604557945204046,9241.2,1.54617351029349546604557945204046
153,9364.74749420499180624457784378038438,9363.2,1.54749420499180624457784378038438
154,9487.54880629004885236454698603118417,9486.0,1.54880629004885236454698603118417
155,9611.15010987702250979856243114364620,9609.6,1.55010987702250979856243114364620
156,9735.55140507531601375354867163177911,9734.0,1.55140507531601375354867163177911
157,9860.75269199223309912885693650942644,9859.2,1.55269199223309912885693650942644
158,9986.75397073303138931065280283430744,9985.2,1.55397073303138931065280283430744
159,10113.5552414009740969753852934857370,10112.0,1.5552414009740969753852934857370
160,10241.1565040973801032398472062629263,10239.6,1.5565040973801032398472062629263
161,10369.5577589216724736539176893087214,10368.0,1.5577589216724736539176893087214
162,10498.7590059714254704970585015315818,10497.2,1.5590059714254704970585015315818
163,10628.7602453424101162318333389968032,10627.2,1.5602453424101162318333389968032
164,10759.5614771286383627510151940613566,10758.0,1.5614771286383627510151940613566
165,10891.1627014224059150184694662378131,10889.6,1.5627014224059150184694662378131
166,11023.5639183143337596193715692700599,11022.0,1.5639183143337596193715692700599
167,11156.7651278934084454520484967568408,11155.2,1.5651278934084454520484967568408
168,11290.7663302470211592503278631825836,11289.2,1.5663302470211592503278631825836
169,11425.5675254610056409984550284182531,11424.0,1.5675254610056409984550284182531
170,11561.1687136196749789816639608854949,11559.6,1.5687136196749789816639608854949
171,11697.5698948058573246668326363373013,11696.0,1.5698948058573246668326363373013
172,11834.7710691009305652798508394245257,11833.2,1.5710691009305652798508394245257
173,11972.7722365848559894820010606656645,11971.2,1.5722365848559894820010606656645
174,12111.5733973362109819888364287872794,12110.0,1.5733973362109819888364287872794
175,12251.1745514322207811164585606839988,12249.6,1.5745514322207811164585606839988
176,12391.5756989487893289615180897577594,12390.0,1.5756989487893289615180897577594
177,12532.7768399605292474754451516757104,12531.2,1.5768399605292474754451516757104
178,12674.7779745407909695872759201997167,12673.2,1.5779745407909695872759201997167
179,12817.5791027616910518199907668534764,12816.0,1.5791027616910518199907668534764
180,12961.1802246941396993467328037011776,12959.6,1.5802246941396993467328037011776
181,13105.5813404078675261354626866013483,13104.0,1.5813404078675261354626866013483
182,13250.7824499714515778774047720475506,13249.2,1.5824499714515778774047720475506
183,13396.7835534523406407485282624540060,13395.2,1.5835534523406407485282624540060
184,13543.5846509168798602455689795369922,13542.0,1.5846509168798602455689795369922
185,13691.1857424303346919046846259934360,13689.6,1.5857424303346919046846259934360
186,13839.5868280569142048713323527842851,13838.0,1.5868280569142048713323527842851
187,13988.7879078597937621218353262039860,13987.2,1.5879078597937621218353262039860
188,14138.7889819011370927729220304534579,14137.2,1.5889819011370927729220304534579
189,14289.5900502421177802102949845014075,14288.0,1.5900502421177802102949845014075
190,14441.1911129429401816872725956074611,14439.6,1.5911129429401816872725956074611
191,14593.5921700628597986160215598363355,14592.0,1.5921700628597986160215598363355
192,14746.7932216602031139335476658580141,14745.2,1.5932216602031139335476658580141
193,14900.7942677923869148462572949405942,14899.2,1.5942677923869148462572949405942
194,15055.5953085159371142938358988866362,15054.0,1.5953085159371142938358988866362
195,15211.1963438865070890647653078558957,15209.6,1.5963438865070890647653078558957
196,15367.5973739588955482553423058057584,15366.0,1.5973739588955482553423058057584
197,15524.7983987870639464474815526999508,15523.2,1.5983987870639464474815526999508
198,15682.7994184241534557672437098633632,15681.2,1.5994184241534557672437098633632
199,15841.6004329225015096579040811151409,15840.0,1.6004329225015096579040811151409
200,16001.2014423336579323077224680909611,15999.6,1.6014423336579323077224680909611
201,16161.6024467084006647087928378585657,16160.0,1.6024467084006647087928378585657
202,16322.8034460967511007230838619826747,16321.2,1.6034460967511007230838619826747
203,16484.8044405479890438103520961689159,16483.2,1.6044405479890438103520961689159
204,16647.6054301106672960327890823433833,16646.0,1.6054301106672960327890823433833
205,16811.2064148326258893017141185642093,16809.6,1.6064148326258893017141185642093
206,16975.6073947610059718850093752207093,16974.0,1.6073947610059718850093752207093
207,17140.8083699422633560459225660915062,17139.2,1.6083699422633560459225660915062
208,17306.8093404221817410346415465784883,17305.2,1.6093404221817410346415465784883
209,17473.6103062458856171754681515921274,17472.0,1.6103062458856171754681515921274
210,17641.2112674578528625451900522027637,17639.6,1.6112674578528625451900522027637
211,17809.6122241019270396016067282020822,17808.0,1.6122241019270396016067282020822
212,17978.8131762213294019893314189037270,17977.2,1.6131762213294019893314189037270
213,18148.8141238586706159007566422516918,18147.2,1.6141238586706159007566422516918
214,18319.6150670559622109678666036649046,18318.0,1.6150670559622109678666036649046
215,18491.2160058546277598911208042724613,18489.6,1.6160058546277598911208042724613
216,18663.6169402955138007598591147031845,18662.0,1.6169402955138007598591147031845
217,18836.8178704189005060232633926300541,18835.2,1.6178704189005060232633926300541
218,19010.8187962645121070843182499967871,19009.2,1.6187962645121070843182499967871
219,19185.6197178715270777896995147243919,19184.0,1.6197178715270777896995147243919
220,19361.2206352785880893237106707992986,19359.6,1.6206352785880893237106707992986
221,19537.6215485238117344085494772117109,19536.0,1.6215485238117344085494772117109
222,19714.8224576447980380082625694189596,19713.2,1.6224576447980380082625694189596
223,19892.8233626786397480972113014600453,19891.2,1.6233626786397480972113014600453
224,20071.6242636619314215523392072560168,20070.0,1.6242636619314215523392072560168
225,20251.2251606307783077257754657987844,20249.6,1.6251606307783077257754657987844
226,20431.6260536208050332357070899641040,20430.0,1.6260536208050332357070899641040
227,20612.8269426671640966183581280204462,20611.2,1.6269426671640966183581280204462
228,20794.8278278045441746512668779755569,20793.2,1.6278278045441746512668779755569
229,20977.6287090671782474999961046935187,20976.0,1.6287090671782474999961046935187
230,21161.2295864888515473745043028413367,21159.6,1.6295864888515473745043028413367
231,21345.6304601029093324844320661017314,21344.0,1.6304601029093324844320661017314
232,21530.8313299422644967022077974493704,21529.2,1.6313299422644967022077974493704
233,21716.8321960394050099194605511734738,21715.2,1.6321960394050099194605511734738
234,21903.6330584264012052427891162403397,21902.0,1.6330584264012052427891162403397
235,22091.2339171349129061999703603756524,22089.6,1.6339171349129061999703603756524
236,22279.6347721961964036553579850762482,22278.0,1.6347721961964036553579850762482
237,22468.8356236411112860545812622405632,22467.2,1.6356236411112860545812622405632
238,22658.8364715001271247295370515372222,22657.2,1.6364715001271247295370515372222
