Eigenstate,Energy,Kinetic Energy,Potential Energy
1,0.500000000232625159339420263006688055,0.0,0.500000000232625159339420263006688055
2,1.84623093916958273678472553143490200,1.2,0.64623093916958273678472553143490200
3,3.93633761416540917452589441981776723,3.2,0.73633761416540917452589441981776723
4,6.79966528710497242697236942510419276,6.0,0.79966528710497242697236942510419276
5,10.4480465913794906501385671395102195,9.6,0.8480465913794906501385671395102195
6,14.8870660217746538612179345242673494,14.0,0.8870660217746538612179345242673494
7,20.1197208597433628443291142536414197,19.2,0.9197208597433628443291142536414197
8,26.1477838916705349217217381033122875,25.2,0.9477838916705349217217381033122875
9,32.9723836165673072741005004618798068,32.0,0.9723836165673072741005004618798068
10,40.5942802885855558934860186652624666,39.6,0.9942802885855558934860186652624666
11,49.0140094778688043690826761906798713,48.0,1.0140094778688043690826761906798713
12,58.2319622797237222990479250748167642,57.2,1.0319622797237222990479250748167642
13,68.2484328242179168127606583151267178,67.2,1.0484328242179168127606583151267178
14,79.0636478090362090885360630730708850,78.0,1.0636478090362090885360630730708850
15,90.6777856152948886580907824067211300,89.6,1.0777856152948886580907824067211300
16,103.090989112412202194178681089436735,102.0,1.090989112412202194178681089436735
17,116.303374491569886436554445688173891,115.2,1.103374491569886436554445688173891
18,130.315037516719386966805033759578726,129.2,1.115037516719386966805033759578726
19,145.126058047685849247944219109534634,144.0,1.126058047685849247944219109534634
20,160.736503377802064632747802642859128,159.6,1.136503377802064632747802642859128
21,177.146430739990174516700514286797558,176.0,1.146430739990174516700514286797558
22,194.355889217920415665654106605347138,193.2,1.155889217920415665654106605347138
23,212.364921223947648818525733159951752,211.2,1.164921223947648818525733159951752
24,231.173563656511783905459718894543521,230.0,1.173563656511783905459718894543521
25,250.781848816933708855719266841405236,249.6,1.181848816933708855719266841405236
26,271.189805143222879293323402791681836,270.0,1.189805143222879293323402791681836
27,292.397457803039895967863768677520608,291.2,1.197457803039895967863768677520608
28,314.404829177055545925190340407080951,313.2,1.204829177055545925190340407080951
29,337.211939256152755577882537685265270,336.0,1.211939256152755577882537685265270
30,360.818805970268416249775406579057314,359.6,1.218805970268416249775406579057314
31,385.225445462526104257083479354739416,384.0,1.225445462526104257083479354739416
32,410.431872319232817995535072971284656,409.2,1.231872319232817995535072971284656
33,436.438099764003206692666772445090634,435.2,1.238099764003206692666772445090634
34,463.244139822524219213750483003793310,462.0,1.244139822524219213750483003793310
35,490.850003463133906240762665068392723,489.6,1.250003463133906240762665068392723
36,519.255700717354630262731046921618570,518.0,1.255700717354630262731046921618570
37,548.461240783716853265366183528753434,547.2,1.261240783716853265366183528753434
38,578.466632117579253263282367668129246,577.2,1.266632117579253263282367668129246
39,609.271882509153072167468323707984229,608.0,1.271882509153072167468323707984229
40,640.876999151542776696247463306622486,639.6,1.276999151542776696247463306622486
41,673.281988700298363763561081980899815,672.0,1.281988700298363763561081980899815
42,706.486857325719649176362569083008078,705.2,1.286857325719649176362569083008078
43,740.491610758946392127566246092101948,739.2,1.291610758946392127566246092101948
44,775.296254332700013955148346447667226,774.0,1.296254332700013955148346447667226
45,810.900793017405100068727273224440460,809.6,1.300793017405100068727273224440460
46,847.305231453305737662136164552330893,846.0,1.305231453305737662136164552330893
47,884.509573979098265217990375529151318,883.2,1.309573979098265217990375529151318
48,922.513824657524423445859714454985546,921.2,1.313824657524423445859714454985546
49,961.317987298304234751639487740554154,960.0,1.317987298304234751639487740554154
50,1000.92206547873381562196395652117554,999.6,1.32206547873381562196395652117554
51,1041.32606256222785934495347349239201,1040.0,1.32606256222785934495347349239201
52,1082.52998171504818127422034081058923,1081.2,1.32998171504818127422034081058923
53,1124.53382592142726872445774977467746,1123.2,1.33382592142726872445774977467746
54,1167.33759799726821645543470109880408,1166.0,1.33759799726821645543470109880408
55,1210.94130060257895320866960453623359,1209.6,1.34130060257895320866960453623359
56,1255.34493625277859019089897843580174,1254.0,1.34493625277859019089897843580174
57,1300.54850732899652343331177528715029,1299.2,1.34850732899652343331177528715029
58,1346.55201608747012476920830309587993,1345.2,1.35201608747012476920830309587993
59,1393.35546466813410222544765154315743,1392.0,1.35546466813410222544765154315743
60,1440.95885510248358611533163378576259,1439.6,1.35885510248358611533163378576259
61,1489.36218932078343289305552582163682,1488.0,1.36218932078343289305552582163682
62,1538.56546915868793782473271036026938,1537.2,1.36546915868793782473271036026938
63,1588.56869636332790564197070681486926,1587.2,1.36869636332790564197070681486926
64,1639.37187259891571586404759769072470,1638.0,1.37187259891571586404759769072470
65,1690.97499945191348463476023946785766,1689.6,1.37499945191348463476023946785766
66,1743.37807843580457758095640288940057,1742.0,1.37807843580457758095640288940057
67,1796.58111099550446590843475279385302,1795.2,1.38111099550446590843475279385302
68,1850.58409851144316179008508618605720,1849.2,1.38409851144316179008508618605720
69,1905.38704230334815643041459481383438,1904.0,1.38704230334815643041459481383438
70,1960.98994363375385592233814659298142,1959.6,1.38994363375385592233814659298142
71,2017.39280371126091130838296975098619,2016.0,1.39280371126091130838296975098619
72,2074.59562369356654101607476104501661,2073.2,1.39562369356654101607476104501661
73,2132.59840469028489083087322923211757,2131.2,1.39840469028489083087322923211757
74,2191.40114776557465772147036296056062,2190.0,1.40114776557465772147036296056062
75,2251.00385394058957273116565358978370,2249.6,1.40385394058957273116565358978370
76,2311.40652419576588859227722815485751,2310.0,1.40652419576588859227722815485751
77,2372.60915947295971532213364376791142,2371.2,1.40915947295971532213364376791142
78,2434.61176067744588126101236760213553,2433.2,1.41176067744588126101236760213553
79,2497.41432867978895019240210081467508,2496.0,1.41432867978895019240210081467508
80,2561.01686431759608706032350443101953,2559.6,1.41686431759608706032350443101953
81,2625.41936839716061545697133466660255,2624.0,1.41936839716061545697133466660255
82,2690.62184169500434860338925708934795,2689.2,1.42184169500434860338925708934795
83,2756.62428495932608681210332362840783,2755.2,1.42428495932608681210332362840783
84,2823.42669891136305012892782400584187,2822.0,1.42669891136305012892782400584187
85,2891.02908424667145557498725128689356,2889.6,1.42908424667145557498725128689356
86,2959.43144163633193254461272767158426,2958.0,1.43144163633193254461272767158426
87,3028.63377172808501244397680240257853,3027.2,1.43377172808501244397680240257853
88,3098.63607514740150527759780651887016,3097.2,1.43607514740150527759780651887016
89,3169.43835249849219238768906606069631,3168.0,1.43835249849219238768906606069631
90,3241.04060436526092133460337955886188,3239.6,1.44060436526092133460337955886188
91,3313.44283131220486745457784795065082,3312.0,1.44283131220486745457784795065082
92,3386.64503388526543833344930492725870,3385.2,1.44503388526543833344930492725870
93,3460.64721261263303517996110009855077,3459.2,1.44721261263303517996110009855077
94,3535.44936800550864215354846241839488,3534.0,1.44936800550864215354846241839488
95,3611.05150055882499354746682846524291,3609.6,1.45150055882499354746682846524291
96,3687.45361075192986690601568453654914,3686.0,1.45361075192986690601568453654914
97,3764.65569904923386581250869635666627,3763.2,1.45569904923386581250869635666627
98,3842.65776590082488321034902714200217,3841.2,1.45776590082488321034902714200217
99,3921.45981174305128264738928006687494,3920.0,1.45981174305128264738928006687494
100,4001.06183699907568849334225362187631,3999.6,1.46183699907568849334225362187631
101,4081.46384207940114687586329811147321,4080.0,1.46384207940114687586329811147321
102,4162.66582738237129350620885108604834,4161.2,1.46582738237129350620885108604834
103,4244.66779329464605665176946038849372,4243.2,1.46779329464605665176946038849372
104,4327.46974019165431624807395254290802,4326.0,1.46974019165431624807395254290802
105,4411.07166843802484706910882050378113,4409.6,1.47166843802484706910882050378113
106,4495.47357838799678311056164629564629,4494.0,1.47357838799678311056164629564629
107,4580.67547038581076225864992731112276,4579.2,1.47547038581076225864992731112276
108,4666.67734476608183107764798429621436,4665.2,1.47734476608183107764798429621436
109,4753.47920185415512095569970026662090,4752.0,1.47920185415512095569970026662090
110,4841.08104196644524442838634250168814,4839.6,1.48104196644524442838634250168814
111,4929.48286541076029463832888950308772,4928.0,1.48286541076029463832888950308772
112,5018.68467248661128145547905967077365,5017.2,1.48467248661128145547905967077365
113,5108.68646348550778224696599287424880,5107.2,1.48646348550778224696599287424880
114,5199.48823869124053652761990467225506,5198.0,1.48823869124053652761990467225506
115,5291.08999838015167327379819915934986,5289.6,1.48999838015167327379819915934986
116,5383.49174282139321135150142409982355,5382.0,1.49174282139321135150142409982355
117,5476.69347227717444179676741549769193,5475.2,1.49347227717444179676741549769193
118,5570.69518700299875965523757554165552,5569.2,1.49518700299875965523757554165552
119,5665.49688724789047937407995321608826,5664.0,1.49688724789047937407995321608826
120,5761.09857325461214189723067749209194,5759.6,1.49857325461214189723067749209194
121,5857.50024525987278334767967471020984,5856.0,1.50024525987278334767967471020984
122,5954.70190349452761626740408580947071,5953.2,1.50190349452761626740408580947071
123,6052.70354818376954219263115785689430,6051.2,1.50354818376954219263115785689430
124,6151.50517954731289666231437206267593,6150.0,1.50517954731289666231437206267593
125,6251.10679779956979819145422900055591,6249.6,1.50679779956979819145422900055591
126,6351.50840314981945754360853120032185,6350.0,1.50840314981945754360853120032185
127,6452.70999580237078305906123562225461,6451.2,1.50999580237078305906123562225461
128,6554.71157595671859520794161950541056,6553.2,1.51157595671859520794161950541056
129,6657.51314380769375146435897406328695,6656.0,1.51314380769375146435897406328695
130,6761.11469954560746421576074667016573,6759.6,1.51469954560746421576074667016573
131,6865.51624335639007901761970227177897,6864.0,1.51624335639007901761970227177897
132,6970.71777542172456552636579876320382,6969.2,1.51777542172456552636579876320382
133,7076.71929591917496166190494274734410,7075.2,1.51929591917496166190494274734410
134,7183.52080502231000027512611713005290,7182.0,1.52080502231000027512611713005290
135,7291.12230290082212948746492132171460,7289.6,1.52230290082212948746492132171460
136,7399.52378972064213418207652161886809,7398.0,1.52378972064213418207652161886809
137,7508.72526564404955281824298165916621,7507.2,1.52526564404955281824298165916621
138,7618.72673082977907012866027273109566,7617.2,1.52673082977907012866027273109566
139,7729.52818543312306415336270822116072,7728.0,1.52818543312306415336270822116072
140,7841.12962960603047061808831911680446,7839.6,1.52962960603047061808831911680446
141,7953.53106349720212310741157700845226,7952.0,1.53106349720212310741157700845226
142,8066.73248725218271940972334020114340,8065.2,1.53248725218271940972334020114340
143,8180.73390101344955576098067818359585,8179.2,1.53390101344955576098067818359585
144,8295.53530492049816353453072080323792,8294.0,1.53530492049816353453072080323792
145,8411.13669910992497873656865676224302,8409.6,1.53669910992497873656865676224302
146,8527.53808371550716679806007940929198,8526.0,1.53808371550716679806007940929198
147,8644.73945886827971695100492136133912,8643.2,1.53945886827971695100492136133912
148,8762.74082469660992151890745320225691,8761.2,1.54082469660992151890745320225691
149,8881.54218132626934192326266690096355,8880.0,1.54218132626934192326266690096355
150,9001.14352888050336504780565748973016,8999.6,1.54352888050336504780565748973016
151,9121.54486748009844587567419328308441,9120.0,1.54486748009844587567419328308441
152,9242.74619724344712669956150690682357,9241.2,1.54619724344712669956150690682357
153,9364.74751828661092185548728919079714,9363.2,1.54751828661092185548728919079714
154,9487.54883072338115188037823567913982,9486.0,1.54883072338115188037823567913982
155,9611.15013466533780533042418849843430,9609.6,1.55013466533780533042418849843430
156,9735.55143022190650612756797020419994,9734.0,1.55143022190650612756797020419994
157,9860.75271750041365748174608726012187,9859.2,1.55271750041365748174608726012187
158,9986.75399660613983420802210060898289,9985.2,1.55399660613983420802210060898289
159,10113.5552676423714871125064538144722,10112.0,1.5552676423714871125064538144722
160,10241.1565307104510257856877344286274,10239.6,1.5565307104510257856877344286274
161,10369.5577859098253383004043385856075,10368.0,1.5577859098253383004043385856075
162,10498.7590333380928072766925107654523,10497.2,1.5590333380928072766925107654523
163,10628.7602730910488771679678544460524,10627.2,1.5602730910488771679678544460524
164,10759.5615052627302274063246405560058,10758.0,1.5615052627302274063246405560058
165,10891.1627299454576000083825240344286,10889.6,1.5627299454576000083825240344286
166,11023.5639472298773321585105420293258,11022.0,1.5639472298773321585105420293258
167,11156.7651572050016410030179451685625,11155.2,1.5651572050016410030179451685625
168,11290.7663599582477033455265091357787,11289.2,1.5663599582477033455265091357787
169,11425.5675555754755753069408079300469,11424.0,1.5675555754755753069408079300469
170,11561.1687441410249916944961720907746,11559.6,1.5687441410249916944961720907746
171,11697.5699257377510852757335770406799,11696.0,1.5699257377510852757335770406799
172,11834.7711004470590638254855306137808,11833.2,1.5711004470590638254855306137808
173,11972.7722683489378803496590197844751,11971.2,1.5722683489378803496590197844751
174,12111.5734295219929323308229676896943,12110.0,1.5734295219929323308229676896943
175,12251.1745840434778239820574718698312,12249.6,1.5745840434778239820574718698312
176,12391.5757319893252212169804963682427,12390.0,1.5757319893252212169804963682427
177,12532.7768734341768325980880467243750,12531.2,1.5768734341768325980880467243750
178,12674.7780084514125454194399029463637,12673.2,1.5780084514125454194399029463637
179,12817.5791371131787433703116485196307,12816.0,1.5791371131787433703116485196307
180,12961.1802594904158367279278868481774,12959.6,1.5802594904158367279278868481774
181,13105.5813756528850277296158652909310,13104.0,1.5813756528850277296158652909310
182,13250.7824856691943388215631087227758,13249.2,1.5824856691943388215631087227758
183,13396.7835896068239268352930209812897,13395.2,1.5835896068239268352930209812897
184,13543.5846875321507073352769990154785,13542.0,1.5846875321507073352769990154785
185,13691.1857795104723109477381322199265,13689.6,1.5857795104723109477381322199265
186,13839.5868656060303926412356653015837,13838.0,1.5868656060303926412356653015837
187,13988.7879458820333177615559857428574,13987.2,1.5879458820333177615559857428574
188,14138.7890204006782402592918165456474,14137.2,1.5890204006782402592918165456474
189,14289.5900892231725968433206083059313,14288.0,1.5900892231725968433206083059313
190,14441.1911524097550327134285810192147,14439.6,1.5911524097550327134285810192147
191,14593.5922100197157780968553662114617,14592.0,1.5922100197157780968553662114617
192,14746.7932621114164919732367515951943,14745.2,1.5932621114164919732367515951943
193,14900.7943087423095912941263784540372,14899.2,1.5943087423095912941263784540372
194,15055.5953499689570790402651503937529,15054.0,1.5953499689570790402651503937529
195,15211.1963858470488890514035058094108,15209.6,1.5963858470488890514035058094108
196,15367.5974164314207613230832571764410,15366.0,1.5974164314207613230832571764410
197,15524.7984417760716621482669811127228,15523.2,1.5984417760716621482669811127228
198,15682.7994619341807632684242823881447,15681.2,1.5994619341807632684242823881447
199,15841.6004769581239928706280631293620,15840.0,1.6004769581239928706280631293620
200,16001.2014868994901723736214906329880,15999.6,1.6014868994901723736214906329880
201,16161.6024918090967499821048536396151,16160.0,1.6024918090967499821048536396151
202,16322.8034917370051443883021414257444,16321.2,1.6034917370051443883021414257444
203,16484.8044867325357092784982959712473,16483.2,1.6044867325357092784982959712473
204,16647.6054768442823302625051342395644,16646.0,1.6054768442823302625051342395644
205,16811.2064621201266641945331997366040,16809.6,1.6064621201266641945331997366040
206,16975.6074426072520339074179540239418,16974.0,1.6074426072520339074179540239418
207,17140.8084183521569842341531588105584,17139.2,1.6084183521569842341531588105584
208,17306.8093894006685135415516096030262,17305.2,1.6093894006685135415516096030262
209,17473.6103557979549865223628526953768,17472.0,1.6103557979549865223628526953768
210,17641.2113175885387397450346169779183,17639.6,1.6113175885387397450346169779183
211,17809.6122748163083873237571847443984,17808.0,1.6122748163083873237571847443984
212,17978.8132275245308369396877444766373,17977.2,1.6132275245308369396877444766373
213,18148.8141757558630205951183364373124,18147.2,1.6141757558630205951183364373124
214,18319.6151195523633550802390520611014,18318.0,1.6151195523633550802390520611014
215,18491.2160589555029313627999308182425,18489.6,1.6160589555029313627999308182425
216,18663.6169940061764468593022176215524,18662.0,1.6169940061764468593022176215524
217,18836.8179247447128845510427186369258,18835.2,1.6179247447128845510427186369258
218,19010.8188512108859479218572598674463,19009.2,1.6188512108859479218572598674463
219,19185.6197734439242549950101690610658,19184.0,1.6197734439242549950101690610658
220,19361.2206914825213039819831638641449,19359.6,1.6206914825213039819831638641449
221,19537.6216053648452084502073577567726,19536.0,1.6216053648452084502073577567726
222,19714.8225151285482192119777896529071,19713.2,1.6225151285482192119777896529071
223,19892.8234208107760265003893340765620,19891.2,1.6234208107760265003893340765620
224,20071.6243224481768574967302459189537,20070.0,1.6243224481768574967302459189537
225,20251.2252200769103717711551379666586,20249.6,1.6252200769103717711551379666586
226,20431.6261137326563581799941105374227,20430.0,1.6261137326563581799941105374227
227,20612.8270034506232418681086972161460,20611.2,1.6270034506232418681086972161460
228,20794.8278892655564031922121501685312,20793.2,1.6278892655564031922121501685312
229,20977.6287712117463157231638791000414,20976.0,1.6287712117463157231638791000414
230,21161.2296493230365080195048156773705,21159.6,1.6296493230365080195048156773705
231,21345.6305236328313509676917336653919,21344.0,1.6305236328313509676917336653919
232,21530.8313941741036811043052522977177,21529.2,1.6313941741036811043052522977177
233,21716.8322609794022549122684476999113,21715.2,1.6322609794022549122684476999113
234,21903.6331240808590502438524325533213,21902.0,1.6331240808590502438524325533213
235,22091.2339835101964080484657272803779,22089.6,1.6339835101964080484657272803779
236,22279.6348392987340241110849149177571,22278.0,1.6348392987340241110849149177571
237,22468.8356914773957944287409778690417,22467.2,1.6356914773957944287409778690417
238,22658.8365400767165159635623318989339,22657.2,1.6365400767165159635623318989339
