Eigenstate,Energy,Kinetic Energy,Potential Energy
1,0.500000001090842528946343001312785702,0.0,0.500000001090842528946343001312785702
2,1.84623094477178925979418577882010880,1.2,0.64623094477178925979418577882010880
3,3.93633763062240024091081789863018830,3.2,0.73633763062240024091081789863018830
4,6.79966532138574961067364412849278020,6.0,0.79966532138574961067364412849278020
5,10.4480466507668692298812182555506781,9.6,0.8480466507668692298812182555506781
6,14.8870661136827495950805061986406975,14.0,0.8870661136827495950805061986406975
7,20.1197209916509734190663172199303417,19.2,0.9197209916509734190663172199303417
8,26.1477840710939395764101091707047047,25.2,0.9477840710939395764101091707047047
9,32.9723838510481547166902767755407494,32.0,0.9723838510481547166902767755407494
10,40.5942805856852121196929758181461889,39.6,0.9942805856852121196929758181461889
11,49.0140098451657433138030174862840324,48.0,1.0140098451657433138030174862840324
12,58.2319627248124689271333849260629437,57.2,1.0319627248124689271333849260629437
13,68.2484333547088372717679860232322503,67.2,1.0484333547088372717679860232322503
14,79.0636484325557903009560760931145382,78.0,1.0636484325557903009560760931145382
15,90.6777863394863151783840962418980454,89.6,1.0777863394863151783840962418980454
16,103.090989944936121825143844121079378,102.0,1.090989944936121825143844121079378
17,116.303375440105300696619332493687768,115.2,1.103375440105300696619332493687768
18,130.315038588964627380629753119594970,129.2,1.115038588964627380629753119594970
19,145.126059251359614878930363349912732,144.0,1.126059251359614878930363349912732
20,160.736504720644504963959993076633052,159.6,1.136504720644504963959993076633052
21,177.146432229764007177242765579176733,176.0,1.146432229764007177242765579176733
22,194.355890862412071938803107860132666,193.2,1.155890862412071938803107860132666
23,212.364923030968442118040206901185419,211.2,1.164923030968442118040206901185419
24,231.173565633899097912517788008129919,230.0,1.173565633899097912517788008129919
25,250.781850972552203038141189974215743,249.6,1.181850972552203038141189974215743
26,271.189807484965710245700193796689882,270.0,1.189807484965710245700193796689882
27,292.397460338829953519658699016405060,291.2,1.197460338829953519658699016405060
28,314.404831914846703330558222027813110,313.2,1.204831914846703330558222027813110
29,337.211942203931133369656152593409684,336.0,1.211942203931133369656152593409684
30,360.818809136053659540045509249016327,359.6,1.218809136053659540045509249016327
31,385.225448854372673417903047445551478,384.0,1.225448854372673417903047445551478
32,410.431875945231292769191207152408557,409.2,1.231875945231292769191207152408557
33,436.438103632281603871252254773266723,435.2,1.238103632281603871252254773266723
34,463.244143941249324099203401117784121,462.0,1.244143941249324099203401117784121
35,490.850007840512618153986047240734603,489.6,1.250007840512618153986047240734603
36,519.255705361635322417375648477645981,518.0,1.255705361635322417375648477645981
37,548.461245703190747360946133993760234,547.2,1.261245703190747360946133993760234
38,578.466637320581809185405214514433821,577.2,1.266637320581809185405214514433821
39,609.271888004065393211533362522191612,608.0,1.271888004065393211533362522191612
40,640.877004946793030756080282417432602,639.6,1.277004946793030756080282417432602
41,673.281994804363220948931611732811349,672.0,1.281994804363220948931611732811349
42,706.486863747125736343814484893748476,705.2,1.286863747125736343814484893748476
43,740.491617506271764827958313412264341,739.2,1.291617506271764827958313412264341
44,775.296261414575646319157845247009841,774.0,1.296261414575646319157845247009841
45,810.900800442516393168597067075183483,809.6,1.300800442516393168597067075183483
46,847.305239230394046904401727884169946,846.0,1.305239230394046904401727884169946
47,884.509582116962447337995457722988075,883.2,1.309582116962447337995457722988075
48,922.513833165022403690718450482905554,921.2,1.313833165022403690718450482905554
49,961.317996184354594854056081376496772,960.0,1.317996184354594854056081376496772
50,1000.92207475231740318308751994381100,999.6,1.32207475231740318308751994381100
51,1041.32607223238941926031653238704688,1040.0,1.32607223238941926031653238704688
52,1082.52999179089800985285610801852422,1081.2,1.32999179089800985285610801852422
53,1124.53383641214289116758518568772799,1123.2,1.33383641214289116758518568772799
54,1167.33760891209608837769554327579883,1166.0,1.33760891209608837769554327579883
55,1210.94131195083618690184898365743892,1209.6,1.34131195083618690184898365743892
56,1255.34494804385470634740548609766716,1254.0,1.34494804385470634740548609766716
57,1300.54851957235522906447714393526400,1299.2,1.34851957235522906447714393526400
58,1346.55202879265111807173081459271383,1345.2,1.35202879265111807173081459271383
59,1393.35547784475490516807232712823205,1392.0,1.35547784475490516807232712823205
60,1440.95886876024140553718489511107764,1439.6,1.35886876024140553718489511107764
61,1489.36220346945705092494958633240314,1488.0,1.36220346945705092494958633240314
62,1538.56548380813963246526675979164119,1537.2,1.36548380813963246526675979164119
63,1588.56871152350540234140621021250076,1587.2,1.36871152350540234140621021250076
64,1639.37188827985417099075892265512471,1638.0,1.37188827985417099075892265512471
65,1690.97501566373750172159135165101055,1689.6,1.37501566373750172159135165101055
66,1743.37809518873025727207251210503327,1742.0,1.37809518873025727207251210503327
67,1796.58112829984149055128503583190931,1795.2,1.38112829984149055128503583190931
68,1850.58411637759691564191259885858355,1849.2,1.38411637759691564191259885858355
69,1905.38706074182188247440502322490283,1904.0,1.38706074182188247440502322490283
70,1960.98996265515085031500493337555952,1959.6,1.38996265515085031500493337555952
71,2017.39282332628675650720162010075996,2016.0,1.39282332628675650720162010075996
72,2074.59564391303137866471211412920696,2073.2,1.39564391303137866471211412920696
73,2132.59842552510573550866864572407830,2131.2,1.39842552510573550866864572407830
74,2191.40116922677775269413184330511533,2190.0,1.40116922677775269413184330511533
75,2251.00387603931278887099963566149849,2249.6,1.40387603931278887099963566149849
76,2311.40654694326116766870307993581015,2310.0,1.40654694326116766870307993581015
77,2372.60918288059555889679487107298753,2371.2,1.40918288059555889679487107298753
78,2434.61178475670988645652543445396287,2433.2,1.41178475670988645652543445396287
79,2497.41435344229039363972071418119324,2496.0,1.41435344229039363972071418119324
80,2561.01688977506855836689440053867092,2559.6,1.41688977506855836689440053867092
81,2625.41939456146470157636494151659195,2624.0,1.41939456146470157636494151659195
82,2690.62186857813037052695128678798747,2689.2,1.42186857813037052695128678798747
83,2756.62431257339689004445040660061885,2755.2,1.42431257339689004445040660061885
84,2823.42672726863685045184773500149603,2822.0,1.42672726863685045184773500149603
85,2891.02911335954474164857193108696279,2889.6,1.42911335954474164857193108696279
86,2959.43147151734242694029388609104081,2958.0,1.43147151734242694029388609104081
87,3028.63380238991469275163396585210739,3027.2,1.43380238991469275163396585210739
88,3098.63610660287968697810611377820526,3097.2,1.43610660287968697810611377820526
89,3169.43838476059867523325618970740877,3168.0,1.43838476059867523325618970740877
90,3241.04063744712920103207885647066407,3239.6,1.44063744712920103207885647066407
91,3313.44286522712541450166952332811383,3312.0,1.44286522712541450166952332811383
92,3386.64506864668904591454513765291624,3385.2,1.44506864668904591454513765291624
93,3460.64724823417423808708508692171832,3459.2,1.44724823417423808708508692171832
94,3535.44940450094920875899163998203212,3534.0,1.44940450094920875899163998203212
95,3611.05153794211749291789944169031895,3609.6,1.45153794211749291789944169031895
96,3687.45364903720131321348998357154185,3686.0,1.45364903720131321348998357154185
97,3764.65573825078944226582894747504045,3763.2,1.45573825078944226582894747504045
98,3842.65780603315174780088179179070363,3841.2,1.45780603315174780088179179070363
99,3921.45985282082245807665108136836333,3920.0,1.45985282082245807665108136836333
100,4001.06187903715403872572286640435225,3999.6,1.46187903715403872572286640435225
101,4081.46388509284344283874487047740879,4080.0,1.46388509284344283874487047740879
102,4162.66587138643237054165477144769463,4161.2,1.46587138643237054165477144769463
103,4244.66783830478306640898935228842278,4243.2,1.46783830478306640898935228842278
104,4327.46978622353107579418028076833101,4326.0,1.46978622353107579418028076833101
105,4411.07171550751628808738936314086246,4409.6,1.47171550751628808738936314086246
106,4495.47362651119350415075077668712441,4494.0,1.47362651119350415075077668712441
107,4580.67551957902368710265593974189426,4579.2,1.47551957902368710265593974189426
108,4666.67739504584697638702710403023013,4665.2,1.47739504584697638702710403023013
109,4753.47925323723847647404770646757657,4752.0,1.47925323723847647404770646757657
110,4841.08109446984776912290903907986911,4839.6,1.48109446984776912290903907986911
111,4929.48291905172303228035316610099768,4928.0,1.48291905172303228035316610099768
112,5018.68472728262059925975787796376964,5017.2,1.48472728262059925975787796376964
113,5108.68651945430073631453702349194179,5107.2,1.48651945430073631453702349194179
114,5199.48829585081036796690278480135921,5198.0,1.48829585081036796690278480135921
115,5291.09005674875343900979054635406862,5289.6,1.49005674875343900979054635406862
116,5383.49180241754955377359369813625292,5382.0,1.49180241754955377359369813625292
117,5476.69353311968150154210590305775690,5475.2,1.49353311968150154210590305775690
118,5570.69524911093223597697172739432714,5569.2,1.49524911093223597697172739432714
119,5665.49695064061184270251550372871997,5664.0,1.49695064061184270251550372871997
120,5761.09863795177500336717738371679922,5759.6,1.49863795177500336717738371679922
121,5857.50031128142942623742890386182687,5856.0,1.50031128142942623742890386182687
122,5954.70197086073569447411318169893752,5953.2,1.50197086073569447411318169893752
123,6052.70361691519895105579556879637446,6051.2,1.50361691519895105579556879637446
124,6151.50524966485282164179587847246595,6150.0,1.50524966485282164179587847246595
125,6251.10686932443594710962035371417563,6249.6,1.50686932443594710962035371417563
126,6351.50847610356148231289342852633143,6350.0,1.50847610356148231289342852633143
127,6452.71007020687989703711281105393381,6451.2,1.51007020687989703711281105393381
128,6554.71165183423539255292229611918872,6553.2,1.51165183423539255292229611918872
129,6657.51322118081623510336561951106749,6656.0,1.51322118081623510336561951106749
130,6761.11477843729928929023193473564801,6759.6,1.51477843729928929023193473564801
131,6865.51632378998901893152201295683814,6864.0,1.51632378998901893152201295683814
132,6970.71785742095120799643186592895750,6969.2,1.51785742095120799643186592895750
133,7076.71937950814164245481682496871947,7075.2,1.51937950814164245481682496871947
134,7183.52089022552998261492549387817461,7182.0,1.52089022552998261492549387817461
135,7291.12238974321903742824497991519905,7289.6,1.52238974321903742824497991519905
136,7399.52387822755964856686407647650743,7398.0,1.52387822755964856686407647650743
137,7508.72535584126137878563565833444842,7507.2,1.52535584126137878563565833444842
138,7618.72682274349918548500605896036964,7617.2,1.52682274349918548500605896036964
139,7729.52827909001625830083920118252458,7728.0,1.52827909001625830083920118252458
140,7841.12972503322318411885731496905537,7839.6,1.52972503322318411885731496905537
141,7953.53116072229359837192606116752572,7952.0,1.53116072229359837192606116752572
142,8066.73258630325647342428251965542282,8065.2,1.53258630325647342428251965542282
143,8180.73400191908518621669574731325045,8179.2,1.53400191908518621669574731325045
144,8295.53540770978350018812211127012208,8294.0,1.53540770978350018812211127012208
145,8411.13680381246859232393859010702593,8409.6,1.53680381246859232393859010702593
146,8527.53819036145124833563114869649993,8526.0,1.53819036145124833563114869649993
147,8644.73956748831334079862239654876070,8643.2,1.53956748831334079862239654876070
148,8762.74093532198270614304482443193318,8761.2,1.54093532198270614304482443193318
149,8881.54229398880552289177804122236354,8880.0,1.54229398880552289177804122236354
150,9001.14364361261629540910482021770404,8999.6,1.54364361261629540910482021770404
151,9121.54498431480553972745421531179953,9120.0,1.54498431480553972745421531179953
152,9242.74631621438526243706400398305798,9241.2,1.54631621438526243706400398305798
153,9364.74763942805232230823649139007640,9363.2,1.54763942805232230823649139007640
154,9487.54895407024975930161041115140404,9486.0,1.54895407024975930161041115140404
155,9611.15026025322616999696230831462634,9609.6,1.55026025322616999696230831462634
156,9735.55155808709320814193288425615551,9734.0,1.55155808709320814193288425615551
157,9860.75284767988128224515429899246021,9859.2,1.55284767988128224515429899246021
158,9986.75412913759352295515142308538165,9985.2,1.55412913759352295515142308538165
159,10113.5554025642580848691151465884082,10112.0,1.5554025642580848691151465884082
160,10241.1566680619788501312424096168604,10239.6,1.5566680619788501312424096168604
161,10369.5579257309845933927934101805438,10368.0,1.5579257309845933927934101805438
162,10498.7591756696766687281444400069706,10497.2,1.5591756696766687281444400069706
163,10628.7604179746752745538441336053727,10627.2,1.5604179746752745538441336053727
164,10759.5616527408643524452909228247759,10758.0,1.5616527408643524452909228247759
165,10891.1628800614351697774014698520315,10889.6,1.5628800614351697774014698520315
166,11023.5641000279286381034149949851662,11022.0,1.5641000279286381034149949851662
167,11156.7653127302764159796164195640044,11155.2,1.5653127302764159796164195640044
168,11290.7665182568408404820056829142346,11289.2,1.5665182568408404820056829142346
169,11425.5677166944537341209652051135102,11424.0,1.5677166944537341209652051135102
170,11561.1689081284541286333619979034251,11559.6,1.5689081284541286333619979034251
171,11697.5700926427249476810686979303639,11696.0,1.5700926427249476810686979303639
172,11834.7712703197286882616776100779181,11833.2,1.5712703197286882616776100779181
173,11972.7724412405421382841901392216153,11971.2,1.5724412405421382841901392216153
174,12111.5736054848901683222793180437013,12110.0,1.5736054848901683222793180437013
175,12251.1747631311786338255549409027829,12249.6,1.5747631311786338255549409027829
176,12391.5759142565264199255167301846190,12390.0,1.5759142565264199255167301846190
177,12532.7770589367966646708882801287329,12531.2,1.5770589367966646708882801287329
178,12674.7781972466271925744127016032585,12673.2,1.5781972466271925744127016032585
179,12817.5793292594601878076729992269883,12816.0,1.5793292594601878076729992269883
180,12961.1804550475711410571371545912811,12959.6,1.5804550475711410571371545912811
181,13105.5815746820970959440431338828683,13104.0,1.5815746820970959440431338828683
182,13250.7826882330642261578208968198658,13249.2,1.5826882330642261578208968198658
183,13396.7837957694147700209289680353736,13395.2,1.5837957694147700209289680353736
184,13543.5848973590333506246966378565866,13542.0,1.5848973590333506246966378565866
185,13691.1859930687727074881590466321683,13689.6,1.5859930687727074881590466321683
186,13839.5870829644788651157820820024421,13838.0,1.5870829644788651157820820024421
187,13988.7881671110157669444206023058766,13987.2,1.5881671110157669444206023058766
188,14138.7892455722893951088485934803693,14137.2,1.5892455722893951088485934803693
189,14289.5903184112714050754234976928223,14288.0,1.5903184112714050754234976928223
190,14441.1913856900222964631887830144764,14439.6,1.5913856900222964631887830144764
191,14593.5924474697141453190602657931326,14592.0,1.5924474697141453190602657931326
192,14746.7935038106529206776861704070631,14745.2,1.5935038106529206776861704070631
193,14900.7945547723004105934181769822865,14899.2,1.5945547723004105934181769822865
194,15055.5956004132957783373209898104881,15054.0,1.5956004132957783373209898104881
195,15211.1966407914767745487918730713061,15209.6,1.5966407914767745487918730713061
196,15367.5976759639006274354293399726961,15366.0,1.5976759639006274354293399726961
197,15524.7987059868646343858498613837589,15523.2,1.5987059868646343858498613837589
198,15682.7997309159264787812740933156168,15681.2,1.5997309159264787812740933156168
199,15841.6007508059242951492067009848507,15840.0,1.6007508059242951492067009848507
200,16001.2017657109965076501314360974922,15999.6,1.6017657109965076501314360974922
201,16161.6027756846014647265174842679016,16160.0,1.6027756846014647265174842679016
202,16322.8037807795368960117705541879606,16321.2,1.6037807795368960117705541879606
203,16484.8047810479592158164781646041743,16483.2,1.6047810479592158164781646041743
204,16647.6057765414026994902926994512172,16646.0,1.6057765414026994902926994512172
205,16811.2067673107985584159207360099307,16809.6,1.6067673107985584159207360099307
206,16975.6077534064939436483371987342668,16974.0,1.6077534064939436483371987342668
207,17140.8087348782709023721416565749112,17139.2,1.6087348782709023721416565749112
208,17306.8097117753653211235476190565961,17305.2,1.6097117753653211235476190565961
209,17473.6106841464858827942041809395071,17472.0,1.6106841464858827942041809395071
210,17641.2116520398330718749039897114515,17639.6,1.6116520398330718749039897114515
211,17809.6126155031182601019213036203023,17808.0,1.6126155031182601019213036203023
212,17978.8135745835829095468110230750083,17977.2,1.6135745835829095468110230750083
213,18148.8145293280179265374087995491076,18147.2,1.6145293280179265374087995491076
214,18319.6154797827832127972510120753552,18318.0,1.6154797827832127972510120753552
215,18491.2164259938274470502274402467735,18489.6,1.6164259938274470502274402467735
216,18663.6173680067081479661424302438854,18662.0,1.6173680067081479661424302438854
217,18836.8183058666120624868098732580670,18835.2,1.6183058666120624868098732580670
218,19010.8192396183759320543861342675091,19009.2,1.6192396183759320543861342675091
219,19185.6201693065076873760726176160446,19184.0,1.6201693065076873760726176160446
220,19361.2210949752081357883423694657641,19359.6,1.6210949752081357883423694657641
221,19537.6220166683931952967804917680342,19536.0,1.6220166683931952967804917680342
222,19714.8229344297167537549109907593288,19713.2,1.6229344297167537549109907593288
223,19892.8238483025942136297735591952740,19891.2,1.6238483025942136297735591952740
224,20071.6247583302268105115476942152798,20070.0,1.6247583302268105115476942152798
225,20251.2256645556267878935681000799915,20249.6,1.6256645556267878935681000799915
226,20431.6265670216435193419230120622794,20430.0,1.6265670216435193419230120622794
227,20612.8274657709906827203852447906161,20611.2,1.6274657709906827203852447906161
228,20794.8283608462745936774357666158292,20793.2,1.6283608462745936774357666158292
229,20977.6292522900238213666749259010927,20976.0,1.6292522900238213666749259010927
230,21161.2301401447202185099317282868899,21159.6,1.6301401447202185099317282868899
231,21345.6310244528315079521291375652209,21344.0,1.6310244528315079521291375652209
232,21530.8319052568455909198775615830426,21529.2,1.6319052568455909198775615830426
233,21716.8327825993067429198635546942427,21715.2,1.6327825993067429198635546942427
234,21903.6336565228539024540304935685521,21902.0,1.6336565228539024540304935685521
235,22091.2345270702612550279921645651940,22089.6,1.6345270702612550279921645651940
236,22279.6353942844813542273538743400293,22278.0,1.6353942844813542273538743400293
237,22468.8362582086910411724427994317489,22467.2,1.6362582086910411724427994317489
238,22658.8371188863404506342296717276713,22657.2,1.6371188863404506342296717276713
