Eigenstate,Energy,Kinetic Energy,Potential Energy
1,0.500000000295436298492139089094052989,0.0,0.500000000295436298492139089094052989
2,1.84623093957958869246060705342356571,1.2,0.64623093957958869246060705342356571
3,3.93633761536980312431796849667659566,3.2,0.73633761536980312431796849667659566
4,6.79966528961368606519218825728198747,6.0,0.79966528961368606519218825728198747
5,10.4480465957253136124238741380705866,9.6,0.8480465957253136124238741380705866
6,14.8870660284998382060156476523587548,14.0,0.8870660284998382060156476523587548
7,20.1197208693947095231873462217262480,19.2,0.9197208693947095231873462217262480
8,26.1477839047973650657542787198977645,25.2,0.9477839047973650657542787198977645
9,32.9723836337205376281871647561693764,32.0,0.9723836337205376281871647561693764
10,40.5942803103172468890120639186475843,39.6,0.9942803103172468890120639186475843
11,49.0140095047319307306493848114105347,48.0,1.0140095047319307306493848114105347
12,58.2319623122720570890137218929971793,57.2,1.0319623122720570890137218929971793
13,68.2484328630059772703482631760850507,67.2,1.0484328630059772703482631760850507
14,79.0636478546192380710984214181615823,78.0,1.0636478546192380710984214181615823
15,90.6777856682288576004443912668781704,89.6,1.0777856682288576004443912668781704
16,103.090989173253827625106424732093201,102.0,1.090989173253827625106424732093201
17,116.303374560876655355216993844594017,115.2,1.103374560876655355216993844594017
18,130.315037595049588202473774970558314,129.2,1.115037595049588202473774970558314
19,145.126058135598608983471999299720786,144.0,1.126058135598608983471999299720786
20,160.736503475857384907765163930071366,159.6,1.136503475857384907765163930071366
21,177.146430848748973920767992178504017,176.0,1.146430848748973920767992178504017
22,194.355889337944571683029197953084828,193.2,1.155889337944571683029197953084828
23,212.364921355800041450592237627928810,211.2,1.164921355800041450592237627928810
24,231.173563800756340306788000806597863,230.0,1.173563800756340306788000806597863
25,250.781848974135448794736803613139413,249.6,1.181848974135448794736803613139413
26,271.189805313947961300720189000696919,270.0,1.189805313947961300720189000696919
27,292.397457987855664072727057627489304,291.2,1.197457987855664072727057627489304
28,314.404829376530576905342151606844808,313.2,1.204829376530576905342151606844808
29,337.211939470856906670185876500630628,336.0,1.211939470856906670185876500630628
30,360.818806200772873280420952121137611,359.6,1.218806200772873280420952121137611
31,385.225445709403430162520113800001851,384.0,1.225445709403430162520113800001851
32,410.431872583057001712765742828817302,409.2,1.231872583057001712765742828817302
33,436.438100045349712403795588537416000,435.2,1.238100045349712403795588537416000
34,463.244140121970035934432282979029733,462.0,1.244140121970035934432282979029733
35,490.850003781257597745928241319608675,489.6,1.250003781257597745928241319608675
36,519.255701054736385345896318799501569,518.0,1.255701054736385345896318799501569
37,548.461241140938536330171055011653245,547.2,1.261241140938536330171055011653245
38,578.466632495224455247783634650039665,577.2,1.266632495224455247783634650039665
39,609.271882907807161803235574711277067,608.0,1.271882907807161803235574711277067
40,640.876999571792952105559758372567404,639.6,1.276999571792952105559758372567404
41,673.281989142733704399034839342858180,672.0,1.281989142733704399034839342858180
42,706.486857790931168108203650771214649,705.2,1.286857790931168108203650771214649
43,740.491611247527088684366703182785844,739.2,1.291611247527088684366703182785844
44,775.296254845244926724768206176024320,774.0,1.296254845244926724768206176024320
45,810.900793554511360266335552603974690,809.6,1.300793554511360266335552603974690
46,847.305232015572622872950155568066538,846.0,1.305232015572622872950155568066538
47,884.509574567127253522661137975036330,883.2,1.309574567127253522661137975036330
48,922.513825271919247936815758545107239,921.2,1.313825271919247936815758545107239
49,961.317987939670938449028141785781585,960.0,1.317987939670938449028141785781585
50,1000.92206614768080679812790179361394,999.6,1.32206614768080679812790179361394
51,1041.32606325936596726665413935265522,1040.0,1.32606325936596726665413935265522
52,1082.52998244099071237207448092129907,1081.2,1.32998244099071237207448092129907
53,1124.53382667679006319929285428747610,1123.2,1.33382667679006319929285428747610
54,1167.33759878266970533149553444287167,1166.0,1.33759878266970533149553444287167
55,1210.94130141864021584382498855679459,1209.6,1.34130141864021584382498855679459
56,1255.34493710012341225420688652766989,1254.0,1.34493710012341225420688652766989
57,1300.54850820825145536050365247955369,1299.2,1.34850820825145536050365247955369
58,1346.55201699926454070685220958234273,1345.2,1.35201699926454070685220958234273
59,1393.35546561310025947474469160765758,1392.0,1.35546561310025947474469160765758
60,1440.95885608125668508669315549368408,1439.6,1.35885608125668508669315549368408
61,1489.36219033400167758280034196961451,1488.0,1.36219033400167758280034196961451
62,1538.56547020699259682543488722701361,1537.2,1.36547020699259682543488722701361
63,1588.56869744736337369817952005601015,1587.2,1.36869744736337369817952005601015
64,1639.37187371932957598529358369297038,1638.0,1.37187371932957598529358369297038
65,1690.97500060935657077795502699040079,1689.6,1.37500060935657077795502699040079
66,1743.37807963093103791448882309295823,1742.0,1.37807963093103791448882309295823
67,1796.58111222897182667046336476900955,1795.2,1.38111222897182667046336476900955
68,1850.58409978391239175372711377619516,1849.2,1.38409978391239175372711377619516
69,1905.38704361548373198873445492285809,1904.0,1.38704361548373198873445492285809
70,1960.98994498622382680624388842057302,1959.6,1.38994498622382680624388842057302
71,2017.39280510473696695074932771228387,2016.0,1.39280510473696695074932771228387
72,2074.59562512872407757562381900410657,2073.2,1.39562512872407757562381900410657
73,2132.59840616780307888956128486990786,2131.2,1.39840616780307888956128486990786
74,2191.40114928613651066935011775284595,2190.0,1.40114928613651066935011775284595
75,2251.00385550488201585291916424276454,2249.6,1.40385550488201585291916424276454
76,2311.40652580447982886984418598969406,2310.0,1.40652580447982886984418598969406
77,2372.60916112679011196809488477083210,2371.2,1.40916112679011196809488477083210
78,2434.61176237709181699762809519995358,2433.2,1.41176237709181699762809519995358
79,2497.41433042595370329144915215559266,2496.0,1.41433042595370329144915215559266
80,2561.01686611098720415912567850603468,2559.6,1.41686611098720415912567850603468
81,2625.41937023848998516627287356839525,2624.0,1.41937023848998516627287356839525
82,2690.62184358498827592298221081621179,2689.2,1.42184358498827592298221081621179
83,2756.62428689868536837038676436064442,2755.2,1.42428689868536837038676436064442
84,2823.42670090082305026284935129423231,2822.0,1.42670090082305026284935129423231
85,2891.02908628696218326709673211290531,2889.6,1.42908628696218326709673211290531
86,2959.43144372818811923424295717860287,2958.0,1.43144372818811923424295717860287
87,3028.63377387224619072985780586616616,3027.2,1.43377387224619072985780586616616
88,3098.63607734461208852950985232789470,3097.2,1.43607734461208852950985232789470
89,3169.43835474950155528506441770411827,3168.0,1.43835474950155528506441770411827
90,3241.04060667082348135029913351008857,3239.6,1.44060667082348135029913351008857
91,3313.44283367308016730236162519082259,3312.0,1.44283367308016730236162519082259
92,3386.64503630221822939806586875576256,3385.2,1.44503630221822939806586875576256
93,3460.64721508643336194898240399569716,3459.2,1.44721508643336194898240399569716
94,3535.44937053693192767055161914471626,3534.0,1.44937053693192767055161914471626
95,3611.05150314865212590643395619735756,3609.6,1.45150314865212590643395619735756
96,3687.45361340094728680720793273761374,3686.0,1.45361340094728680720793273761374
97,3764.65570175823365520043273255788178,3763.2,1.45570175823365520043273255788178
98,3842.65776867060485501480892642377874,3841.2,1.45776867060485501480892642377874
99,3921.45981457441507164900070037442212,3920.0,1.45981457441507164900070037442212
100,4001.06183989283284333527756419088594,3999.6,1.46183989283284333527756419088594
101,4081.46384503636722324399864130809394,4080.0,1.46384503636722324399864130809394
102,4162.66583040336794850025437235331521,4161.2,1.46583040336794850025437235331521
103,4244.66779638050114437038509810753458,4243.2,1.46779638050114437038509810753458
104,4327.46974334320198461140372153733738,4326.0,1.46974334320198461140372153733738
105,4411.07167165610563590260663876486921,4409.6,1.47167165610563590260663876486921
106,4495.47358167345772351443312374719227,4494.0,1.47358167345772351443312374719227
107,4580.67547373950547728769617778392509,4579.2,1.47547373950547728769617778392509
108,4666.67734818887063775676955790082285,4665.2,1.47734818887063775676955790082285
109,4753.47920534690513365680318531458887,4752.0,1.47920534690513365680318531458887
110,4841.08104553003047963493049122318214,4839.6,1.48104553003047963493049122318214
111,4929.48286904606177712425440019816910,4928.0,1.48286904606177712425440019816910
112,5018.68467619451715190578509695298322,5017.2,1.48467619451715190578509695298322
113,5108.68646726691340634772745537793141,5107.2,1.48646726691340634772745537793141
114,5199.48824254704861555378358537611681,5198.0,1.48824254704861555378358537611681
115,5291.09000231127235620365268652927193,5289.6,1.49000231127235620365268652927193
116,5383.49174682874420853728581204895295,5382.0,1.49174682874420853728581204895295
117,5476.69347636168114022146777018484423,5475.2,1.49347636168114022146777018484423
118,5570.69519116559433980621771395425813,5569.2,1.49519116559433980621771395425813
119,5665.49689148951603376480572384641079,5664.0,1.49689148951603376480572384641079
120,5761.09857757621679526897305162418301,5759.6,1.49857757621679526897305162418301
121,5857.50024966241381458372436036987662,5856.0,1.50024966241381458372436036987662
122,5954.70190797897058205295381978041057,5953.2,1.50190797897058205295381978041057
123,6052.70355275108840245425901581245638,6051.2,1.50355275108840245425901581245638
124,6151.50518419849014182151618046766195,6150.0,1.50518419849014182151618046766195
125,6251.10680253559657826755591666122904,6249.6,1.50680253559657826755591666122904
126,6351.50840797169571314200664907165983,6350.0,1.50840797169571314200664907165983
127,6452.71000071110537828151761973038513,6451.2,1.51000071110537828151761973038513
128,6554.71158095332945252241151033930314,6553.2,1.51158095332945252241151033930314
129,6657.51314889320798857261065927176043,6656.0,1.51314889320798857261065927176043
130,6761.11470472106153295784190315761059,6759.6,1.51470472106153295784190315761059
131,6865.51624862282990635304262690021322,6864.0,1.51624862282990635304262690021322
132,6970.71778078020569663272068428886476,6969.2,1.51778078020569663272068428886476
133,7076.71930137076270519246778982371270,7075.2,1.51930137076270519246778982371270
134,7183.52081056807957581790695603682607,7182.0,1.52081056807957581790695603682607
135,7291.12230854185881726904326608551730,7289.6,1.52230854185881726904326608551730
136,7399.52379545804142706049328777897779,7398.0,1.52379545804142706049328777897779
137,7508.72527147891731061016496834896547,7507.2,1.52527147891731061016496834896547
138,7618.72673676323167631700320133401090,7617.2,1.52673676323167631700320133401090
139,7729.52819146628758502255244483053058,7728.0,1.52819146628758502255244483053058
140,7841.12963574004481686515964209799717,7839.6,1.52963574004481686515964209799717
141,7953.53106973321521397818830853016839,7952.0,1.53106973321521397818830853016839
142,8066.73249359135464941039497441779408,8065.2,1.53249359135464941039497441779408
143,8180.73390745695176399648903919409706,8179.2,1.53390745695176399648903919409706
144,8295.53531146951360572630641927752093,8294.0,1.53531146951360572630641927752093
145,8411.13670576564830197331127580891072,8409.6,1.53670576564830197331127580891072
146,8527.53809047914488707444151525954076,8526.0,1.53809047914488707444151525954076
147,8644.73946574105039955038861216683104,8643.2,1.53946574105039955038861216683104
148,8762.74083167974436429742279240368781,8761.2,1.54083167974436429742279240368781
149,8881.54218842101076155385076319618120,8880.0,1.54218842101076155385076319618120
150,9001.14353608810758628416438029512484,8999.6,1.54353608810758628416438029512484
151,9121.54487480183409389737369831918278,9120.0,1.54487480183409389737369831918278
152,9242.74620468059582260098196756438494,9241.2,1.54620468059582260098196756438494
153,9364.74752584046748134264387936055418,9363.2,1.54752584046748134264387936055418
154,9487.54883839525378724115275745004837,9486.0,1.54883839525378724115275745004837
155,9611.15014245654833074521093345015736,9609.6,1.55014245654833074521093345015736
156,9735.55143813379054638887066889214505,9734.0,1.55143813379054638887066889214505
157,9860.75272553432086019283250747318824,9859.2,1.55272553432086019283250747318824
158,9986.75400476343408553235293199499913,9985.2,1.55400476343408553235293199499913
159,10113.5552759244311311473073075803463,10112.0,1.5552759244311311473073075803463
160,10241.1565391186690876347313297064815,10239.6,1.5565391186690876347313297064815
161,10369.5577944456097509228107218584840,10368.0,1.5577944456097509228107218584840
162,10498.7590420028666421903427320576300,10497.2,1.5590420028666421903427320576300
163,10628.7602818862505790879642996464395,10627.2,1.5602818862505790879642996464395
164,10759.5615141898138529008149518096171,10758.0,1.5615141898138529008149518096171
165,10891.1627390058930602560000801526631,10889.6,1.5627390058930602560000801526631
166,11023.5639564251506398936723982404866,11022.0,1.5639564251506398936723982404866
167,11156.7651665366151617373634484737515,11155.2,1.5651665366151617373634484737515
168,11290.7663694277204109558759138306405,11289.2,1.5663694277204109558759138306405
169,11425.5675651843433120823075468730388,11424.0,1.5675651843433120823075468730388
170,11561.1687538908407329368997992787130,11559.6,1.5687538908407329368997992787130
171,11697.5699356300852085518326425207497,11696.0,1.5699356300852085518326425207497
172,11834.7711104834996229683860980424717,11833.2,1.5711104834996229683860980424717
173,11972.7722785310908843126540567465000,11971.2,1.5722785310908843126540567465000
174,12111.5734398514826289972842853442319,12110.0,1.5734398514826289972842853442319
175,12251.1745945219469890382359860677222,12249.6,1.5745945219469890382359860677222
176,12391.5757426184354521970759957283677,12390.0,1.5757426184354521970759957283677
177,12532.7768842156088482136261387493946,12531.2,1.5768842156088482136261387493946
178,12674.7780193868664902877465446785053,12673.2,1.5780193868664902877465446785053
179,12817.5791482043744982597053690757164,12816.0,1.5791482043744982597053690757164
180,12961.1802707390933344401579828335765,12959.6,1.5802707390933344401579828335765
181,13105.5813870608045747430662786411354,13104.0,1.5813870608045747430662786411354
182,13250.7824972381369428218173471590538,13249.2,1.5824972381369428218173471590538
183,13396.7836013385916302628178882660429,13395.2,1.5836013385916302628178882660429
184,13543.5846994285669270832368295798633,13542.0,1.5846994285669270832368295798633
185,13691.1857915733821843462960848122965,13689.6,1.5857915733821843462960848122965
186,13839.5868778373011298681416754570472,13838.0,1.5868778373011298681416754570472
187,13988.7879582835545608223606652635738,13987.2,1.5879582835545608223606652635738
188,14138.7890329743624286841693808390779,14137.2,1.5890329743624286841693808390779
189,14289.5901019709553402512321510264137,14288.0,1.5901019709553402512321510264137
190,14441.1911653335954903982141498110652,14439.6,1.5911653335954903982141498110652
191,14593.5922231215970457938131618250166,14592.0,1.5922231215970457938131618250166
192,14746.7932753933459959688344256732554,14745.2,1.5932753933459959688344256732554
193,14900.7943222063194900456923417434252,14899.2,1.5943222063194900456923417434252
194,15055.5953636171046724768407672008780,15054.0,1.5953636171046724768407672008780
195,15211.1963996814170357313916084031217,15209.6,1.5963996814170357313916084031217
196,15367.5974304541183036289186488883829,15366.0,1.5974304541183036289186488883829
197,15524.7984559892338597030605098225571,15523.2,1.5984559892338597030605098225571
198,15682.7994763399697347643982321089276,15681.2,1.5994763399697347643982321089276
199,15841.6004915587291665041740503848735,15840.0,1.6004915587291665041740503848735
200,16001.2015016971287450869733148375632,15999.6,1.6015016971287450869733148375632
201,16161.6025068060141557169386614916242,16160.0,1.6025068060141557169386614916242
202,16322.8035069354755315620559312193177,16321.2,1.6035069354755315620559312193177
203,16484.8045021348624276998465886747217,16483.2,1.6045021348624276998465886747217
204,16647.6054924527984277082449304725178,16646.0,1.6054924527984277082449304725178
205,16811.2064779371953928761305229509872,16809.6,1.6064779371953928761305229509872
206,16975.6074586352673670616446000595078,16974.0,1.6074586352673670616446000595078
207,17140.8084345935441430786132079717452,17139.2,1.6084345935441430786132079717452
208,17306.8094058578845048424628954617067,17305.2,1.6094058578845048424628954617067
209,17473.6103724734891510287289172811336,17472.0,1.6103724734891510287289172811336
210,17641.2113344849133117503222920587950,17639.6,1.6113344849133117503222920587950
211,17809.6122919360790656233945470568756,17808.0,1.6122919360790656233945470568756
212,17978.8132448702873674601208249594000,17977.2,1.6132448702873674601208249594000
213,18148.8141933302297909778213885214520,18147.2,1.6141933302297909778213885214520
214,18319.6151373580000015119731859059887,18318.0,1.6151373580000015119731859059887
215,18491.2160769951049579515650891250787,18489.6,1.6160769951049579515650891250787
216,18663.6170122824758578638336317528994,18662.0,1.6170122824758578638336317528994
217,18836.8179432604788297803833909456775,18835.2,1.6179432604788297803833909456775
218,19010.8188699689253816304884337341519,19009.2,1.6188699689253816304884337341519
219,19185.6197924470826086082680823244100,19184.0,1.6197924470826086082680823244100
220,19361.2207107336831729960299013669061,19359.6,1.6207107336831729960299013669061
221,19537.6216248669350538606733458631201,19536.0,1.6216248669350538606733458631201
222,19714.8225348845310838355621773711153,19713.2,1.6225348845310838355621773711153
223,19892.8234408236582665642115943891441,19891.2,1.6234408236582665642115943891441
224,20071.6243427210068898810676651772954,20070.0,1.6243427210068898810676651772954
225,20251.2252406127794373024055358356305,20249.6,1.6252406127794373024055358356305
226,20431.6261345346993013822756493357200,20430.0,1.6261345346993013822756493357200
227,20612.8270245220193075938672591737198,20611.2,1.6270245220193075938672591737198
228,20794.8279106095300505645543814135927,20793.2,1.6279106095300505645543814135927
229,20977.6287928315680498354091677497799,20976.0,1.6287928315680498354091677497799
230,21161.2296712220237298506373803276340,21159.6,1.6296712220237298506373803276340
231,21345.6305458143492259860348658186301,21344.0,1.6305458143492259860348658186301
232,21530.8314166415660270458412289471255,21529.2,1.6314166415660270458412289471255
233,21716.8322837362724492346009315748861,21715.2,1.6322837362724492346009315748861
234,21903.6331471306509577718883909195520,21902.0,1.6331471306509577718883909195520
235,22091.2340068564753293434788655592455,22089.6,1.6340068564753293434788655592455
236,22279.6348629451176651109491327221989,22278.0,1.6348629451176651109491327221989
237,22468.8357154275552579238033756886550,22467.2,1.6357154275552579238033756886550
238,22658.8365643343773154898848409731854,22657.2,1.6365643343773154898848409731854
