Eigenstate,Energy,Kinetic Energy,Potential Energy
1,0.500000000041413475037593706137975567,0.0,0.500000000041413475037593706137975567
2,1.84623093792144021344514063655410662,1.2,0.64623093792144021344514063655410662
3,3.93633761049903514478433412173105489,3.2,0.73633761049903514478433412173105489
4,6.79966527946817393017725505499494239,6.0,0.79966527946817393017725505499494239
5,10.4480465781506396386321160939296859,9.6,0.8480465781506396386321160939296859
6,14.8870660013035178859052659415196863,14.0,0.8870660013035178859052659415196863
7,20.1197208303661146824309833412253337,19.2,0.9197208303661146824309833412253337
8,26.1477838517159802493903809677159425,25.2,0.9477838517159802493903809677159425
9,32.9723835643597511593762221110163937,32.0,0.9723835643597511593762221110163937
10,40.5942802224462305777528278634360759,39.6,0.9942802224462305777528278634360759
11,49.0140093961166197223461280909225720,48.0,1.0140093961166197223461280909225720
12,58.2319621806756710732671837644899058,57.2,1.0319621806756710732671837644899058
13,68.2484327061892919185375778106440770,67.2,1.0484327061892919185375778106440770
14,79.0636476703407126428273429081812506,78.0,1.0636476703407126428273429081812506
15,90.6777854542446756905682816096257985,89.6,1.0777854542446756905682816096257985
16,103.090988927317883259792932257292015,102.0,1.090988927317883259792932257292015
17,116.303374280740503446855058410536942,115.2,1.103374280740503446855058410536942
18,130.315037278462371010228861039795300,129.2,1.115037278462371010228861039795300
19,145.126057780306965951694141470515163,144.0,1.126057780306965951694141470515163
20,160.736503079605350684209673647944045,159.6,1.136503079605350684209673647944045
21,177.146430409277867762315845292089985,176.0,1.146430409277867762315845292089985
22,194.355888852992880439888229663254466,193.2,1.155888852992880439888229663254466
23,212.364920823103297655254857799400470,211.2,1.164920823103297655254857799400470
24,231.173563218046996449595332266210895,230.0,1.173563218046996449595332266210895
25,250.781848339142748564657085133096147,249.6,1.181848339142748564657085133096147
26,271.189804624397808359181740001979265,270.0,1.189804624397808359181740001979265
27,292.397457241470488779357434880440625,291.2,1.197457241470488779357434880440625
28,314.404828571029201307502365222210346,313.2,1.204828571029201307502365222210346
29,337.211938603954407990292776412146600,336.0,1.211938603954407990292776412146600
30,360.818805270180446077568832384842698,359.6,1.218805270180446077568832384842698
31,385.225444712828247301970402957840229,384.0,1.225444712828247301970402957840229
32,410.431871518202074244424403804613715,409.2,1.231871518202074244424403804613715
33,436.438098909913748426012393169339541,435.2,1.238098909913748426012393169339541
34,463.244138913647298500332741724864422,462.0,1.244138913647298500332741724864422
35,490.850002497737761854591328523203195,489.6,1.250002497737761854591328523203195
36,519.255699693704394048980264015952728,518.0,1.255699693704394048980264015952728
37,548.461239700074455975301464323655453,547.2,1.261239700074455975301464323655453
38,578.466630972203329872590785392430068,577.2,1.266630972203329872590785392430068
39,609.271881300298866687938152521768246,608.0,1.271881300298866687938152521768246
40,640.876997877462046487123719295958111,639.6,1.276997877462046487123719295958111
41,673.281987359239283345947287536587869,672.0,1.281987359239283345947287536587869
42,706.486855915926713551607241436357171,705.2,1.286855915926713551607241436357171
43,740.491609278660319598557707400343064,739.2,1.291609278660319598557707400343064
44,775.296252780157648447760619279166739,774.0,1.296252780157648447760619279166739
45,810.900791390839312949246945774383008,809.6,1.300791390839312949246945774383008
46,847.305229750945329045304256742391314,846.0,1.305229750945329045304256742391314
47,884.509572199167864759273957024531815,883.2,1.309572199167864759273957024531815
48,922.513822798244390610691973438819019,921.2,1.313822798244390610691973438819019
49,961.317985357890558553609238451555450,960.0,1.317985357890558553609238451555450
50,1000.92206345539801382127452430647927,999.6,1.32206345539801382127452430647927
51,1041.32606045417687709788941959018958,1040.0,1.32606045417687709788941959018958
52,1082.52997952048428922384561106824568,1081.2,1.32997952048428922384561106824568
53,1124.53382363854796052230856316163430,1123.2,1.33382363854796052230856316163430
54,1167.33759562426610570355554422845692,1166.0,1.33759562426610570355554422845692
55,1210.94129813764166981096408871195703,1209.6,1.34129813764166981096408871195703
56,1255.34493369408867610242188524153261,1254.0,1.34493369408867610242188524153261
57,1300.54850467473132779581008039995867,1299.2,1.34850467473132779581008039995867
58,1346.55201333580169842092123098657923,1345.2,1.35201333580169842092123098657923
59,1393.35546181722909157289789020538183,1392.0,1.35546181722909157289789020538183
60,1440.95885215050312635457577270990290,1439.6,1.35885215050312635457577270990290
61,1489.36218626588304056761085669447733,1488.0,1.36218626588304056761085669447733
62,1538.56546599901740270715643712238910,1537.2,1.36546599901740270715643712238910
63,1588.56869309703118192583558474600645,1587.2,1.36869309703118192583558474600645
64,1639.37186922413081265283242686459078,1638.0,1.37186922413081265283242686459078
65,1690.97499596677235571395297935928921,1689.6,1.37499596677235571395297935928921
66,1743.37807483843301045945209133284899,1742.0,1.37807483843301045945209133284899
67,1796.58110728402197011509734857107284,1795.2,1.38110728402197011509734857107284
68,1850.58409468396285641113222336042625,1849.2,1.38409468396285641113222336042625
69,1905.38703835797665687307402534493540,1904.0,1.38703835797665687307402534493540
70,1960.98993956859115989001804471511290,1959.6,1.38993956859115989001804471511290
71,2017.39279952440028397238838834832947,2016.0,1.39279952440028397238838834832947
72,2074.59561938309439936869586161683645,2073.2,1.39561938309439936869586161683645
73,2132.59840025428068720446004231899128,2131.2,1.39840025428068720446004231899128
74,2191.40114320211076245789966251962218,2190.0,1.40114320211076245789966251962218
75,2251.00384924773115598589253809199264,2249.6,1.40384924773115598589253809199264
76,2311.40651937157080125695086919156383,2310.0,1.40651937157080125695086919156383
77,2372.60915451547836904953972099144886,2371.2,1.40915451547836904953972099144886
78,2434.61175558472112757588616855570160,2433.2,1.41175558472112757588616855570160
79,2497.41432344985595867143437556063152,2496.0,1.41432344985595867143437556063152
80,2561.01685894848222256445727081415876,2559.6,1.41685894848222256445727081415876
81,2625.41936288688531439885901146168239,2624.0,1.41936288688531439885901146168239
82,2690.62183604157899423264872726909333,2689.2,1.42183604157899423264872726909333
83,2756.62427916075388350077637198549043,2755.2,1.42427916075388350077637198549043
84,2823.42669296563889663930537408100481,2822.0,1.42669296563889663930537408100481
85,2891.02907815178181729172304709719789,2889.6,1.42907815178181729172304709719789
86,2959.43143539025471265280027594149020,2958.0,1.43143539025471265280027594149020
87,3028.63376532878942203461229187877863,3027.2,1.43376532878942203461229187877863
88,3098.63606859284793236159639744591906,3097.2,1.43606859284793236159639744591906
89,3169.43834578663206979936111362693546,3168.0,1.43834578663206979936111362693546
90,3241.04059749403659350523186271703830,3239.6,1.44059749403659350523186271703830
91,3313.44282427954945603646765042832632,3312.0,1.44282427954945603646765042832632
92,3386.64502668910270665454395393049381,3385.2,1.44502668910270665454395393049381
93,3460.64720525087725150884147344246660,3459.2,1.44720525087725150884147344246660
94,3535.44936047606444175434223082445438,3534.0,1.44936047606444175434223082445438
95,3611.05149285958723950390551593520458,3609.6,1.45149285958723950390551593520458
96,3687.45360288078350969357964375913455,3686.0,1.45360288078350969357964375913455
97,3764.65569100405380159729607315615284,3763.2,1.45569100405380159729607315615284
98,3842.65775767947581085299743247240823,3841.2,1.45775767947581085299743247240823
99,3921.45980334338755939006217666265372,3920.0,1.45980334338755939006217666265372
100,4001.06182841894118430747227054342544,3999.6,1.46182841894118430747227054342544
101,4081.46383331662909744801596748123681,4080.0,1.46383331662909744801596748123681
102,4162.66581843478415183909662961042515,4161.2,1.46581843478415183909662961042515
103,4244.66778416005534325710554257136991,4243.2,1.46778416005534325710554257136991
104,4327.46973086786046790760657644781605,4326.0,1.46973086786046790760657644781605
105,4411.07165892281706413982323824585224,4409.6,1.47165892281706413982323824585224
106,4495.47356867915287534967526060944793,4494.0,1.47356867915287534967526060944793
107,4580.67546048109699314365636465892140,4579.2,1.47546048109699314365636465892140
108,4666.67733466325276059629036994786838,4665.2,1.47733466325276059629036994786838
109,4753.47919155095344684036887698482421,4752.0,1.47919155095344684036887698482421
110,4841.08103146060164180904843773821839,4839.6,1.48103146060164180904843773821839
111,4929.48285469999325408768683184215975,4928.0,1.48285469999325408768683184215975
112,5018.68466156862694539966450234981082,5017.2,1.48466156862694539966450234981082
113,5108.68645235799977971464309867418408,5107.2,1.48645235799977971464309867418408
114,5199.48822735188981620995687983034169,5198.0,1.48822735188981620995687983034169
115,5291.08998682662633486733003021446914,5289.6,1.48998682662633486733003021446914
116,5383.49173105134833515546483531793492,5382.0,1.49173105134833515546483531793492
117,5476.69346028825191653603884077535574,5475.2,1.49346028825191653603884077535574
118,5570.69517479282710849954357710735540,5569.2,1.49517479282710849954357710735540
119,5665.49687481408468412368118083343278,5664.0,1.49687481408468412368118083343278
120,5761.09856059477346530480032607564134,5759.6,1.49856059477346530480032607564134
121,5857.50023237158858954560846746346590,5856.0,1.50023237158858954560846746346590
122,5954.70189037537118926926483829616112,5953.2,1.50189037537118926926483829616112
123,6052.70353483129990243702659170362295,6051.2,1.50353483129990243702659170362295
124,6151.50516595907461556681175882769832,6150.0,1.50516595907461556681175882769832
125,6251.10678397309281068377971370510342,6249.6,1.50678397309281068377971370510342
126,6351.50838908261887253673228105867444,6350.0,1.50838908261887253673228105867444
127,6452.70998149194669183625210135848083,6451.2,1.50998149194669183625210135848083
128,6554.71156140055587768330523520138044,6553.2,1.51156140055587768330523520138044
129,6657.51312900326188028379670535161566,6656.0,1.51312900326188028379670535161566
130,6761.11468449036030666270045740959038,6759.6,1.51468449036030666270045740959038
131,6865.51622804776569668726722218822844,6864.0,1.51622804776569668726722218822844
132,6970.71775985714501173161313592922357,6969.2,1.51775985714501173161313592922357
133,7076.71928009604607653340747910037909,7075.2,1.51928009604607653340747910037909
134,7183.52078893802120351741982056679000,7182.0,1.52078893802120351741982056679000
135,7291.12228655274621075234388839431967,7289.6,1.52228655274621075234388839431967
136,7399.52377310613504101978510691993361,7398.0,1.52377310613504101978510691993361
137,7508.72524876045017616635558697586986,7507.2,1.52524876045017616635558697586986
138,7618.72671367440902729782930550362713,7617.2,1.52671367440902729782930550362713
139,7729.52816800328647926840505496768002,7728.0,1.52816800328647926840505496768002
140,7841.12961189901375247215607237829063,7839.6,1.52961189901375247215607237829063
141,7953.53104551027374038625564885646791,7952.0,1.53104551027374038625564885646791
142,8066.73246898259297324230081822645943,8065.2,1.53246898259297324230081822645943
143,8180.73388245843034955188694572350903,8179.2,1.53388245843034955188694572350903
144,8295.53528607726277003294923568212699,8294.0,1.53528607726277003294923568212699
145,8411.13667997566780429562779485998486,8409.6,1.53667997566780429562779485998486
146,8527.53806428740351277766233463041046,8526.0,1.53806428740351277766233463041046
147,8644.73943914348553821635639733546974,8643.2,1.53943914348553821635639733546974
148,8762.74080467226158198611771251709432,8761.2,1.54080467226158198611771251709432
149,8881.54216099948336710250714258313643,8880.0,1.54216099948336710250714258313643
150,9001.14350824837619153365123389627170,8999.6,1.54350824837619153365123389627170
151,9121.54484653970616773325016077625074,9120.0,1.54484653970616773325016077625074
152,9242.74617599184523869432755117410543,9241.2,1.54617599184523869432755117410543
153,9364.74749672083405947339262159390995,9363.2,1.54749672083405947339262159390995
154,9487.54880884044282808423268687455751,9486.0,1.54880884044282808423268687455751
155,9611.15011246223014399730461846030509,9609.6,1.55011246223014399730461846030509
156,9735.55140769559997211106376053839734,9734.0,1.55140769559997211106376053839734
157,9860.75269464785678324180848213496794,9859.2,1.55269464785678324180848213496794
158,9986.75397342425894295011658540378239,9985.2,1.55397342425894295011658540378239
159,10113.5552441280704123766814244795784,10112.0,1.5552441280704123766814244795784
160,10241.1565068606108274250601774496501,10239.6,1.5565068606108274250601774496501
161,10369.5577617213040147874277340643175,10368.0,1.5577617213040147874277340643175
162,10498.7590088077250042744104081282628,10497.2,1.5590088077250042744104081282628
163,10628.7602482156455923022711767195171,10627.2,1.5602482156455923022711767195171
164,10759.5614800390785111740145082238339,10758.0,1.5614800390785111740145082238339
165,10891.1627043703202527546009017630316,10889.6,1.5627043703202527546009017630316
166,11023.5639212999925970558326652308490,11022.0,1.5639212999925970558326652308490
167,11156.7651309170828929632031602842279,11155.2,1.5651309170828929632031602842279
168,11290.7663333089831337935959535094500,11289.2,1.5663333089831337935959535094500
169,11425.5675285615278727458969816497546,11424.0,1.5675285615278727458969816497546
170,11561.1687167590310179876087295907520,11559.6,1.5687167590310179876087295907520
171,11697.5698979843215475718996101746984,11696.0,1.5698979843215475718996101746984
172,11834.7710723187781820517196647055642,11833.2,1.5710723187781820517196647055642
173,11972.7722398423630501932860955638396,11971.2,1.5722398423630501932860955638396
174,12111.5734006336543836324255826584506,12110.0,1.5734006336543836324255826584506
175,12251.1745547698782744586793529139211,12249.6,1.5745547698782744586793529139211
176,12391.5757023269395254334967531736675,12390.0,1.5757023269395254334967531736675
177,12532.7768433794516261030277091754804,12531.2,1.5768433794516261030277091754804
178,12674.7779780007658839598833158293318,12673.2,1.5779780007658839598833158293318
179,12817.5791062629997370987832858549224,12816.0,1.5791062629997370987832858549224
180,12961.1802282370642793124622521455636,12959.6,1.5802282370642793124622521455636
181,13105.5813439926910202763940556934332,13104.0,1.5813439926910202763940556934332
182,13250.7824535984579085176922233793557,13249.2,1.5824535984579085176922233793557
183,13396.7835571218146402174338782404126,13395.2,1.5835571218146402174338782404126
184,13543.5846546291072780879157844851626,13542.0,1.5846546291072780879157844851626
185,13691.1857461856022021329391163873716,13689.6,1.5857461856022021329391163873716
186,13839.5868318555094132597147127948897,13838.0,1.5868318555094132597147127948897
187,13988.7879117020052135428595343398069,13987.2,1.5879117020052135428595343398069
188,14138.7889857872542785767711581301449,14137.2,1.5889857872542785767711581301449
189,14289.5900541724311456474407518507709,14288.0,1.5900541724311456474407518507709
190,14441.1911169177411333747518385364198,14439.6,1.5911169177411333747518385364198
191,14593.5921740824407120477857257294096,14592.0,1.5921740824407120477857257294096
192,14746.7932257248573410353054119322865,14745.2,1.5932257248573410353054119322865
193,14900.7942719024087915752336733497448,14899.2,1.5942719024087915752336733497448
194,15055.5953126716219682838757366653607,15054.0,1.5953126716219682838757366653607
195,15211.1963480881512473172117859750437,15209.6,1.5963480881512473172117859750437
196,15367.5973782067963448761259606792983,15366.0,1.5973782067963448761259606792983
197,15524.7984030815197304308586268773783,15523.2,1.5984030815197304308586268773783
198,15682.7994227654635988266266855472623,15681.2,1.5994227654635988266266855472623
199,15841.6004373109664141042314586485006,15840.0,1.6004373109664141042314586485006
200,16001.2014467695790389758186161728308,15999.6,1.6014467695790389758186161728308
201,16161.6024511920804609321728543493005,16160.0,1.6024511920804609321728543493005
202,16322.8034506284931283576628518395058,16321.2,1.6034506284931283576628518395058
203,16484.8044451280979073075218946785521,16483.2,1.6044451280979073075218946785521
204,16647.6054347394486705623302440292892,16646.0,1.6054347394486705623302440292892
205,16811.2064195103865289250147360147012,16809.6,1.6064195103865289250147360147012
206,16975.6073994880537177790670934102886,16974.0,1.6073994880537177790670934102886
207,17140.8083747189071447786102086746201,17139.2,1.6083747189071447786102086746201
208,17306.8093452487316128917213608664956,17305.2,1.6093452487316128917213608664956
209,17473.6103111226527245398440842820278,17472.0,1.6103111226527245398440842820278
210,17641.2112723851494783288920314179059,17639.6,1.6112723851494783288920314179059
211,17809.6122290800665657310055528158721,17808.0,1.6122290800665657310055528158721
212,17978.8131812506263779440872615114477,17977.2,1.6131812506263779440872615114477
213,18148.8141289394407273070092846380788,18147.2,1.6141289394407273070092846380788
214,18319.6150721885222982461798389985303,18318.0,1.6150721885222982461798389985303
215,18491.2160110392958269596985835211197,18489.6,1.6160110392958269596985835211197
216,18663.6169455326090237935556230919882,18662.0,1.6169455326090237935556230919882
217,18836.8178757087432422689143332693061,18835.2,1.6178757087432422689143332693061
218,19010.8188016074239037329253606158718,19009.2,1.6188016074239037329253606158718
219,19185.6197232678306809060057905548757,19184.0,1.6197232678306809060057905548757
220,19361.2206407286074528337083370336299,19359.6,1.6206407286074528337083370336299
221,19537.6215540278720291454683254790246,19536.0,1.6215540278720291454683254790246
222,19714.8224632032256608175912510361499,19713.2,1.6224632032256608175912510361499
223,19892.8233682917623310013095652133325,19891.2,1.6233682917623310013095652133325
224,20071.6242693300778409752042614608980,20070.0,1.6242693300778409752042614608980
225,20251.2251663542786937785312291334997,20249.6,1.6251663542786937785312291334997
226,20431.6260593999907790633904952174360,20430.0,1.6260593999907790633904952174360
227,20612.8269485023678678085819847744616,20611.2,1.6269485023678678085819847744616
228,20794.8278336960999187053447061447653,20793.2,1.6278336960999187053447061447653
229,20977.6287150154212033671197983642648,20976.0,1.6287150154212033671197983642648
230,21161.2295924941182550495711869266755,21159.6,1.6295924941182550495711869266755
231,21345.6304661655376426701240042964598,21344.0,1.6304661655376426701240042964598
232,21530.8313360625935805359302894254998,21529.2,1.6313360625935805359302894254998
233,21716.8322022177753687657564097192359,21715.2,1.6322022177753687657564097192359
234,21903.6330646631546805518466818217248,21902.0,1.6330646631546805518466818217248
235,22091.2339234303926894328527650403639,22089.6,1.6339234303926894328527650403639
236,22279.6347785507470462765857765238083,22278.0,1.6347785507470462765857765238083
237,22468.8356300550787095927071386716729,22467.2,1.6356300550787095927071386716729
238,22658.8364779738586309063576261389281,22657.2,1.6364779738586309063576261389281
