Eigenstate,Energy,Kinetic Energy,Potential Energy
1,0.500000000015682444045148223813140688,0.0,0.500000000015682444045148223813140688
2,1.84623093775348140939216833697696686,1.2,0.64623093775348140939216833697696686
3,3.93633761000566951372211153669879869,3.2,0.73633761000566951372211153669879869
4,6.79966527844054909354545327165328224,6.0,0.79966527844054909354545327165328224
5,10.4480465763705818919620493799672422,9.6,0.8480465763705818919620493799672422
6,14.8870659985490344421859882828412179,14.0,0.8870659985490344421859882828412179
7,20.1197208264134212291062498587121560,19.2,0.9197208264134212291062498587121560
8,26.1477838463403467427776565928928895,25.2,0.9477838463403467427776565928928895
9,32.9723835573358953213683167706416092,32.0,0.9723835573358953213683167706416092
10,40.5942802135485177984119517932904803,39.6,0.9942802135485177984119517932904803
11,49.0140093851191718272613755858218501,48.0,1.0140093851191718272613755858218501
12,58.2319621673524286498013802754296118,57.2,1.0319621673524286498013802754296118
13,68.2484326903140513593781505324123429,67.2,1.0484326903140513593781505324123429
14,79.0636476516871486393197421364561069,78.0,1.0636476516871486393197421364561069
15,90.6777854325863549481851679516861591,89.6,1.0777854325863549481851679516861591
16,103.090988902428272699777522326630508,102.0,1.090988902428272699777522326630508
17,116.303374252392974821175265356214662,115.2,1.103374252392974821175265356214662
18,130.315037246430203111180946268435680,129.2,1.115037246430203111180946268435680
19,145.126057744363345164529102660031259,144.0,1.126057744363345164529102660031259
20,160.736503039523370370825556626972668,159.6,1.136503039523370370825556626972668
21,177.146430364830526802586389068454594,176.0,1.146430364830526802586389068454594
22,194.355888803953081154227522671661009,193.2,1.155888803953081154227522671661009
23,212.364920769243843264701100965536366,211.2,1.164920769243843264701100965536366
24,231.173563159140588184692351652537194,230.0,1.173563159140588184692351652537194
25,250.781848274961982503708292369460077,249.6,1.181848274961982503708292369460077
26,271.189804554715172055114110929915400,270.0,1.189804554715172055114110929915400
27,292.397457166058357719353648220860627,291.2,1.197457166058357719353648220860627
28,314.404828489659835238736809733847622,313.2,1.204828489659835238736809733847622
29,337.211938516399947137229120104480817,336.0,1.211938516399947137229120104480817
30,360.818805176212907270466817601229512,359.6,1.218805176212907270466817601229512
31,385.225444612219520031912550171405601,384.0,1.225444612219520031912550171405601
32,410.431871410723916656899502453707585,409.2,1.231871410723916656899502453707585
33,436.438098795337783262595493533248674,435.2,1.238098795337783262595493533248674
34,463.244138791745008996078083777647104,462.0,1.244138791745008996078083777647104
35,490.850002368280487597259834330369089,489.6,1.250002368280487597259834330369089
36,519.255699556463326805051603112277664,518.0,1.255699556463326805051603112277664
37,548.461239554820635486794965755307364,547.2,1.261239554820635486794965755307364
38,578.466630818707639627982623458445076,577.2,1.266630818707639627982623458445076
39,609.271881138332029669871558450448859,608.0,1.271881138332029669871558450448859
40,640.876997706794620899132251252348873,639.6,1.276997706794620899132251252348873
41,673.281987179641658320024157487499529,672.0,1.281987179641658320024157487499529
42,706.486855727169104838137459847965897,705.2,1.286855727169104838137459847965897
43,740.491609080512765239870024979407440,739.2,1.291609080512765239870024979407440
44,775.296252572390004436341718062982624,774.0,1.296252572390004436341718062982624
45,810.900791173221248871482209644207589,809.6,1.300791173221248871482209644207589
46,847.305229523246323711460844723681634,846.0,1.305229523246323711460844723681634
47,884.509571961157201820317405458376470,883.2,1.309571961157201820317405458376470
48,922.513822549691154162422682351947512,921.2,1.313822549691154162422682351947512
49,961.317985098563628728516582869350029,960.0,1.317985098563628728516582869350029
50,1000.92206318506606236843109828003853,999.6,1.32206318506606236843109828003853
51,1041.32606017260836295114374257583327,1040.0,1.32606017260836295114374257583327
52,1082.52997922744745405851678615268284,1081.2,1.32997922744745405851678615268284
53,1124.53382333381082430053925232351690,1123.2,1.33382333381082430053925232351690
54,1167.33759530759646220843898569671980,1166.0,1.33759530759646220843898569671980
55,1210.94129780880708216952576843363382,1209.6,1.34129780880708216952576843363382
56,1255.34493335285647229750596878584128,1254.0,1.34493335285647229750596878584128
57,1300.54850432086859616689420493185095,1299.2,1.34850432086859616689420493185095
58,1346.55201296907528315385995968812016,1345.2,1.35201296907528315385995968812016
59,1393.35546143740558817857490655156042,1392.0,1.35546143740558817857490655156042
60,1440.95885175734887713642694261923008,1439.6,1.35885175734887713642694261923008
61,1489.36218585916413007796453373396829,1488.0,1.36218585916413007796453373396829
62,1538.56546557849965319232338903459417,1537.2,1.36546557849965319232338903459417
63,1588.56869266248014875986854160833660,1587.2,1.36869266248014875986854160833660
64,1639.37186877531177975986425048930115,1638.0,1.37186877531177975986425048930115
65,1690.97499550345033097901249084057134,1689.6,1.37499550345033097901249084057134
66,1743.37807436037272112764782311108008,1742.0,1.37807436037272112764782311108008
67,1796.58110679098785817905150258624868,1795.2,1.38110679098785817905150258624868
68,1850.58409417571907398653995254147490,1849.2,1.38409417571907398653995254147490
69,1905.38703783428706156225658255928281,1904.0,1.38703783428706156225658255928281
70,1960.98993902921931013333259871930817,1959.6,1.38993902921931013333259871930817
71,2017.39279896910943438735170355297302,2016.0,1.39279896910943438735170355297302
72,2074.59561881164749607667434293883087,2073.2,1.39561881164749607667434293883087
73,2132.59839966644036314477393906313176,2131.2,1.39839966644036314477393906313176
74,2191.40114259763933268918518212690171,2190.0,1.40114259763933268918518212690171
75,2251.00384862639061297456169476163262,2249.6,1.40384862639061297456169476163262
76,2311.40651873312281015258539492361241,2310.0,1.40651873312281015258539492361241
77,2372.60915385968426294705198494835446,2371.2,1.40915385968426294705198494835446
78,2434.61175491134190276427697263466588,2433.2,1.41175491134190276427697263466588
79,2497.41432275865226986897452881339605,2496.0,1.41432275865226986897452881339605
80,2561.01685823921437814011720543634088,2559.6,1.41685823921437814011720543634088
81,2625.41936215931327157980800073042272,2624.0,1.41936215931327157980800073042272
82,2690.62183529546235429764285498596152,2689.2,1.42183529546235429764285498596152
83,2756.62427839585188695925208258590977,2755.2,1.42427839585188695925208258590977
84,2823.42669218171041839599316824076457,2822.0,1.42669218171041839599316824076457
85,2891.02907734858536179659373020507736,2889.6,1.42907734858536179659373020507736
86,2959.43143456754840903615420308586509,2958.0,1.43143456754840903615420308586509
87,3028.63376448633101922711992431978011,3027.2,1.43376448633101922711992431978011
88,3098.63606773039479419909667939861430,3097.2,1.43606773039479419909667939861430
89,3169.43834490394117011222227711688544,3168.0,1.43834490394117011222227711688544
90,3241.04059659086451119207747096338819,3239.6,1.44059659086451119207747096338819
91,3313.44282335565237012206887657873434,3312.0,1.44282335565237012206887657873434
92,3386.64502574423639133167742131167051,3385.2,1.44502574423639133167742131167051
93,3460.64720428479707116391025233977533,3459.2,1.44720428479707116391025233977533
94,3535.44935948852534597655592997263538,3534.0,1.44935948852534597655592997263538
95,3611.05149185034375807781373766964112,3609.6,1.45149185034375807781373766964112
96,3687.45360184958974757475153722451166,3686.0,1.45360184958974757475153722451166
97,3764.65568995066343387093696193384840,3763.2,1.45568995066343387093696193384840
98,3842.65775660364207767529209643813789,3841.2,1.45775660364207767529209643813789
99,3921.45980224486326091203260557938001,3920.0,1.45980224486326091203260557938001
100,4001.06182729747867558113627873453659,3999.6,1.46182729747867558113627873453659
101,4081.46383217198028331463142117024104,4080.0,1.46383217198028331463142117024104
102,4162.66581726670048179927448984115368,4161.2,1.46581726670048179927448984115368
103,4244.66778296828780632257348178483171,4243.2,1.46778296828780632257348178483171
104,4327.46972965215958743440315425617297,4326.0,1.46972965215958743440315425617297
105,4411.07165768293289264270129122107810,4409.6,1.47165768293289264270129122107810
106,4495.47356741483498929749150252344687,4494.0,1.47356741483498929749150252344687
107,4580.67545919209448773552262999880078,4579.2,1.47545919209448773552262999880078
108,4666.67733334931424451826045524817914,4665.2,1.47733334931424451826045524817914
109,4753.47919021182703700243323616158075,4752.0,1.47919021182703700243323616158075
110,4841.08103009603495806220755265622228,4839.6,1.48103009603495806220755265622228
111,4929.48285330973341392087240755107301,4928.0,1.48285330973341392087240755107301
112,5018.68466015242055861627606408996092,5017.2,1.48466015242055861627606408996092
113,5108.68645091559294308846601989759008,5107.2,1.48645091559294308846601989759008
114,5199.48822588302810812022618848526633,5198.0,1.48822588302810812022618848526633
115,5291.08998533105480991270276669124145,5289.6,1.48998533105480991270276669124145
116,5383.49172952881151874666207654769960,5382.0,1.49172952881151874666207654769960
117,5476.69345873849379946691687649325419,5475.2,1.49345873849379946691687649325419
118,5570.69517321559114149635207842936031,5569.2,1.49517321559114149635207842936031
119,5665.49687320911377237226452398771353,5664.0,1.49687320911377237226452398771353
120,5761.09855896180996295549646063922923,5759.6,1.49855896180996295549646063922923
121,5857.50023071037429419559816041793332,5856.0,1.50023071037429419559816041793332
122,5954.70188868564733642212231975138130,5953.2,1.50188868564733642212231975138130
123,6052.70353311280715993922088707034174,6051.2,1.50353311280715993922088707034174
124,6151.50516421155307802090630048678369,6150.0,1.50516421155307802090630048678369
125,6251.10678219628199383807601914704641,6249.6,1.50678219628199383807601914704641
126,6351.50838727625770765110165629109738,6350.0,1.50838727625770765110165629109738
127,6452.70997965577352002389764480226718,6451.2,1.50997965577352002389764480226718
128,6554.71155953430844422819445460767692,6553.2,1.51155953430844422819445460767692
129,6657.51312710667732893350329291954947,6656.0,1.51312710667732893350329291954947
130,6761.11468256317517389639194444082288,6759.6,1.51468256317517389639194444082288
131,6865.51622608971590595857333859696029,6864.0,1.51622608971590595857333859696029
132,6970.71775786796586768610758705360682,6969.2,1.51775786796586768610758705360682
133,7076.71927807547225920043439288429980,7075.2,1.51927807547225920043439288429980
134,7183.52078688578676247599372440938821,7182.0,1.52078688578676247599372440938821
135,7291.12228446858455927085026315156021,7289.6,1.52228446858455927085026315156021
136,7399.52377098977895016920676844616484,7398.0,1.52377098977895016920676844616484
137,7508.72524661163176890674784260647448,7507.2,1.52524661163176890674784260647448
138,7618.72671149285977253776505479508991,7617.2,1.52671149285977253776505479508991
139,7729.52816578873718589710872631960457,7728.0,1.52816578873718589710872631960457
140,7841.12960965119456336404341564013761,7839.6,1.52960965119456336404341564013761
141,7953.53104322891412637759421860141075,7952.0,1.53104322891412637759421860141075
142,8066.73246666742172707970384248617029,8065.2,1.53246666742172707970384248617029
143,8180.73388010917557981235121906975723,8179.2,1.53388010917557981235121906975723
144,8295.53528369365189501514532982434757,8294.0,1.53528369365189501514532982434757
145,8411.13667755742754588214894099044004,8409.6,1.53667755742754588214894099044004
146,8527.53806183425989026793590678166356,8526.0,1.53806183425989026793590678166356
147,8644.73943665516386212991975250018691,8643.2,1.53943665516386212991975250018691
148,8762.74080214848644783595793580543955,8761.2,1.54080214848644783595793580543955
149,8881.54215843997864913816181716061280,8880.0,1.54215843997864913816181716061280
150,9001.14350565286503645376527449219552,8999.6,1.54350565286503645376527449219552
151,9121.54484390791098836728104077555164,9120.0,1.54484390791098836728104077555164
152,9242.74617332348770765308924182678249,9241.2,1.54617332348770765308924182678249
153,9364.74749401563510276812591390114583,9363.2,1.54749401563510276812591390114583
154,9487.54880609812261871388734583458462,9486.0,1.54880609812261871388734583458462
155,9611.15010968250809550371619345882400,9609.6,1.55010968250809550371619345882400
156,9735.55140487819473210170536980078977,9734.0,1.55140487819473210170536980078977
157,9860.75269179248622687979561232163818,9859.2,1.55269179248622687979561232163818
158,9986.75397053064016641114014795631474,9985.2,1.55397053064016641114014795631474
159,10113.5552411959197262725419458000617,10112.0,1.5552411959197262725419458000617
160,10241.1565038896437501934731997326315,10239.6,1.5565038896437501934731997326315
161,10369.5577587112352660477680782520935,10368.0,1.5577587112352660477680782520935
162,10498.7590057582684981490600736404981,10497.2,1.5590057582684981490600736404981
163,10628.7602451265144307032332988306177,10627.2,1.5602451265144307032332988306177
164,10759.5614769099849770544526513136202,10758.0,1.5614769099849770544526513136202
165,10891.1627012009758033249604949725384,10889.6,1.5627012009758033249604949725384
166,11023.5639180901078569641985646858947,11022.0,1.5639180901078569641985646858947
167,11156.7651276663676474395444976957948,11155.2,1.5651276663676474395444976957948
168,11290.7663300171463217575464465179123,11289.2,1.5663300171463217575464465179123
169,11425.5675252282775798777163302171039,11424.0,1.5675252282775798777163302171039
170,11561.1687133840744697619673315792948,11559.6,1.5687133840744697619673315792948
171,11697.5698945673651022541263803155099,11696.0,1.5698945673651022541263803155099
172,11834.7710688595273236561494037711788,11833.2,1.5710688595273236561494037711788
173,11972.7722363405223814033400279052089,11971.2,1.5722363405223814033400279052089
174,12111.5733970889276186820555667860690,12110.0,1.5733970889276186820555667860690
175,12251.1745511819682319748031736039535,12249.6,1.5745511819682319748031736039535
176,12391.5756986955481212390487814857304,12390.0,1.5756986955481212390487814857304
177,12532.7768397042798659802461406089809,12531.2,1.5768397042798659802461406089809
178,12674.7779742815138563734518998199496,12673.2,1.5779742815138563734518998199496
179,12817.5791024993666058784423348831069,12816.0,1.5791024993666058784423348831069
180,12961.1802244287482762947003271014187,12959.6,1.5802244287482762947003271014187
181,13105.5813401393894379048284802851021,13104.0,1.5813401393894379048284802851021
182,13250.7824496998670924017433849384720,13249.2,1.5824496998670924017433849384720
183,13396.7835531776299816488945823628297,13395.2,1.5835531776299816488945823628297
184,13543.5846506390232065150138377057536,13542.0,1.5846506390232065150138377057536
185,13691.1857421493121775914874689527086,13689.6,1.5857421493121775914874689527086
186,13839.5868277727059187609405588004086,13838.0,1.5868277727059187609405588004086
187,13988.7879075723797474174996220751363,13987.2,1.5879075723797474174996220751363
188,14138.7889816104973467750173804342598,14137.2,1.5889816104973467750173804342598
189,14289.5900499482322539943163332032757,14288.0,1.5900499482322539943163332032757
190,14441.1911126457887797804947201973048,14439.6,1.5911126457887797804947201973048
191,14593.5921697624223786728122132438709,14592.0,1.5921697624223786728122132438709
192,14746.7932213564594864093231786343874,14745.2,1.5932213564594864093231786343874
193,14900.7942674853168426700696885465316,14899.2,1.5942674853168426700696885465316
194,15055.5953082055203125395804925741448,15054.0,1.5953082055203125395804925741448
195,15211.1963435727232246209977558323694,15209.6,1.5963435727232246209977558323694
196,15367.5973736417242394936939261495748,15366.0,1.5973736417242394936939261495748
197,15524.7983984664847628896617218573582,15523.2,1.5983984664847628896617218573582
198,15682.7994181001459177506180348168834,15681.2,1.5994181001459177506180348168834
199,15841.6004325950450879996369857586179,15840.0,1.6004325950450879996369857586179
200,16001.2014420027320479674727723308158,15999.6,1.6014420027320479674727723308158
201,16161.6024463739846884499507983573524,16160.0,1.6024463739846884499507983573524
202,16322.8034457588243527725381047613334,16321.2,1.6034457588243527725381047613334
203,16484.8044402065307935167747722907989,16483.2,1.6044402065307935167747722907989
204,16647.6054297656567615234275079945062,16646.0,1.6054297656567615234275079945062
205,16811.2064144840422371376771122333174,16809.6,1.6064144840422371376771122333174
206,16975.6073944088283167150363593869987,16974.0,1.6073944088283167150363593869987
207,17140.8083695864707602586234910675412,17139.2,1.6083695864707602586234910675412
208,17306.8093400627532144091955869227246,17305.2,1.6093400627532144091955869227246
209,17473.6103058828001165307690299361147,17472.0,1.6103058828001165307690299361147
210,17641.2112670910892913874257896443916,17639.6,1.6112670910892913874257896443916
211,17809.6122237314642477702615449965377,17808.0,1.6122237314642477702615449965377
212,17978.8131758471461853015973856089380,17977.2,1.6131758471461853015973856089380
213,18148.8141234807457157943426455812561,18147.2,1.6141234807457157943426455812561
214,18319.6150666742743141421920719264107,18318.0,1.6150666742743141421920719264107
215,18491.2160054691554979468815846731822,18489.6,1.6160054691554979468815846731822
216,18663.6169399062357498369527728048902,18662.0,1.6169399062357498369527728048902
217,18836.8178700257951864370611589561925,18835.2,1.6178700257951864370611589561925
218,19010.8187958675579829602707223863488,19009.2,1.6187958675579829602707223863488
219,19185.6197174707025566962631470989324,19184.0,1.6197174707025566962631470989324
220,19361.2206348738715219035819722722913,19359.6,1.6206348738715219035819722722913
221,19537.6215481151814140081938165888005,19536.0,1.6215481151814140081938165888005
222,19714.8224572322322003057242881141050,19713.2,1.6224572322322003057242881141050
223,19892.8233622621165707281918817719391,19891.2,1.6233622621165707281918817719391
224,20071.6242632414290237345299983570088,20070.0,1.6242632414290237345299983570088
225,20251.2251602062747498814314919371444,20249.6,1.6251602062747498814314919371444
226,20431.6260531922783166124483517121579,20430.0,1.6260531922783166124483517121579
227,20612.8269422345921629081846592472436,20611.2,1.6269422345921629081846592472436
228,20794.8278273679049056077737786860732,20793.2,1.6278273679049056077737786860732
229,20977.6287086264494645537746584618761,20976.0,1.6287086264494645537746584618761
230,21161.2295860440110112467151953641359,21159.6,1.6295860440110112467151953641359
231,21345.6304596539347427985366063475845,21344.0,1.6304596539347427985366063475845
232,21530.8313294891334915938429510382297,21529.2,1.6313294891334915938429510382297
233,21716.8321955820951656444435334669683,21715.2,1.6321955820951656444435334669683
234,21903.6330579648900357832371105254031,21902.0,1.6330579648900357832371105254031
235,22091.2339166691778628685209094219289,22089.6,1.6339166691778628685209094219289
236,22279.6347717262148746974754667933389,22278.0,1.6347717262148746974754667933389
237,22468.8356231668605962489347252622992,22467.2,1.6356231668605962489347252622992
238,22658.8364710215845349864346339558024,22657.2,1.6364710215845349864346339558024
