Eigenstate,Energy,Kinetic Energy,Potential Energy
1,0.500000000203752311112772383823469180,0.0,0.500000000203752311112772383823469180
2,1.84623093898111287685999610777980325,1.2,0.64623093898111287685999610777980325
3,3.93633761361178069814388401312333060,3.2,0.73633761361178069814388401312333060
4,6.79966528595178908536324239726830292,6.0,0.79966528595178908536324239726830292
5,10.4480465893818562665644198205504923,9.6,0.8480465893818562665644198205504923
6,14.8870660186833324776266982266204867,14.0,0.8870660186833324776266982266204867
7,20.1197208553070398959183485312282651,19.2,0.9197208553070398959183485312282651
8,26.1477838856367523326719644501901780,25.2,0.9477838856367523326719644501901780
9,32.9723836086828910076619578815594001,32.0,0.9723836086828910076619578815594001
10,40.5942802785968262473124666460629112,39.6,0.9942802785968262473124666460629112
11,49.0140094655216839837638324469865560,48.0,1.0140094655216839837638324469865560
12,58.2319622647637920294976452826148795,57.2,1.0319622647637920294976452826148795
13,68.2484328063904432023889340836873256,67.2,1.0484328063904432023889340836873256
14,79.0636477880861554869885245625044181,78.0,1.0636477880861554869885245625044181
15,90.6777855909669164574474525357642873,89.6,1.0777855909669164574474525357642873
16,103.090989084450665843829740474401241,102.0,1.090989084450665843829740474401241
17,116.303374459718824396765674458726080,115.2,1.103374459718824396765674458726080
18,130.315037480722509924075000885837312,129.2,1.115037480722509924075000885837312
19,145.126058007286526429385096826146651,144.0,1.126058007286526429385096826146651
20,160.736503332743308764572968445854459,159.6,1.136503332743308764572968445854459
21,177.146430690014625790686055526062652,176.0,1.146430690014625790686055526062652
22,194.355889162770324961873626704169145,193.2,1.155889162770324961873626704169145
23,212.364921163364860357099836668184015,211.2,1.164921163364860357099836668184015
24,231.173563590237717449541289163081114,230.0,1.173563590237717449541289163081114
25,250.781848744709341553462869464344702,249.6,1.181848744709341553462869464344702
26,271.189805064788727222625226186516914,270.0,1.189805064788727222625226186516914
27,292.397457718135995430718614351317823,291.2,1.197457718135995430718614351317823
28,314.404829085421434526348888489109924,313.2,1.204829085421434526348888489109924
29,337.211939157527453113632639055986396,336.0,1.211939157527453113632639055986396
30,360.818805864390405426131769445061432,359.6,1.218805864390405426131769445061432
31,385.225445349133311251783260279525915,384.0,1.225445349133311251783260279525915
32,410.431872198062592874542491910122567,409.2,1.231872198062592874542491910122567
33,436.438099634792303689066417262939519,435.2,1.238099634792303689066417262939519
34,463.244139685008776874728856553644403,462.0,1.244139685008776874728856553644403
35,490.850003317049427446677505346836917,489.6,1.250003317049427446677505346836917
36,519.255700562435962120930062539353848,518.0,1.255700562435962120930062539353848
37,548.461240619698166880353957098767958,547.2,1.261240619698166880353957098767958
38,578.466631944194023383982661560233169,577.2,1.266631944194023383982661560233169
39,609.271882326134056711640695134442780,608.0,1.271882326134056711640695134442780
40,640.876998958621996151555899420115158,639.6,1.276998958621996151555899420115158
41,673.281988497207080464330964841940692,672.0,1.281988497207080464330964841940692
42,706.486857112188346454679611644965256,705.2,1.286857112188346454679611644965256
43,740.491610534704753337050772596064871,739.2,1.291610534704753337050772596064871
44,775.296254097476901365468019266577163,774.0,1.296254097476901365468019266577163
45,810.900792770928533628681076236353815,809.6,1.300792770928533628681076236353815
46,847.305231195302873628944475790529737,846.0,1.305231195302873628944475790529737
47,884.509573709295374650253996796447180,883.2,1.309573709295374650253996796447180
48,922.513824375646870557499971618215420,921.2,1.313824375646870557499971618215420
49,961.317987004076455123998166525133646,960.0,1.317987004076455123998166525133646
50,1000.92206517187929427112234858979448,999.6,1.32206517187929427112234858979448
51,1041.32606224246910864122196554830487,1040.0,1.32606224246910864122196554830487
52,1082.52998138210671871065157239166671,1081.2,1.32998138210671871065157239166671
53,1124.53382557502359453114562966715126,1123.2,1.33382557502359453114562966715126
54,1167.33759763712179105627706752488302,1166.0,1.33759763712179105627706752488302
55,1210.94130022840817451719314585440424,1209.6,1.34130022840817451719314585440424
56,1255.34493586430077074166981377185227,1254.0,1.34493586430077074166981377185227
57,1300.54850692592786734538339773914940,1299.2,1.34850692592786734538339773914940
58,1346.55201566952570453798947656597625,1345.2,1.35201566952570453798947656597625
59,1393.35546423502783533930594929523795,1392.0,1.35546423502783533930594929523795
60,1440.95885465392821149318303170461832,1439.6,1.35885465392821149318303170461832
61,1489.36218885649048713912638410266791,1488.0,1.36218885649048713912638410266791
62,1538.56546867836773129661726733822601,1537.2,1.36546867836773129661726733822601
63,1588.56869586668949832804470543971411,1587.2,1.36869586668949832804470543971411
64,1639.37187208566689306623641095937316,1638.0,1.37187208566689306623641095937316
65,1690.97499892176073245259768947443674,1689.6,1.37499892176073245259768947443674
66,1743.37807788845305819280826846617952,1742.0,1.37807788845305819280826846617952
67,1796.58111043065799264569837358404485,1795.2,1.38111043065799264569837358404485
68,1850.58409792880417400011401346970249,1849.2,1.38409792880417400011401346970249
69,1905.38704170261769412385324748579290,1904.0,1.38704170261769412385324748579290
70,1960.98994301463153420048771490058488,1959.6,1.38994301463153420048771490058488
71,2017.39280307344489456615496392773030,2016.0,1.39280307344489456615496392773030
72,2074.59562303675351691602287696365582,2073.2,1.39562303675351691602287696365582
73,2132.59840401417004404372751599302625,2131.2,1.39840401417004404372751599302625
74,2191.40114706985164342853008638116528,2190.0,1.40114706985164342853008638116528
75,2251.00385322495048988383854400141768,2249.6,1.40385322495048988383854400141768
76,2311.40652345990125292398266607088258,2310.0,1.40652345990125292398266607088258
77,2372.60915871655843210771653362905077,2371.2,1.40915871655843210771653362905077
78,2434.61175990019521781874158619788104,2433.2,1.41175990019521781874158619788104
79,2497.41432788137450812355392623839944,2496.0,1.41432788137450812355392623839944
80,2561.01686349770177422127502604972801,2559.6,1.41686349770177422127502604972801
81,2625.41936755546861765865225774417755,2624.0,1.41936755546861765865225774417755
82,2690.62184083119510103286227890761427,2689.2,1.42184083119510103286227890761427
83,2756.62428407307824517096348784804402,2755.2,1.42428407307824517096348784804402
84,2823.42669800235346148312991567099932,2822.0,1.42669800235346148312991567099932
85,2891.02908331457512891062721910191289,2889.6,1.42908331457512891062721910191289
86,2959.43144068082200902410446072269571,2958.0,1.43144068082200902410446072269571
87,3028.63377074883273535697887499419392,3027.2,1.43377074883273535697887499419392
88,3098.63607414407618968095661306287431,3097.2,1.43607414407618968095661306287431
89,3169.43835147076119442857471897930746,3168.0,1.43835147076119442857471897930746
90,3241.04060331278960725092229178712357,3239.6,1.44060331278960725092229178712357
91,3313.44283023465658224665238687747117,3312.0,1.44283023465658224665238687747117
92,3386.64503278230147410085829747854681,3385.2,1.44503278230147410085829747854681
93,3460.64721148391259911733734453753063,3459.2,1.44721148391259911733734453753063
94,3535.44936685068882419902906613327555,3534.0,1.44936685068882419902906613327555
95,3611.05149937756073367738966824761495,3609.6,1.45149937756073367738966824761495
96,3687.45360954387392206935105653962930,3686.0,1.45360954387392206935105653962930
97,3764.65569781403677649840821037491152,3763.2,1.45569781403677649840821037491152
98,3842.65776463813493964208466314718326,3841.2,1.45776463813493964208466314718326
99,3921.45981045251449059584437457484655,3920.0,1.45981045251449059584437457484655
100,4001.06183568033573470310200365994601,3999.6,1.46183568033573470310200365994601
101,4081.46384073209936409683614913358537,4080.0,1.46384073209936409683614913358537
102,4162.66582600614662512359104372106994,4161.2,1.46582600614662512359104372106994
103,4244.66779188913502090704408550751792,4243.2,1.46779188913502090704408550751792
104,4327.46973875649097004361125072240352,4326.0,1.46973875649097004361125072240352
105,4411.07166697284074934880756653797104,4409.6,1.47166697284074934880756653797104
106,4495.47357689242095780884266080581122,4494.0,1.47357689242095780884266080581122
107,4580.67546885946966080997933887021786,4579.2,1.47546885946966080997933887021786
108,4666.67734320859929447863314484910433,4665.2,1.47734320859929447863314484910433
109,4753.47920026515234137166238148477568,4752.0,1.47920026515234137166238148477568
110,4841.08104034554072633617629746826507,4839.6,1.48104034554072633617629746826507
111,4929.48286375756981549699650668742802,4928.0,1.48286375756981549699650668742802
112,5018.68467080074785189627815988007414,5017.2,1.48467080074785189627815988007414
113,5108.68646176658160577400748221383950,5107.2,1.48646176658160577400748221383950
114,5199.48823693885896872034177483796753,5198.0,1.48823693885896872034177483796753
115,5291.08999659391918048226098314758981,5289.6,1.48999659391918048226098314758981
116,5383.49174100091132887535621569408794,5382.0,1.49174100091132887535621569408794
117,5476.69347042204173153857962724260580,5475.2,1.49347042204173153857962724260580
118,5570.69518511281076723868060346534031,5569.2,1.49518511281076723868060346534031
119,5665.49688532223969071734150166580377,5664.0,1.49688532223969071734150166580377
120,5761.09857129308793923179843901719165,5759.6,1.49857129308793923179843901719165
121,5857.50024326206140067249320726849515,5856.0,1.50024326206140067249320726849515
122,5954.70190146001209422817592817623937,5953.2,1.50190146001209422817592817623937
123,6052.70354611212968237595282157280673,6051.2,1.50354611212968237595282157280673
124,6151.50517743812521529396986100186265,6150.0,1.50517743812521529396986100186265
125,6251.10679565240747922816840177586645,6249.6,1.50679565240747922816840177586645
126,6351.50840096425230514725592491908827,6350.0,1.50840096425230514725592491908827
127,6452.70999357796517344215609170034229,6451.2,1.50999357796517344215609170034229
128,6554.71157369303742783902038791815562,6553.2,1.51157369303742783902038791815562
129,6657.51314150429639962165032101972707,6656.0,1.51314150429639962165032101972707
130,6761.11469720204972487732082310360324,6759.6,1.51469720204972487732082310360324
131,6865.51624097222412207588432559859073,6864.0,1.51624097222412207588432559859073
132,6970.71777299649888231484152603004715,6969.2,1.51777299649888231484152603004715
133,7076.71929345243431278148770889127755,7075.2,1.51929345243431278148770889127755
134,7183.52080251359536270729412521041510,7182.0,1.52080251359536270729412521041510
135,7291.12230034967064298134860076760106,7289.6,1.52230034967064298134860076760106
136,7399.52378712658704690215564069779058,7398.0,1.52378712658704690215564069779058
137,7508.72526300662016623916512241248105,7507.2,1.52526300662016623916512241248105
138,7618.72672814850068316341138641506152,7617.2,1.52672814850068316341138641506152
139,7729.52818270751691650075196085013373,7728.0,1.52818270751691650075196085013373
140,7841.12962683561368531523367505143740,7839.6,1.52962683561368531523367505143740
141,7953.53106068148764827263234486723894,7952.0,1.53106068148764827263234486723894
142,8066.73248439067926916095649471760661,8065.2,1.53248439067926916095649471760661
143,8180.73389810566155029454418729938702,8179.2,1.53389810566155029454418729938702
144,8295.53530196592566834875516007837301,8294.0,1.53530196592566834875516007837301
145,8411.13669610806364298451036084965977,8409.6,1.53669610806364298451036084965977
146,8527.53808066584816075319241636725573,8526.0,1.53808066584816075319241636725573
147,8644.73945577030966856946252197859130,8643.2,1.53945577030966856946252197859130
148,8762.74082154981085208152679791179121,8761.2,1.54082154981085208152679791179121
149,8881.54217813011860074032375017362283,8880.0,1.54217813011860074032375017362283
150,9001.14352563447356320903450606532255,8999.6,1.54352563447356320903450606532255
151,9121.54486418365738902770947624078487,9120.0,1.54486418365738902770947624078487
152,9242.74619389605774683272789940323065,9241.2,1.54619389605774683272789940323065
153,9364.74751488773120808134427068895803,9363.2,1.54751488773120808134427068895803
154,9487.54882727246408018113472077004576,9486.0,1.54882727246408018113472077004576
155,9611.15013116183126726091936128956122,9609.6,1.55013116183126726091936128956122
156,9735.55142666525323645011934876802394,9734.0,1.55142666525323645011934876802394
157,9860.75271389005116071375872290436865,9859.2,1.55271389005116071375872290436865
158,9986.75399294150031006183430371246399,9985.2,1.55399294150031006183430371246399
159,10113.5552639228817548065192842854586,10112.0,1.5552639228817548065192842854586
160,10241.1565269355324472053877769981346,10239.6,1.5565269355324472053877769981346
161,10369.5577820788937399874397034000213,10368.0,1.5577820788937399874397034000213
162,10498.7590294505584012237021897043552,10497.2,1.5590294505584012237021897043552
163,10628.7602691463161803963948077497657,10627.2,1.5602691463161803963948077497657
164,10759.5615012601979803039588222666409,10758.0,1.5615012601979803039588222666409
165,10891.1627258845186834028873124426134,10889.6,1.5627258845186834028873124426134
166,11023.5639431099186831026789317910743,11022.0,1.5639431099186831026789317910743
167,11156.7651530254041672469869426291211,11155.2,1.5651530254041672469869426291211
168,11290.7663557183861964706456790852886,11289.2,1.5663557183861964706456790852886
169,11425.5675512747186224954481278904446,11424.0,1.5675512747186224954481278904446
170,11561.1687397787348861085942078246295,11559.6,1.5687397787348861085942078246295
171,11697.5699213132837350190891612123360,11696.0,1.5699213132837350190891612123360
172,11834.7710959597638994595889383111471,11833.2,1.5710959597638994595889383111471
173,11972.7722637981577609368785490941780,11971.2,1.5722637981577609368785490941780
174,12111.5734249070640499753753510391766,12110.0,1.5734249070640499753753510391766
175,12251.1745793637296068394826353817088,12249.6,1.5745793637296068394826353817088
176,12391.5757272440802349420641328735998,12390.0,1.5757272440802349420641328735998
177,12532.7768686227506802005105708924893,12531.2,1.5768686227506802005105708924893
178,12674.7780035731137654957510177935976,12673.2,1.5780035731137654957510177935976
179,12817.5791321673087066801337431900113,12816.0,1.5791321673087066801337431900113
180,12961.1802544762686410815749635420282,12959.6,1.5802544762686410815749635420282
181,13105.5813705697473911535829420838583,13104.0,1.5813705697473911535829420838583
182,13250.7824805163454909675893516454795,13249.2,1.5824805163454909675893516454795
183,13396.7835843835354985979299653986591,13395.2,1.5835843835354985979299653986591
184,13543.5846822376866186421041179276117,13542.0,1.5846822376866186421041179276117
185,13691.1857741440886566855550567660129,13689.6,1.5857741440886566855550567660129
186,13839.5868601669753266807303188584942,13838.0,1.5868601669753266807303188584942
187,13988.7879403695469350420926781983680,13987.2,1.5879403695469350420926781983680
188,14138.7890148139924568945889607019209,14137.2,1.5890148139924568945889607019209
189,14289.5900835615110282078883496066403,14288.0,1.5900835615110282078883496066403
190,14441.1911466723328694687151597720565,14439.6,1.5911466723328694687151597720565
191,14593.5922042057396601151048003851866,14592.0,1.5922042057396601151048003851866
192,14746.7932562200843801160897234088448,14745.2,1.5932562200843801160897234088448
193,14900.7943027728106370019991133824456,14899.2,1.5943027728106370019991133824456
194,15055.5953439204714916875184522139096,15054.0,1.5953439204714916875184522139096
195,15211.1963797187478010212654476253524,15209.6,1.5963797187478010212654476253524
196,15367.5974102224660907552086120904181,15366.0,1.5974102224660907552086120904181
197,15524.7984354856159733107120914237273,15523.2,1.5984354856159733107120914237273
198,15682.7994555613671245046795172887701,15681.2,1.5994555613671245046795172887701
199,15841.6004705020858320711821392064878,15840.0,1.6004705020858320711821392064878
200,16001.2014803593511299203353466748982,15999.6,1.6014803593511299203353466748982
201,16161.6024851839705291124425950491488,16160.0,1.6024851839705291124425950491488
202,16322.8034850259953589252009438169854,16321.2,1.6034850259953589252009438169854
203,16484.8044799347357286703637206104367,16483.2,1.6044799347357286703637206104367
204,16647.6054699587751218764834969583903,16646.0,1.6054699587751218764834969583903
205,16811.2064551459846328048437036032584,16809.6,1.6064551459846328048437036032584
206,16975.6074355435368583191195448149446,16974.0,1.6074355435368583191195448149446
207,17140.8084111979194509812756033636005,17139.2,1.6084111979194509812756033636005
208,17306.8093821549483475970355282629045,17305.2,1.6093821549483475970355282629045
209,17473.6103484597806789557238633407032,17472.0,1.6103484597806789557238633407032
210,17641.2113101569273722621010901581038,17639.6,1.6113101569273722621010901581038
211,17809.6122672902654536212157212507160,17808.0,1.6122672902654536212157212507160
212,17978.8132199030500608055147551470660,17977.2,1.6132199030500608055147551470660
213,18148.8141680379261706842695281572105,18147.2,1.6141680379261706842695281572105
214,18319.6151117369400562932189031661673,18318.0,1.6151117369400562932189031661673
215,18491.2160510415504727529295798008735,18489.6,1.6160510415504727529295798008735
216,18663.6169859926395859926540067048321,18662.0,1.6169859926395859926540067048321
217,18836.8179166305236482411034668789892,18835.2,1.6179166305236482411034668789892
218,19010.8188429949634292590224681217974,19009.2,1.6188429949634292590224681217974
219,19185.6197651251744065889981890498313,19184.0,1.6197651251744065889981890498313
220,19361.2206830598367273331844189847438,19359.6,1.6206830598367273331844189847438
221,19537.6215968371049393638508361564436,19536.0,1.6215968371049393638508361564436
222,19714.8225064946175091668050012611148,19713.2,1.6225064946175091668050012611148
223,19892.8234120695061198812672387653500,19891.2,1.6234120695061198812672387653500
224,20071.6243135984047645983120526312706,20070.0,1.6243135984047645983120526312706
225,20251.2252111174586374773076633333238,20249.6,1.6252111174586374773076633333238
226,20431.6261046623328262212509706619673,20430.0,1.6261046623328262212509706619673
227,20612.8269942682208145568754284428906,20611.2,1.6269942682208145568754284428906
228,20794.8278799698527965328421004943619,20793.2,1.6278799698527965328421004943619
229,20977.6287618015038097913415688705730,20976.0,1.6287618015038097913415688705730
230,21161.2296397970016925026088911770789,21159.6,1.6296397970016925026088911770789
231,21345.6305139897348657549645198990836,21344.0,1.6305139897348657549645198990836
232,21530.8313844126599518127275905602352,21529.2,1.6313844126599518127275905602352
233,21716.8322510983092232310175509604568,21715.2,1.6322510983092232310175509604568
234,21903.6331140787978989771156017008463,21902.0,1.6331140787978989771156017008463
235,22091.2339733858312807331783496629914,22089.6,1.6339733858312807331783496629914
236,22279.6348290507117390828639061133907,22278.0,1.6348290507117390828639061133907
237,22468.8356811043455532058856209037778,22467.2,1.6356811043455532058856209037778
238,22658.8365295772496058154913279553661,22657.2,1.6365295772496058154913279553661
