Eigenstate,Energy,Kinetic Energy,Potential Energy
1,0.500000005159741041048623992688046461,0.0,0.500000005159741041048623992688046461
2,1.84623097133449273936705291249444663,1.2,0.64623097133449273936705291249444663
3,3.93633770866213360517479626105093116,3.2,0.73633770866213360517479626105093116
4,6.79966548397338430951393531248778231,6.0,0.79966548397338430951393531248778231
5,10.4480469324897721831922505843887478,9.6,0.8480469324897721831922505843887478
6,14.8870665497893956039927426316808491,14.0,0.8870665497893956039927426316808491
7,20.1197216177450815393921729487260804,19.2,0.9197216177450815393921729487260804
8,26.1477849230155620088237319100069209,25.2,0.9477849230155620088237319100069209
9,32.9723849648263789480535210006000689,32.0,0.9723849648263789480535210006000689
10,40.5942819975215796059940995296749716,39.6,0.9942819975215796059940995296749716
11,49.0140115914321958210916775143437490,48.0,1.0140115914321958210916775143437490
12,58.2319648420567686381247387795773722,57.2,1.0319648420567686381247387795773722
13,68.2484358796641289838970503276223519,67.2,1.0484358796641289838970503276223519
14,79.0636514021526231299242303466294487,78.0,1.0636514021526231299242303466294487
15,90.6777897908662259187254827886943524,89.6,1.0777897908662259187254827886943524
16,103.090993915466279135159473110046023,102.0,1.090993915466279135159473110046023
17,116.303379967393921054474946675058001,115.2,1.103379967393921054474946675058001
18,130.315043710876992076152481289750289,129.2,1.115043710876992076152481289750289
19,145.126065006034586171659507373630735,144.0,1.126065006034586171659507373630735
20,160.736511146511481126518448124352382,159.6,1.136511146511481126518448124352382
21,177.146439365560282124258734581779693,176.0,1.146439365560282124258734581779693
22,194.355898747200581899659461191064875,193.2,1.155898747200581899659461191064875
23,212.364931704155892962016712827527826,211.2,1.164931704155892962016712827527826
24,231.173575135254474389360701567433577,230.0,1.173575135254474389360701567433577
25,250.781861342225666624655817035110816,249.6,1.181861342225666624655817035110816
26,271.189818763507896271770436886686881,270.0,1.189818763507896271770436886686881
27,292.397472567211681278793323270592872,291.2,1.197472567211681278793323270592872
28,314.404845134479115279068975000615547,313.2,1.204845134479115279068975000615547
29,337.211956456686281494564955402569596,336.0,1.211956456686281494564955402569596
30,360.818824464285558669626407856380593,359.6,1.218824464285558669626407856380593
31,385.225465300938842756811195015132150,384.0,1.225465300938842756811195015132150
32,410.431893553514808329722481089119138,409.2,1.231893553514808329722481089119138
33,436.438122446213685791385128184589231,435.2,1.238122446213685791385128184589231
34,463.244164005332484121563655379977084,462.0,1.244164005332484121563655379977084
35,490.850029199844393813767542009498573,489.6,1.250029199844393813767542009498573
36,519.255728061932625771395209565552038,518.0,1.255728061932625771395209565552038
37,548.461269790814857400069556120286301,547.2,1.261269790814857400069556120286301
38,578.466662842564038421235348232609729,577.2,1.266662842564038421235348232609729
39,609.271915008133460326187238081196066,608.0,1.271915008133460326187238081196066
40,640.877033481398172660369035980194269,639.6,1.277033481398172660369035980194269
41,673.282024918708079117664796718973802,672.0,1.282024918708079117664796718973802
42,706.486895491193053895032183578145469,705.2,1.286895491193053895032183578145469
43,740.491650930853932493116438826925066,739.2,1.291650930853932493116438826925066
44,775.296296571305137220910943727618841,774.0,1.296296571305137220910943727618841
45,810.900837383897128189173236814226092,809.6,1.300837383897128189173236814226092
46,847.305278009833734398087437821688947,846.0,1.305278009833734398087437821688947
47,884.509622788805943023578218862405517,883.2,1.309622788805943023578218862405517
48,922.513875784586138761921082072957113,921.2,1.313875784586138761921082072957113
49,961.318040807962122676377662907067630,960.0,1.318040807962122676377662907067630
50,1000.92212143733611741293129575032022,999.6,1.32212143733611741293129575032022
51,1041.32612103726849883624736613802968,1040.0,1.32612103726849883624736613802968
52,1082.53004277520764907927975919377173,1081.2,1.33004277520764907927975919377173
53,1124.53388963661487604878674807606845,1123.2,1.33388963661487604878674807606845
54,1167.33766443866578347645619189223744,1166.0,1.33766443866578347645619189223744
55,1210.94136984268600030404286156061303,1209.6,1.34136984268600030404286156061303
56,1255.34500836545910382523516916406693,1254.0,1.34500836545910382523516916406693
57,1300.54858238952737226047476744339983,1299.2,1.34858238952737226047476744339983
58,1346.55209417259120548861943197647740,1345.2,1.35209417259120548861943197647740
59,1393.35554585610029896237826635736757,1392.0,1.35554585610029896237826635736757
60,1440.95893947311863159486995864758894,1439.6,1.35893947311863159486995864758894
61,1489.36227695553576446436741847189665,1488.0,1.36227695553576446436741847189665
62,1538.56556014068864648702249093877004,1537.2,1.36556014068864648702249093877004
63,1588.56879077745088164849977586893726,1587.2,1.36879077745088164849977586893726
64,1639.37197053184010025979245163416341,1638.0,1.37197053184010025979245163416341
65,1690.97510099218854224290647637367299,1689.6,1.37510099218854224290647637367299
66,1743.37818367391711352158897799683662,1742.0,1.37818367391711352158897799683662
67,1796.58122002394891474020128020248375,1795.2,1.38122002394891474020128020248375
68,1850.58421142479448584536817737349980,1849.2,1.38421142479448584536817737349980
69,1905.38715919833769790273980487082588,1904.0,1.38715919833769790273980487082588
70,1960.99006460934829580031101860756471,1959.6,1.39006460934829580031101860756471
71,2017.39292886874449737605988668880299,2016.0,1.39292886874449737605988668880299
72,2074.59575313662675690128575488332520,2073.2,1.39575313662675690128575488332520
73,2132.59853852510174853106500778489817,2131.2,1.39853852510174853106500778489817
74,2191.40128610091380722570144776406919,2190.0,1.40128610091380722570144776406919
75,2251.00399688789943434666436986733039,2249.6,1.40399688789943434666436986733039
76,2311.40667186927902643945886435349299,2310.0,1.40667186927902643945886435349299
77,2372.60931198979868425416343958351979,2371.2,1.40931198979868425416343958351979
78,2434.61191815773379427037336910086841,2433.2,1.41191815773379427037336910086841
79,2497.41449124676502927229122489964547,2496.0,1.41449124676502927229122489964547
80,2561.01703209773647758569822771679924,2559.6,1.41703209773647758569822771679924
81,2625.41954152030476254031929939052054,2624.0,1.41954152030476254031929939052054
82,2690.62202029448725367499494353151895,2689.2,1.42202029448725367499494353151895
83,2756.62446917211678399581352645790779,2755.2,1.42446917211678399581352645790779
84,2823.42688887820966496620104060272495,2822.0,1.42688887820966496620104060272495
85,2891.02928011225323343955628529931390,2889.6,1.42928011225323343955628529931390
86,2959.43164354941865084935061610320103,2958.0,1.43164354941865084935061610320103
87,3028.63397984170421964889473140751132,3027.2,1.43397984170421964889473140751132
88,3098.63628961901406095973025210043881,3097.2,1.43628961901406095973025210043881
89,3169.43857349017661644668186588002434,3168.0,1.43857349017661644668186588002434
90,3241.04083204390709702148862411071281,3239.6,1.44083204390709702148862411071281
91,3313.44306584971768258993842884636690,3312.0,1.44306584971768258993842884636690
92,3386.64527545877899211759891004247202,3385.2,1.44527545877899211759891004247202
93,3460.64746140473608471619542695761537,3459.2,1.44746140473608471619542695761537
94,3535.44962420448201356518724828527639,3534.0,1.44962420448201356518724828527639
95,3611.05176435889173776962320861090198,3609.6,1.45176435889173776962320861090198
96,3687.45388235351900031688007609567546,3686.0,1.45388235351900031688007609567546
97,3764.65597865925860133021432611703444,3763.2,1.45597865925860133021432611703444
98,3842.65805373297632886952438064646517,3841.2,1.45805373297632886952438064646517
99,3921.46010801810866259742411215174277,3920.0,1.46010801810866259742411215174277
100,4001.06214194523422651278477952163567,3999.6,1.46214194523422651278477952163567
101,4081.46415593261884563955650166084684,4080.0,1.46415593261884563955650166084684
102,4162.66615038673594483085864361130889,4161.2,1.46615038673594483085864361130889
103,4244.66812570276392974216485794672577,4243.2,1.46812570276392974216485794672577
104,4327.47008226506209364897327984377807,4326.0,1.47008226506209364897327984377807
105,4411.07202044762651280896751815964810,4409.6,1.47202044762651280896751815964810
106,4495.47394061452731576828428429985757,4494.0,1.47394061452731576828428429985757
107,4580.67584312032864893224528947838845,4579.2,1.47584312032864893224528947838845
108,4666.67772831049259822180093360778433,4665.2,1.47772831049259822180093360778433
109,4753.47959652176827674970658005538021,4752.0,1.47959652176827674970658005538021
110,4841.08144808256724696242585952857877,4839.6,1.48144808256724696242585952857877
111,4929.48328331332640329105309514121996,4928.0,1.48328331332640329105309514121996
112,5018.68510252685941824963758581290734,5017.2,1.48510252685941824963758581290734
113,5108.68690602869782898082803159165141,5107.2,1.48690602869782898082803159165141
114,5199.48869411742282581493794391601366,5198.0,1.48869411742282581493794391601366
115,5291.09046708498880154290807170034807,5289.6,1.49046708498880154290807170034807
116,5383.49222521703971422879651676771192,5382.0,1.49222521703971422879651676771192
117,5476.69396879321933272218207002783632,5475.2,1.49396879321933272218207002783632
118,5570.69569808747644747139127732968130,5569.2,1.49569808747644747139127732968130
119,5665.49741336836615739403430203528992,5664.0,1.49741336836615739403430203528992
120,5761.09911489934838812461790392745294,5759.6,1.49911489934838812461790392745294
121,5857.50080293908483896842688772232058,5856.0,1.50080293908483896842688772232058
122,5954.70247774173562869563920785264131,5953.2,1.50247774173562869563920785264131
123,6052.70413955725698312486758857401857,6051.2,1.50413955725698312486758857401857
124,6151.50578863170141025017564745157642,6150.0,1.50578863170141025017564745157642
125,6251.10742520752191764923301755724874,6249.6,1.50742520752191764923301755724874
126,6351.50904952388197140371479361037398,6350.0,1.50904952388197140371479361037398
127,6452.71066181697305968181121866123057,6451.2,1.51066181697305968181121866123057
128,6554.71226232034191522603778826186667,6553.2,1.51226232034191522603778826186667
129,6657.51385126522968702897207894559205,6656.0,1.51385126522968702897207894559205
130,6761.11542888092562195192088514152316,6759.6,1.51542888092562195192088514152316
131,6865.51699539513813884488660971510995,6864.0,1.51699539513813884488660971510995
132,6970.71855103438655752174199071606935,6969.2,1.51855103438655752174199071606935
133,7076.72009602441719669136037495326086,7075.2,1.52009602441719669136037495326086
134,7183.52163059064808959482476808723297,7182.0,1.52163059064808959482476808723297
135,7291.12315495864719300631011431082859,7289.6,1.52315495864719300631011431082859
136,7399.52466935464972618360236857856916,7398.0,1.52466935464972618360236857856916
137,7508.72617400612117256216945292009116,7507.2,1.52617400612117256216945292009116
138,7618.72766914237354913561437598376044,7617.2,1.52766914237354913561437598376044
139,7729.52915499524384737199681947711018,7728.0,1.52915499524384737199681947711018
140,7841.13063179984509910026039747209589,7839.6,1.53063179984509910026039747209589
141,7953.53209979540240655764978867573117,7952.0,1.53209979540240655764978867573117
142,8066.73355922618856067237194090414693,8065.2,1.53355922618856067237194090414693
143,8180.73501034257665680261207745500687,8179.2,1.53501034257665680261207745500687
144,8295.53645340223052995350704815687680,8294.0,1.53645340223052995350704815687680
145,8411.13788867145803439950730914204814,8409.6,1.53788867145803439950730914204814
146,8527.53931642675738685388132484078583,8526.0,1.53931642675738685388132484078583
147,8644.74073695659325144995831926699463,8643.2,1.54073695659325144995831926699463
148,8762.74215056344733213111774024424794,8761.2,1.54215056344733213111774024424794
149,8881.54355756619839603988375032045537,8880.0,1.54355756619839603988375032045537
150,9001.14495830289952934165861949383944,8999.6,1.54495830289952934165861949383944
151,9121.54635313403682864474362939020831,9120.0,1.54635313403682864474362939020831
152,9242.74774244637478750042325216831836,9241.2,1.54774244637478750042325216831836
153,9364.74912665752087462630034493421937,9363.2,1.54912665752087462630034493421937
154,9487.55050622137730594700493404831409,9486.0,1.55050622137730594700493404831409
155,9611.15188163469469935726360511039717,9609.6,1.55188163469469935726360511039717
156,9735.55325344500425984019058918924506,9734.0,1.55325344500425984019058918924506
157,9860.75462226028816087078409700804788,9859.2,1.55462226028816087078409700804788
158,9986.75598876086021533510295945792708,9985.2,1.55598876086021533510295945792708
159,10113.5573537140828877973999082213474,10112.0,1.5573537140828877973999082213474
160,10241.1587179927601391083468916161760,10239.6,1.5587179927601391083468916161760
161,10369.5600825983453829796565597752046,10368.0,1.5600825983453829796565597752046
162,10498.7614486905309934593731700397446,10497.2,1.5614486905309934593731700397446
163,10628.7628176254039712049367380591171,10627.2,1.5628176254039712049367380591171
164,10759.5641910052623410641898300971231,10758.0,1.5641910052623410641898300971231
165,10891.1655707445516179068888561824754,10889.6,1.5655707445516179068888561824754
166,11023.5669591584702574085221919501933,11022.0,1.5669591584702574085221919501933
167,11156.7683590840664520904072619774925,11155.2,1.5683590840664520904072619774925
168,11290.7697740489095068624671391017644,11289.2,1.5697740489095068624671391017644
169,11425.5712085111205512382021581702037,11424.0,1.5712085111205512382021581702037
170,11561.1726682094160462271306784935077,11559.6,1.5726682094160462271306784935077
171,11697.5741606881876721473300583316829,11696.0,1.5741606881876721473300583316829
172,11834.7756961114637892210455684084706,11833.2,1.5756961114637892210455684084706
173,11972.7772885746412115866382122161587,11971.2,1.5772885746412115866382122161587
174,12111.5789583192573075411107414521756,12110.0,1.5789583192573075411107414521756
175,12251.1807356920938518383954091458162,12249.6,1.5807356920938518383954091458162
176,12391.5826687478891363916997496862669,12390.0,1.5826687478891363916997496862669
177,12532.7848392689585490394802222327001,12531.2,1.5848392689585490394802222327001
178,12674.7874010412145158832937757813148,12673.2,1.5874010412145158832937757813148
179,12817.5906895104812288401641588551525,12816.0,1.5906895104812288401641588551525
180,12961.1956421662728400583210164040298,12959.6,1.5956421662728400583210164040298
181,13105.6066811401134622722799756613028,13104.0,1.6066811401134622722799756613028
