Eigenstate,Energy,Kinetic Energy,Potential Energy
1,0.500000000046293975500979558388854778,0.0,0.500000000046293975500979558388854778
2,1.84623093795329764289926021949808814,1.2,0.64623093795329764289926021949808814
3,3.93633761059261407351534213386984287,3.2,0.73633761059261407351534213386984287
4,6.79966527966308901041521746246253237,6.0,0.79966527966308901041521746246253237
5,10.4480465784882743358185710400203780,9.6,0.8480465784882743358185710400203780
6,14.8870660018259811240540625321013866,14.0,0.8870660018259811240540625321013866
7,20.1197208311158565464503931373378289,19.2,0.9197208311158565464503931373378289
8,26.1477838527356318369796932421685363,25.2,0.9477838527356318369796932421685363
9,32.9723835656920502221726166675628649,32.0,0.9723835656920502221726166675628649
10,40.5942802241339838824441692404814909,39.6,0.9942802241339838824441692404814909
11,49.0140093982026826979939604240063487,48.0,1.0140093982026826979939604240063487
12,58.2319621832029362675452385134489384,57.2,1.0319621832029362675452385134489384
13,68.2484327092006822497020551849763881,67.2,1.0484327092006822497020551849763881
14,79.0636476738791774117647829937842973,78.0,1.0636476738791774117647829937842973
15,90.6777854583531882580746249437444429,89.6,1.0777854583531882580746249437444429
16,103.090988932039439770000401443413830,102.0,1.090988932039439770000401443413830
17,116.303374286118122231299773160852485,115.2,1.103374286118122231299773160852485
18,130.315037284539092448511184744107767,129.2,1.115037284539092448511184744107767
19,145.126057787125852646806541048368434,144.0,1.126057787125852646806541048368434
20,160.736503087209487859985097486202079,159.6,1.136503087209487859985097486202079
21,177.146430417710363821077118438520412,176.0,1.146430417710363821077118438520412
22,194.355888862296867637910089275654229,193.2,1.155888862296867637910089275654229
23,212.364920833321932866418662988286985,211.2,1.164920833321932866418662988286985
24,231.173563229223461996152837576693803,230.0,1.173563229223461996152837576693803
25,250.781848351320253099843557709089265,249.6,1.181848351320253099843557709089265
26,271.189804637619587790465939444367579,270.0,1.189804637619587790465939444367579
27,292.397457255779807223976269986189477,291.2,1.197457255779807223976269986189477
28,314.404828586469352073980893735660191,313.2,1.204828586469352073980893735660191
29,337.211938620568714581144574957472526,336.0,1.211938620568714581144574957472526
30,360.818805288012263209473877593852353,359.6,1.218805288012263209473877593852353
31,385.225444731920961940550316604208361,384.0,1.225444731920961940550316604208361
32,410.431871538599106651355967746845874,409.2,1.231871538599106651355967746845874
33,436.438098931658553216693984060143883,435.2,1.238098931658553216693984060143883
34,463.244138936783365710683222853773058,462.0,1.244138936783365710683222853773058
35,490.850002522308618015844562348608066,489.6,1.250002522308618015844562348608066
36,519.255699719753603269560726095278367,518.0,1.255699719753603269560726095278367
37,548.461239727645621029042128447789460,547.2,1.261239727645621029042128447789460
38,578.466631001340093292694300358308177,577.2,1.266631001340093292694300358308177
39,609.271881331044911866194478639745341,608.0,1.271881331044911866194478639745341
40,640.876997909861098777987901279063158,639.6,1.276997909861098777987901279063158
41,673.281987393335111175154562784865380,672.0,1.281987393335111175154562784865380
42,706.486855951763129529062766946854451,705.2,1.286855951763129529062766946854451
43,740.491609316281181635287568967745174,739.2,1.291609316281181635287568967745174
44,775.296252819606860876751585437708344,774.0,1.296252819606860876751585437708344
45,810.900791432160827650036326186875114,809.6,1.300791432160827650036326186875114
46,847.305229794183146572209533350757014,846.0,1.305229794183146572209533350757014
47,884.509572244366035473175565322447595,883.2,1.309572244366035473175565322447595
48,922.513822845447015814302649797168561,921.2,1.313822845447015814302649797168561
49,961.317985407141791630180257459767720,960.0,1.317985407141791630180257459767720
50,1000.92206350674206137670355477874863,999.6,1.32206350674206137670355477874863
51,1041.32606050765800010620701998237975,1040.0,1.32606050765800010620701998237975
52,1082.52997957614680417606793093658658,1081.2,1.32997957614680417606793093658658
53,1124.53382369643624057865286658788953,1123.2,1.33382369643624057865286658788953
54,1167.33759568442458184902304137829162,1166.0,1.33759568442458184902304137829162
55,1210.94129820011483201430133496570008,1209.6,1.34129820011483201430133496570008
56,1255.34493375892107447847795105030428,1254.0,1.34493375892107447847795105030428
57,1300.54850474196757377131185916100892,1299.2,1.34850474196757377131185916100892
58,1346.55201340548646590369382518585337,1345.2,1.35201340548646590369382518585337
59,1393.35546188940711812456099797749390,1392.0,1.35546188940711812456099797749390
60,1440.95885222521921436675055419101536,1439.6,1.35885222521921436675055419101536
61,1489.36218634318205844167490235286451,1488.0,1.36218634318205844167490235286451
62,1538.56546607894428603758728802194372,1537.2,1.36546607894428603758728802194372
63,1588.56869317963093468718573644561883,1587.2,1.36869317963093468718573644561883
64,1639.37186930944850839038104254013612,1638.0,1.37186930944850839038104254013612
65,1690.97499605485313873808155374920068,1689.6,1.37499605485313873808155374920068
66,1743.37807492932209704379317530795483,1742.0,1.37807492932209704379317530795483
67,1796.58110737776464969850711613468494,1795.2,1.38110737776464969850711613468494
68,1850.58409478060449280353920410641252,1849.2,1.38409478060449280353920410641252
69,1905.38703845756268946525776853872967,1904.0,1.38703845756268946525776853872967
70,1960.98993967116710486737272922194631,1959.6,1.38993967116710486737272922194631
71,2017.39279963001173553272766421844084,2016.0,1.39279963001173553272766421844084
72,2074.59561949178703094415629848081695,2073.2,1.39561949178703094415629848081695
73,2132.59840036610025268756162267094182,2131.2,1.39840036610025268756162267094182
74,2191.40114331710309743182274713590455,2190.0,1.40114331710309743182274713590455
75,2251.00384936594217895903166869051989,2249.6,1.40384936594217895903166869051989
76,2311.40651949304651490180664875744276,2310.0,1.40651949304651490180664875744276
77,2372.60915464026486144601084813452676,2371.2,1.40915464026486144601084813452676
78,2434.61175571286457345902452990294914,2433.2,1.41175571286457345902452990294914
79,2497.41432358140262068372684537328170,2496.0,1.41432358140262068372684537328170
80,2561.01685908347845251269861173115518,2559.6,1.41685908347845251269861173115518
81,2625.41936302537755451568100118503125,2624.0,1.41936302537755451568100118503125
82,2690.62183618361377844277132239710678,2689.2,1.42183618361377844277132239710678
83,2756.62427930637783869204738661052551,2755.2,1.42427930637783869204738661052551
84,2823.42669311489874393859582871976893,2822.0,1.42669311489874393859582871976893
85,2891.02907830472437334574597610762897,2889.6,1.42907830472437334574597610762897
86,2959.43143554692689091392142354836825,2958.0,1.43143554692689091392142354836825
87,3028.63376548923823405172174066510198,3027.2,1.43376548923823405172174066510198
88,3098.63606875712048907611081234377786,3097.2,1.43606875712048907611081234377786
89,3169.43834595477558284642685443222840,3168.0,1.43834595477558284642685443222840
90,3241.04059766609837652019986981244120,3239.6,1.44059766609837652019986981244120
91,3313.44282445557692596671156651248272,3312.0,1.44282445557692596671156651248272
92,3386.64502686914338507669356222731108,3385.2,1.44502686914338507669356222731108
93,3460.64720543497876595150413025551977,3459.2,1.44720543497876595150413025551977
94,3535.44936066427452702638554457483605,3534.0,1.44936066427452702638554457483605
95,3611.05149305195373902837513827597297,3609.6,1.45149305195373902837513827597297
96,3687.45360307735437684732661140321674,3686.0,1.45360307735437684732661140321674
97,3764.65569120487710105638876033802739,3763.2,1.45569120487710105638876033802739
98,3842.65775788459971994399372744861284,3841.2,1.45775788459971994399372744861284
99,3921.45980355286036944721814857885066,3920.0,1.45980355286036944721814857885066
100,4001.06182863281130203596413925487822,3999.6,1.46182863281130203596413925487822
101,4081.46383353494504629325283467778941,4080.0,1.46383353494504629325283467778941
102,4162.66581865759457336220199919469585,4161.2,1.46581865759457336220199919469585
103,4244.66778438740899851664630962468903,4243.2,1.46778438740899851664630962468903
104,4327.46973109980623884764875813485328,4326.0,1.46973109980623884764875813485328
105,4411.07165915940395498439432211435330,4409.6,1.47165915940395498439432211435330
106,4495.47356892043001400371372485182334,4494.0,1.47356892043001400371372485182334
107,4580.67546072711363260052949882363337,4579.2,1.47546072711363260052949882363337
108,4666.67733491405828035196220433161375,4665.2,1.47733491405828035196220433161375
109,4753.47919180659735431430064062916436,4752.0,1.47919180659735431430064062916436
110,4841.08103172113357377191465054026514,4839.6,1.48103172113357377191465054026514
111,4929.48285496546297809599073699106026,4928.0,1.48285496546297809599073699106026
112,5018.68466183908436123733727372875465,5017.2,1.48466183908436123733727372875465
113,5108.68645263349492084171189831791107,5107.2,1.48645263349492084171189831791107
114,5199.48822763247285121836752677890064,5198.0,1.48822763247285121836752677890064
115,5291.08998711234756894401065998421227,5289.6,1.48998711234756894401065998421227
116,5383.49173134225821155271774160579694,5382.0,1.49173134225821155271774160579694
117,5476.69346058440101804934831323011889,5475.2,1.49346058440101804934831323011889
118,5570.69517509426615895288825343425622,5569.2,1.49517509426615895288825343425622
119,5665.49687512086454986244019660012201,5664.0,1.49687512086454986244019660012201
120,5761.09856090694515669634322678473313,5759.6,1.49856090694515669634322678473313
121,5857.50023268920326248765961159130802,5856.0,1.50023268920326248765961159130802
122,5954.70189069848014670613375398078326,5953.2,1.50189069848014670613375398078326
123,6052.70353515995459588379647600383410,6051.2,1.50353515995459588379647600383410
124,6151.50516629332664664157909852289147,6150.0,1.50516629332664664157909852289147
125,6251.10678431299393264803880184268899,6249.6,1.50678431299393264803880184268899
126,6351.50838942822099184399908325587553,6350.0,1.50838942822099184399908325587553
127,6452.70998184330186968902287283758825,6451.2,1.50998184330186968902287283758825
128,6554.71156175771633159844591603480851,6553.2,1.51156175771633159844591603480851
129,6657.51312936627998566646006317791623,6656.0,1.51312936627998566646006317791623
130,6761.11468485928859838886868767084336,6759.6,1.51468485928859838886868767084336
131,6865.51622842265687069501861903397165,6864.0,1.51622842265687069501861903397165
132,6970.71776023805192662121217767578224,6969.2,1.51776023805192662121217767578224
133,7076.71928048302175517631863143551768,7075.2,1.51928048302175517631863143551768
134,7183.52078933111883467434616668715385,7182.0,1.52078933111883467434616668715385
135,7291.12228695201915070039258377334030,7289.6,1.52228695201915070039258377334030
136,7399.52377351163681518886248499019695,7398.0,1.52377351163681518886248499019695
137,7508.72524917223448078489575887767897,7507.2,1.52524917223448078489575887767897
138,7618.72671409252973104796089645701927,7617.2,1.52671409252973104796089645701927
139,7729.52816842779762495066160805007812,7728.0,1.52816842779762495066160805007812
140,7841.12961232996955867983676152996289,7839.6,1.52961232996955867983676152996289
141,7953.53104594772860318954362123539644,7952.0,1.53104594772860318954362123539644
142,8066.73246942660146788224766318691602,8065.2,1.53246942660146788224766318691602
143,8180.73388290904723214437266368268706,8179.2,1.53388290904723214437266368268706
144,8295.53528653454297928272801935497010,8294.0,1.53528653454297928272801935497010
145,8411.13668043966646322057098330813713,8409.6,1.53668043966646322057098330813713
146,8527.53806475817593044331087216685232,8526.0,1.53806475817593044331087216685232
147,8644.73943962108721148089615414300338,8643.2,1.53943962108721148089615414300338
148,8762.74080515674819725589209025564931,8761.2,1.54080515674819725589209025564931
149,8881.54216149091080209818228968804928,8880.0,1.54216149091080209818228968804928
150,9001.14350874680051706715043539076830,8999.6,1.54350874680051706715043539076830
151,9121.54484704518364949557490964804704,9120.0,1.54484704518364949557490964804704
152,9242.74617650443233905438394886316564,9241.2,1.54617650443233905438394886316564
153,9364.74749724058743928794277974172178,9363.2,1.54749724058743928794277974172178
154,9487.54880936741934851909197648622249,9486.0,1.54880936741934851909197648622249
155,9611.15011299648686835990672227046870,9609.6,1.55011299648686835990672227046870
156,9735.55140823719416769451659506505330,9734.0,1.55140823719416769451659506505330
157,9860.75269519684592318056526441834452,9859.2,1.55269519684592318056526441834452
158,9986.75397398070070808738736113489283,9985.2,1.55397398070070808738736113489283
159,10113.5552446920226931437117401353781,10112.0,1.5552446920226931437117401353781
160,10241.1565074321317257324045400565156,10239.6,1.5565074321317257324045400565156
161,10369.5577623004518459283470315835032,10368.0,1.5577623004518459283470315835032
162,10498.7590093945582988405233074564827,10497.2,1.5590093945582988405233074564827
163,10628.7602488102230981115910862785236,10627.2,1.5602488102230981115910862785236
164,10759.5614806414591952115047351080091,10758.0,1.5614806414591952115047351080091
165,10891.1627049805633031253820697765411,10889.6,1.5627049805633031253820697765411
166,11023.5639219181574249511775928350191,11022.0,1.5639219181574249511775928350191
167,11156.7651315432291346394558132968631,11155.2,1.5651315432291346394558132968631
168,11290.7663339431706525641523820880068,11289.2,1.5663339431706525641523820880068
169,11425.5675292038167609863874976239654,11424.0,1.5675292038167609863874976239654
170,11561.1687174094815991544218737602333,11559.6,1.5687174094815991544218737602333
171,11697.5698986429943782341899496694031,11696.0,1.5698986429943782341899496694031
172,11834.7710729857340539370427681535812,11833.2,1.5710729857340539370427681535812
173,11972.7722405176629922470054162895201,11971.2,1.5722405176629922470054162895201
174,12111.5734013173596640910375413171089,12110.0,1.5734013173596640910375413171089
175,12251.1745554620504029372042213121699,12249.6,1.5745554620504029372042213121699
176,12391.5757030276402550270844499024603,12390.0,1.5757030276402550270844499024603
177,12532.7768440887429555029291015431151,12531.2,1.5768440887429555029291015431151
178,12674.7779787187100595839392175650796,12673.2,1.5779787187100595839392175650796
179,12817.5791069896592552365846543774387,12816.0,1.5791069896592552365846543774387
180,12961.1802289725018882853368211785987,12959.6,1.5802289725018882853368211785987
181,13105.5813447369697226123760755149597,13104.0,1.5813447369697226123760755149597
182,13250.7824543516409631416337597915130,13249.2,1.5824543516409631416337597915130
183,13396.7835578839655646564173571602520,13395.2,1.5835578839655646564173571602520
184,13543.5846554002898506921295222345712,13542.0,1.5846554002898506921295222345712
185,13691.1857469658804643121788218707930,13689.6,1.5857469658804643121788218707930
186,13839.5868326449476717356759881611094,13838.0,1.5868326449476717356759881611094
187,13988.7879125006680426173877438060878,13987.2,1.5879125006680426173877438060878
188,14138.7889865952065224162369658264236,14137.2,1.5889865952065224162369658264236
189,14289.5900549897379205834112777540779,14288.0,1.5900549897379205834112777540779
190,14441.1911177444678302211291133463563,14439.6,1.5911177444678302211291133463563
191,14593.5921749186529984345859890342972,14592.0,1.5921749186529984345859890342972
192,14746.7932265706211637592544167742070,14745.2,1.5932265706211637592544167742070
193,14900.7942727577903789673552561290770,14899.2,1.5942727577903789673552561290770
194,15055.5953135366878325942524261737208,15054.0,1.5953135366878325942524261737208
195,15211.1963489629681871170984024594034,15209.6,1.5963489629681871170984024594034
196,15367.5973790914314474775987880313787,15366.0,1.5973790914314474775987880313787
197,15524.7984039760403743241848601388311,15523.2,1.5984039760403743241848601388311
198,15682.7994236699374561355406744287633,15681.2,1.5994236699374561355406744287633
199,15841.6004382254614530593061964511561,15840.0,1.6004382254614530593061964511561
200,16001.2014476941635264061231758166818,15999.6,1.6014476941635264061231758166818
201,16161.6024521268229647754080309226296,16160.0,1.6024521268229647754080309226296
202,16322.8034515734625201889698350438203,16321.2,1.6034515734625201889698350438203
203,16484.8044460833633648871604639621235,16483.2,1.6044460833633648871604639621235
204,16647.6054357050796804024252651827506,16646.0,1.6054357050796804024252651827506
205,16811.2064204864528888755718143796155,16809.6,1.6064204864528888755718143796155
206,16975.6074004746255396334603755204535,16974.0,1.6074004746255396334603755204535
207,17140.8083757160548568987475692861689,17139.2,1.6083757160548568987475692861689
208,17306.8093462565259628530943191281119,17305.2,1.6093462565259628530943191281119
209,17473.6103121411647817966721301479898,17472.0,1.6103121411647817966721301479898
210,17641.2112734144506368995732622359170,17639.6,1.6112734144506368995732622359170
211,17809.6122301202285469040876994804486,17808.0,1.6122301202285469040876994804486
212,17978.8131823017212330049758161408711,17977.2,1.6131823017212330049758161408711
213,18148.8141300015408402856314773133098,18147.2,1.6141300015408402856314773133098
214,18319.6150732617003886858257346252218,18318.0,1.6150732617003886858257346252218
215,18491.2160121236249527072630430845340,18489.6,1.6160121236249527072630430845340
216,18663.6169466281625838114072615280709,18662.0,1.6169466281625838114072615280709
217,18836.8178768155949794686198982256316,18835.2,1.6178768155949794686198982256316
218,19010.8188027256479078310608968555325,19009.2,1.6188027256479078310608968555325
219,19185.6197243975013913022881990458660,19184.0,1.6197243975013913022881990458660
220,19361.2206418697996615116835186485362,19359.6,1.6206418697996615116835186485362
221,19537.6215551806608835959949563800112,19536.0,1.6215551806608835959949563800112
222,19714.8224643676866669853614158806780,19713.2,1.6224643676866669853614158806780
223,19892.8233694679713562546507100709844,19891.2,1.6233694679713562546507100709844
224,20071.6242705181111170994092602804727,20070.0,1.6242705181111170994092602804727
225,20251.2251675542128199929663754890979,20249.6,1.6251675542128199929663754890979
226,20431.6260606119027250626337752753666,20430.0,1.6260606119027250626337752753666
227,20612.8269497263349768278470032612774,20611.2,1.6269497263349768278470032612774
228,20794.8278349321999106104484142272405,20793.2,1.6278349321999106104484142272405
229,20977.6287162637321777692551425899799,20976.0,1.6287162637321777692551425899799
230,21161.2295937547186944451487176332994,21159.6,1.6295937547186944451487176332994
231,21345.6304674385064156059492648340685,21344.0,1.6304674385064156059492648340685
232,21530.8313373480099447999874358199826,21529.2,1.6313373480099447999874358199826
233,21716.8322035157189746038706836625310,21715.2,1.6322035157189746038706836625310
234,21903.6330659737055739105024308554067,21902.0,1.6330659737055739105024308554067
235,22091.2339247536313152284458781912620,22089.6,1.6339247536313152284458781912620
236,22279.6347798867542516913934573368584,22278.0,1.6347798867542516913934573368584
237,22468.8356314039357473978605386758869,22467.2,1.6356314039357473978605386758869
238,22658.8364793356471628121066071274503,22657.2,1.6364793356471628121066071274503
