Eigenstate,Energy,Kinetic Energy,Potential Energy
1,0.500000000013595527392748592120026637,0.0,0.500000000013595527392748592120026637
2,1.84623093773985912713877006464127350,1.2,0.64623093773985912713877006464127350
3,3.93633760996565525949816765984491837,3.2,0.73633760996565525949816765984491837
4,6.79966527835720425835988291494835820,6.0,0.79966527835720425835988291494835820
5,10.4480465762262122162710977874926465,9.6,0.8480465762262122162710977874926465
6,14.8870659983256363982295833852062490,14.0,0.8870659983256363982295833852062490
7,20.1197208260928465887247525397641408,19.2,0.9197208260928465887247525397641408
8,26.1477838459043712984170661694316321,25.2,0.9477838459043712984170661694316321
9,32.9723835567662509235548405488309048,32.0,0.9723835567662509235548405488309048
10,40.5942802128269086918604796448434899,39.6,0.9942802128269086918604796448434899
11,49.0140093842272835955476619900765475,48.0,1.0140093842272835955476619900765475
12,58.2319621662719333935179668883277815,57.2,1.0319621662719333935179668883277815
13,68.2484326890266108238311275156190928,67.2,1.0484326890266108238311275156190928
14,79.0636476501744161622288511530672925,78.0,1.0636476501744161622288511530672925
15,90.6777854308299766955595554119743515,89.6,1.0777854308299766955595554119743515
16,103.090988900409888454703157250140331,102.0,1.090988900409888454703157250140331
17,116.303374250094218481821048197668719,115.2,1.103374250094218481821048197668719
18,130.315037243832702993842912503061141,129.2,1.115037243832702993842912503061141
19,145.126057741448724172416697241483365,144.0,1.126057741448724172416697241483365
20,160.736503036273246068180068047667191,159.6,1.136503036273246068180068047667191
21,177.146430361226511420625522748095496,176.0,1.146430361226511420625522748095496
22,194.355888799976781547058762142586606,193.2,1.155888799976781547058762142586606
23,212.364920764876860827886881350595426,211.2,1.164920764876860827886881350595426
24,231.173563154364518745500058980963144,230.0,1.173563154364518745500058980963144
25,250.781848269758416189587917068648658,249.6,1.181848269758416189587917068648658
26,271.189804549065693145215889746491814,270.0,1.189804549065693145215889746491814
27,292.397457159944544482675056676560704,291.2,1.197457159944544482675056676560704
28,314.404828483063259761610554127683090,313.2,1.204828483063259761610554127683090
29,337.211938509302175142224868928522518,336.0,1.211938509302175142224868928522518
30,360.818805168595497928308223050136679,359.6,1.218805168595497928308223050136679
31,385.225444604064025767659392405251953,384.0,1.225444604064025767659392405251953
32,410.431871402011882951379296184243365,409.2,1.231871402011882951379296184243365
33,436.438098786050748449866395634755259,435.2,1.238098786050748449866395634755259
34,463.244138781864504057548978534708735,462.0,1.244138781864504057548978534708735
35,490.850002357788035952972267322182134,489.6,1.250002357788035952972267322182134
36,519.255699545340444102533236460045613,518.0,1.255699545340444102533236460045613
37,548.461239543048829387819173979872445,547.2,1.261239543048829387819173979872445
38,578.466630806268409593509115305708296,577.2,1.266630806268409593509115305708296
39,609.271881125206866743395029505462327,608.0,1.271881125206866743395029505462327
40,640.876997692965007488627437750489641,639.6,1.276997692965007488627437750489641
41,673.281987165089067978644299175349639,672.0,1.281987165089067978644299175349639
42,706.486855711875002043797558024913079,705.2,1.286855711875002043797558024913079
43,740.491609064458605173825243204240094,739.2,1.291609064458605173825243204240094
44,775.296252555557232760853903628260227,774.0,1.296252555557232760853903628260227
45,810.900791155591301506653096089649716,809.6,1.300791155591301506653096089649716
46,847.305229504800626611298475879617588,846.0,1.305229504800626611298475879617588
47,884.509571941877170748092250973500600,883.2,1.309571941877170748092250973500600
48,922.513822529558194465361445016861474,921.2,1.313822529558194465361445016861474
49,961.317985077559135111874543048162934,960.0,1.317985077559135111874543048162934
50,1000.92206316317141866897776872176449,999.6,1.32206316317141866897776872176449
51,1041.32606014980494191009143970610556,1040.0,1.32606014980494191009143970610556
52,1082.52997920371661709391730759026874,1081.2,1.32997920371661709391730759026874
53,1124.53382330913392127917006397836941,1123.2,1.33382330913392127917006397836941
54,1167.33759528195483121719706371210646,1166.0,1.33759528195483121719706371210646
55,1210.94129778218204928634442610245677,1209.6,1.34129778218204928634442610245677
56,1255.34493332522935136180756543035889,1254.0,1.34493332522935136180756543035889
57,1300.54850429222068854958951823451952,1299.2,1.34850429222068854958951823451952
58,1346.55201293938787752690315665057118,1345.2,1.35201293938787752690315665057118
59,1393.35546140665996028408144196448382,1392.0,1.35546140665996028408144196448382
60,1440.95885172552628955536030164635791,1439.6,1.35885172552628955536030164635791
61,1489.36218582624583199839650200278730,1488.0,1.36218582624583199839650200278730
62,1538.56546554446688017727142938253603,1537.2,1.36546554446688017727142938253603
63,1588.56869262731412251471290988495397,1587.2,1.36869262731412251471290988495397
64,1639.37186873899370789934662086646221,1638.0,1.37186873899370789934662086646221
65,1690.97499546596140679381710443422576,1689.6,1.37499546596140679381710443422576
66,1743.37807432169412335056550531621942,1742.0,1.37807432169412335056550531621942
67,1796.58110675110075075072629419816317,1795.2,1.38110675110075075072629419816317
68,1850.58409413460460582079756264947520,1849.2,1.38409413460460582079756264947520
69,1905.38703779192636631101338838665174,1904.0,1.38703779192636631101338838665174
70,1960.98993898559350595108349602130356,1959.6,1.38993898559350595108349602130356
71,2017.39279892419962369523471185434810,2016.0,1.39279892419962369523471185434810
72,2074.59561876543476532610953293241088,2073.2,1.39561876543476532610953293241088
73,2132.59839961890578258067392097230244,2131.2,1.39839961890578258067392097230244
74,2191.40114254876395611273412174260490,2190.0,1.40114254876395611273412174260490
75,2251.00384857615547750555954784087241,2249.6,1.40384857615547750555954784087241
76,2311.40651868150893599135383356638435,2310.0,1.40651868150893599135383356638435
77,2372.60915380667265313589825859139961,2371.2,1.40915380667265313589825859139961
78,2434.61175485691354294851175337455139,2433.2,1.41175485691354294851175337455139
79,2497.41432270278812805747961596051288,2496.0,1.41432270278812805747961596051288
80,2561.01685818189540446545879790617135,2559.6,1.41685818189540446545879790617135
81,2625.41936210052039805789108405035367,2624.0,1.41936210052039805789108405035367
82,2690.62183523517649458690211796818475,2689.2,1.42183523517649458690211796818475
83,2756.62427833405393611937464675958579,2755.2,1.42427833405393611937464675958579
84,2823.42669211838125264616829359664777,2822.0,1.42669211838125264616829359664777
85,2891.02907728370583827328454873477327,2889.6,1.42907728370583827328454873477327
86,2959.43143450109936555038642525630952,2958.0,1.43143450109936555038642525630952
87,3028.63376441829327402128236727367331,3027.2,1.43376441829327402128236727367331
88,3098.63606766074914570324837224172243,3097.2,1.43606766074914570324837224172243
89,3169.43834483266839669990082005835509,3168.0,1.43834483266839669990082005835509
90,3241.04059651794537093560324036033817,3239.6,1.44059651794537093560324036033817
91,3313.44282328106760054733958789125688,3312.0,1.44282328106760054733958789125688
92,3386.64502566796670917244749667980810,3385.2,1.44502566796670917244749667980810
93,3460.64720420682317211554936880284746,3459.2,1.44720420682317211554936880284746
94,3535.44935940882790444928106139961490,3534.0,1.44935940882790444928106139961490
95,3611.05149176890342694938893767936283,3609.6,1.45149176890342694938893767936283
96,3687.45360176638715794264965667466726,3686.0,1.45360176638715794264965667466726
97,3764.65568986567919480395743237280333,3763.2,1.45568986567919480395743237280333
98,3842.65775651685677596462886643832918,3841.2,1.45775651685677596462886643832918
99,3921.45980215625746082178625204452030,3920.0,1.45980215625746082178625204452030
100,4001.06182720703291859826427523794900,3999.6,1.46182720703291859826427523794900
101,4081.46383207967508789833049131010063,4080.0,1.46383207967508789833049131010063
102,4162.66581717251634312978892956909306,4161.2,1.46581717251634312978892956909306
103,4244.66778287220519604942328988083865,4243.2,1.46778287220519604942328988083865
104,4327.46972955415895342402575623970131,4326.0,1.46972955415895342402575623970131
105,4411.07165758299465872550061600272554,4409.6,1.47165758299465872550061600272554
106,4495.47356731293955501428811291715328,4494.0,1.47356731293955501428811291715328
107,4580.67545908822222808339856814327721,4579.2,1.47545908822222808339856814327721
108,4666.67733324344550969579243995911215,4665.2,1.47733324344550969579243995911215
109,4753.47919010394215215430778475456482,4752.0,1.47919010394215215430778475456482
110,4841.08102998611422302321158282609696,4839.6,1.48102998611422302321158282609696
111,4929.48285319775710295925281900686545,4928.0,1.48285319775710295925281900686545
112,5018.68466003836892017646176783270691,5017.2,1.48466003836892017646176783270691
113,5108.68645079944619953314585474165578,5107.2,1.48645079944619953314585474165578
114,5199.48822576476645547177610717299051,5198.0,1.48822576476645547177610717299051
115,5291.08998521065841759395565581894030,5289.6,1.48998521065841759395565581894030
116,5383.49172940626052932101352371753455,5382.0,1.49172940626052932101352371753455
117,5476.69345861376832837776017059853493,5475.2,1.49345861376832837776017059853493
118,5570.69517308867127680583568935747971,5569.2,1.49517308867127680583568935747971
119,5665.49687307997957449936527165555169,5664.0,1.49687307997957449936527165555169
120,5761.09855883044146441340154490199678,5759.6,1.49855883044146441340154490199678
121,5857.50023057675149932838919665614979,5856.0,1.50023057675149932838919665614979
122,5954.70188854975022114075447084527111,5953.2,1.50188854975022114075447084527111
123,6052.70353297461567145679016622169916,6051.2,1.50353297461567145679016622169916
124,6151.50516407104713458719807508102903,6150.0,1.50516407104713458719807508102903
125,6251.10678205344148447338770482619967,6249.6,1.50678205344148447338770482619967
126,6351.50838713106249187933256447778033,6350.0,1.50838713106249187933256447778033
127,6452.70997950820342760489890230856605,6451.2,1.50997950820342760489890230856605
128,6554.71155938434327488937188086131039,6553.2,1.51155938434327488937188086131039
129,6657.51312695429685210066608861231188,6656.0,1.51312695429685210066608861231188
130,6761.11468240835912842384000674567874,6759.6,1.51468240835912842384000674567874
131,6865.51622593244399985841597144262188,6864.0,1.51622593244399985841597144262188
132,6970.71775770821777785680635115941484,6969.2,1.51775770821777785680635115941484
133,7076.71927791322763115456280360121619,7075.2,1.51927791322763115456280360121619
134,7183.52078672102521006720646224210427,7182.0,1.52078672102521006720646224210427
135,7291.12228430128566442005451594039414,7289.6,1.52228430128566442005451594039414
136,7399.52377081992226258992831752987073,7398.0,1.52377081992226258992831752987073
137,7508.72524643919680582968443131412018,7507.2,1.52524643919680582968443131412018
138,7618.72671131782601843451956158865656,7617.2,1.52671131782601843451956158865656
139,7729.52816561108409220309462670594492,7728.0,1.52816561108409220309462670594492
140,7841.12960947090154820055496449999852,7839.6,1.52960947090154820055496449999852
141,7953.53104304596057427303376064460053,7952.0,1.53104304596057427303376064460053
142,8066.73246648178698868995861479990535,8065.2,1.53246648178698868995861479990535
143,8180.73387992083897164031196944664863,8179.2,1.53387992083897164031196944664863
144,8295.53528350259269912935903381274815,8294.0,1.53528350259269912935903381274815
145,8411.13667736362500963459786974801544,8409.6,1.53667736362500963459786974801544
146,8527.53806163769322601093524463919044,8526.0,1.53806163769322601093524463919044
147,8644.73943645581224693212593167438646,8643.2,1.53943645581224693212593167438646
148,8762.74080194632902319747981866128227,8761.2,1.54080194632902319747981866128227
149,8881.54215823499452070476679798169638,8880.0,1.54215823499452070476679798169638
150,9001.14350544503327373017236601662855,8999.6,1.54350544503327373017236601662855
151,9121.54484369721062442953291972137142,9120.0,1.54484369721062442953291972137142
152,9242.74617310989773885999523390032023,9241.2,1.54617310989773885999523390032023
153,9364.74749379913448847176782779284311,9363.2,1.54749379913448847176782779284311
154,9487.54880587869028096918003576671181,9486.0,1.54880587869028096918003576671181
155,9611.15010946012291877701468242206170,9609.6,1.55010946012291877701468242206170
156,9735.55140465283556297845031306345127,9734.0,1.55140465283556297845031306345127
157,9860.75269156413187377118886039297593,9859.2,1.55269156413187377118886039297593
158,9986.75397029926939925984211327765157,9985.2,1.55397029926939925984211327765157
159,10113.5552409615112762573823996838777,10112.0,1.5552409615112762573823996838777
160,10241.1565036521763094331671639021167,10239.6,1.5565036521763094331671639021167
161,10369.5577584706874873036283476439578,10368.0,1.5577584706874873036283476439578
162,10498.7590055146189945266978776237854,10497.2,1.5590055146189945266978776237854
163,10628.7602448797417753532386056261902,10627.2,1.5602448797417753532386056261902
164,10759.5614766600677028720455547933552,10758.0,1.5614766600677028720455547933552
165,10891.1627009478924026486050273034590,10889.6,1.5627009478924026486050273034590
166,11023.5639178338367812731702956912361,11022.0,1.5639178338367812731702956912361
167,11156.7651274068873070504432314467569,11155.2,1.5651274068873070504432314467569
168,11290.7663297544350855197452064932939,11289.2,1.5663297544350855197452064932939
169,11425.5675249623137748677378780871395,11424.0,1.5675249623137748677378780871395
170,11561.1687131148363809767793302102816,11559.6,1.5687131148363809767793302102816
171,11697.5698942948309723033463033852101,11696.0,1.5698942948309723033463033852101
172,11834.7710685836753524531502420902348,11833.2,1.5710685836753524531502420902348
173,11972.7722360613307258552477986503424,11971.2,1.5722360613307258552477986503424
174,12111.5733968063743923786295476290800,12110.0,1.5733968063743923786295476290800
175,12251.1745508960315048761897731102597,12249.6,1.5745508960315048761897731102597
176,12391.5756984062059193623998902474569,12390.0,1.5756984062059193623998902474569
177,12532.7768394115101710851927288827848,12531.2,1.5768394115101710851927288827848
178,12674.7779739852946056464236470380218,12673.2,1.5779739852946056464236470380218
179,12817.5791021996756916158239279634267,12816.0,1.5791021996756916158239279634267
180,12961.1802241255635455848150983712941,12959.6,1.5802241255635455848150983712941
181,13105.5813398326886923087399450975496,13104.0,1.5813398326886923087399450975496
182,13250.7824493896280876328652068583811,13249.2,1.5824493896280876328652068583811
183,13396.7835528638304272513994371311171,13395.2,1.5835528638304272513994371311171
184,13543.5846503216407655410315976504566,13542.0,1.5846503216407655410315976504566
185,13691.1857418283244662770830555737705,13689.6,1.5857418283244662770830555737705
186,13839.5868274480905062008617819740119,13838.0,1.5868274480905062008617819740119
187,13988.7879072441141552386852325067328,13987.2,1.5879072441141552386852325067328
188,14138.7889812785590488088555546082755,14137.2,1.5889812785590488088555546082755
189,14289.5900496125986759476436991820519,14288.0,1.5900496125986759476436991820519
190,14441.1911123064372989053260026111227,14439.6,1.5911123064372989053260026111227
191,14593.5921694193303234347905202060130,14592.0,1.5921694193303234347905202060130
192,14746.7932210096041361548808853911647,14745.2,1.5932210096041361548808853911647
193,14900.7942671346754272922898021722765,14899.2,1.5942671346754272922898021722765
194,15055.5953078510700121427483473621768,15054.0,1.5953078510700121427483473621768
195,15211.1963432144411691838328220066392,15209.6,1.5963432144411691838328220066392
196,15367.5973732795875085312514219762520,15366.0,1.5973732795875085312514219762520
197,15524.7983981004703851138936930929887,15523.2,1.5983981004703851138936930929887
198,15682.7994177302308707295835117465543,15681.2,1.5994177302308707295835117465543
199,15841.6004322212062978153507044672568,15840.0,1.6004322212062978153507044672568
200,16001.2014416249463888723819525566826,15999.6,1.6014416249463888723819525566826
201,16161.6024459922289825220293780582250,16160.0,1.6024459922289825220293780582250
202,16322.8034453730753695689877381361215,16321.2,1.6034453730753695689877381361215
203,16484.8044398167652497263218991652643,16483.2,1.6044398167652497263218991652643
204,16647.6054293718513206172056670278615,16646.0,1.6054293718513206172056670278615
205,16811.2064140861735090186836370466409,16809.6,1.6064140861735090186836370466409
206,16975.6073940068728573661525572854039,16974.0,1.6073940068728573661525572854039
207,17140.8083691804050713891872729733928,17139.2,1.6083691804050713891872729733928
208,17306.8093396525537431001154926813740,17305.2,1.6093396525537431001154926813740
209,17473.6103054684432548781685246574750,17472.0,1.6103054684432548781685246574750
210,17641.2112666725513761448066075410178,17639.6,1.6112666725513761448066075410178
211,17809.6122233087215599891748143993062,17808.0,1.6122233087215599891748143993062
212,17978.8131754201749499708112128236147,17977.2,1.6131754201749499708112128236147
213,18148.8141230495221014774947051818112,18147.2,1.6141230495221014774947051818112
214,18319.6150662387744326139157296934071,18318.0,1.6150662387744326139157296934071
215,18491.2160050293554038273940006590133,18489.6,1.6160050293554038273940006590133
216,18663.6169394621114402250933372103464,18662.0,1.6169394621114402250933372103464
217,18836.8178695773226005417685630147852,18835.2,1.6178695773226005417685630147852
218,19010.8187954147130017304868685881992,19009.2,1.6187954147130017304868685881992
219,19185.6197170134610024492520497670033,19184.0,1.6197170134610024492520497670033
220,19361.2206344122091579516517340351510,19359.6,1.6206344122091579516517340351510
221,19537.6215476490739442838096222337778,19536.0,1.6215476490739442838096222337778
222,19714.8224567616552689850003682559044,19713.2,1.6224567616552689850003682559044
223,19892.8233617870457618527502652821151,19891.2,1.6233617870457618527502652821151
224,20071.6242627618398608317138237185671,20070.0,1.6242627618398608317138237185671
225,20251.2251597221426955828605308706678,20249.6,1.6251597221426955828605308706678
226,20431.6260527035787722709043535248232,20430.0,1.6260527035787722709043535248232
227,20612.8269417413004682128140419946401,20611.2,1.6269417413004682128140419946401
228,20794.8278268699963381975950821262530,20793.2,1.6278268699963381975950821262530
229,20977.6287081238992396294781316730604,20976.0,1.6287081238992396294781316730604
230,21161.2295855367942811807417598208971,21159.6,1.6295855367942811807417598208971
231,21345.6304591420265967434234095224131,21344.0,1.6304591420265967434234095224131
232,21530.8313289725089550888226049726628,21529.2,1.6313289725089550888226049726628
233,21716.8321950607292002202840315141864,21715.2,1.6321950607292002202840315141864
234,21903.6330574387575385653093841305254,21902.0,1.6330574387575385653093841305254
235,22091.2339161382536661780808505207846,22089.6,1.6339161382536661780808505207846
236,22279.6347711904737456511471808851364,22278.0,1.6347711904737456511471808851364
237,22468.8356226262772363563816690542449,22467.2,1.6356226262772363563816690542449
238,22658.8364704761335797462052423766170,22657.2,1.6364704761335797462052423766170
