Eigenstate,Energy,Kinetic Energy,Potential Energy
1,0.500000000080535045746991103163463177,0.0,0.500000000080535045746991103163463177
2,1.84623093817680640460328929221641370,1.2,0.64623093817680640460328929221641370
3,3.93633761124915712828529212549721370,3.2,0.73633761124915712828529212549721370
4,6.79966528103060493288085324667189313,6.0,0.79966528103060493288085324667189313
5,10.4480465808571175959531456195693765,9.6,0.8480465808571175959531456195693765
6,14.8870660054916041198306381217880071,14.0,0.8870660054916041198306381217880071
7,20.1197208363761155120277903860945715,19.2,0.9197208363761155120277903860945715
8,26.1477838598896653627412891255078822,25.2,0.9477838598896653627412891255078822
9,32.9723835750397596653640339994510333,32.0,0.9723835750397596653640339994510333
10,40.5942802359757714035627162866712846,39.6,0.9942802359757714035627162866712846
11,49.0140094128393105778427586225576321,48.0,1.0140094128393105778427586225576321
12,58.2319622009354480292771544488572574,57.2,1.0319622009354480292771544488572574
13,68.2484327303303574299421338691902326,67.2,1.0484327303303574299421338691902326
14,79.0636476987075056990622796983999964,78.0,1.0636476987075056990622796983999964
15,90.6777854871818553175606913887652977,89.6,1.0777854871818553175606913887652977
16,103.090988965170320411042669474067627,102.0,1.090988965170320411042669474067627
17,116.303374323853278354018054157114752,115.2,1.103374323853278354018054157114752
18,130.315037327180774197486863962122436,129.2,1.115037327180774197486863962122436
19,145.126057834976501776487762361029002,144.0,1.126057834976501776487762361029002
20,160.736503140571742662725933045954340,159.6,1.136503140571742662725933045954340
21,177.146430476887065183631127649532625,176.0,1.146430476887065183631127649532625
22,194.355888927591065929229387825653912,193.2,1.155888927591065929229387825653912
23,212.364920905036895449193515633359382,211.2,1.164920905036895449193515633359382
24,231.173563307662681214418725480943879,230.0,1.173563307662681214418725480943879
25,250.781848436787454635844107496093305,249.6,1.181848436787454635844107496093305
26,271.189804730418739312356548702704986,270.0,1.189804730418739312356548702704986
27,292.397457356215127266022208055773884,291.2,1.197457356215127266022208055773884
28,314.404828694845319105307551628382319,313.2,1.204828694845319105307551628382319
29,337.211938737190076229583113581296873,336.0,1.211938737190076229583113581296873
30,360.818805413184045614779104328984257,359.6,1.218805413184045614779104328984257
31,385.225444865948479217040933326106777,384.0,1.225444865948479217040933326106777
32,410.431871681787970444385830650094777,409.2,1.231871681787970444385830650094777
33,436.438099084314682340688003374654691,435.2,1.238099084314682340688003374654691
34,463.244139099212995859032860343423738,462.0,1.244139099212995859032860343423738
35,490.850002694818311534949026173751722,489.6,1.250002694818311534949026173751722
36,519.255699902650258990861079712229219,518.0,1.255699902650258990861079712229219
37,548.461239921236484154129455297721633,547.2,1.261239921236484154129455297721633
38,578.466631205932765327555664545458251,577.2,1.266631205932765327555664545458251
39,609.271881546947360601448591497579103,608.0,1.271881546947360601448591497579103
40,640.876998137381668312598899783426613,639.6,1.276998137381668312598899783426613
41,673.281987632782531981629573490991221,672.0,1.281987632782531981629573490991221
42,706.486856203446528558561986465435289,705.2,1.286856203446528558561986465435289
43,740.491609580510092461423603603724095,739.2,1.291609580510092461423603603724095
44,775.296253096691233877142622000645115,774.0,1.296253096691233877142622000645115
45,810.900791722411040224917145972264674,809.6,1.300791722411040224917145972264674
46,847.305230097910013399604610979434421,846.0,1.305230097910013399604610979434421
47,884.509572561880818800306691871089204,883.2,1.309572561880818800306691871089204
48,922.513823177061435785045653381348769,921.2,1.313823177061435785045653381348769
49,961.317985753168036648505983718561796,960.0,1.317985753168036648505983718561796
50,1000.92206386749279850614106377718625,999.6,1.32206386749279850614106377718625
51,1041.32606088344638550545515458439225,1040.0,1.32606088344638550545515458439225
52,1082.52997996728649357095721938118324,1081.2,1.32997996728649357095721938118324
53,1124.53382410324139977072532918131707,1123.2,1.33382410324139977072532918131707
54,1167.33759610720989726105451013328840,1166.0,1.33759610720989726105451013328840
55,1210.94129863919552127314067613327648,1209.6,1.34129863919552127314067613327648
56,1255.34493421461289703562123612635387,1254.0,1.34493421461289703562123612635387
57,1300.54850521458684156166801343930880,1299.2,1.34850521458684156166801343930880
58,1346.55201389535005404303249377046175,1345.2,1.35201389535005404303249377046175
59,1393.35546239683247564616356772838641,1392.0,1.35546239683247564616356772838641
60,1440.95885275052437499781259135714431,1439.6,1.35885275052437499781259135714431
61,1489.36218688668565142003260976691644,1488.0,1.36218688668565142003260976691644
62,1538.56546664096554696936277488004497,1537.2,1.36546664096554696936277488004497
63,1588.56869376048971644596590832075734,1587.2,1.36869376048971644596590832075734
64,1639.37186990946529205856327177963924,1638.0,1.37186990946529205856327177963924
65,1690.97499667434904459103625175670382,1689.6,1.37499667434904459103625175670382
66,1743.37807556861889557750888309027562,1742.0,1.37807556861889557750888309027562
67,1796.58110803718477270139822659148826,1795.2,1.38110803718477270139822659148826
68,1850.58409546047104447310995457022264,1849.2,1.38409546047104447310995457022264
69,1905.38703915819945757032889196518976,1904.0,1.38703915819945757032889196518976
70,1960.98994039289857195658897168813090,1959.6,1.38994039289857195658897168813090
71,2017.39280037316309019007595356346654,2016.0,1.39280037316309019007595356346654
72,2074.59562025668417909223493991053457,2073.2,1.39562025668417909223493991053457
73,2132.59840115306982893935150305993257,2131.2,1.39840115306982893935150305993257
74,2191.40114412647247649172130422670114,2190.0,1.40114412647247649172130422670114
75,2251.00385019803948707392022282473806,2249.6,1.40385019803948707392022282473806
76,2311.40652034820064136293083747823386,2310.0,1.40652034820064136293083747823386
77,2372.60915551880547014246317701438085,2371.2,1.40915551880547014246317701438085
78,2434.61175661512211448362692477047956,2433.2,1.41175661512211448362692477047956
79,2497.41432450770834199211983921300221,2496.0,1.41432450770834199211983921300221
80,2561.01686003416441163645229946899078,2559.6,1.41686003416441163645229946899078
81,2625.41936400077663033025153874602055,2624.0,1.41936400077663033025153874602055
82,2690.62183718405968299113506451732909,2689.2,1.42183718405968299113506451732909
83,2756.62428033220512906485304335795165,2755.2,1.42428033220512906485304335795165
84,2823.42669416644283421168339385109138,2822.0,1.42669416644283421168339385109138
85,2891.02907938232154657588938475097057,2889.6,1.42907938232154657588938475097057
86,2959.43143665091431119366007699810345,2958.0,1.43143665091431119366007699810345
87,3028.63376661995395862415438765954279,3027.2,1.43376661995395862415438765954279
88,3098.63606991490348051053340808362887,3097.2,1.43606991490348051053340808362887
89,3169.43834713996572127570432868867231,3168.0,1.43834713996572127570432868867231
90,3241.04059887903647194076996693569519,3239.6,1.44059887903647194076996693569519
91,3313.44282569660473060212739749800273,3312.0,1.44282569660473060212739749800273
92,3386.64502813860360580561965191809689,3385.2,1.44502813860360580561965191809689
93,3460.64720673321507680108945750262257,3459.2,1.44720673321507680108945750262257
94,3535.44936199163158173194537082514773,3534.0,1.44936199163158173194537082514773
95,3611.05149440877718366032207236426397,3609.6,1.45149440877718366032207236426397
96,3687.45360446399086250630002233573838,3686.0,1.45360446399086250630002233573838
97,3764.65569262167429663754033559426536,3763.2,1.45569262167429663754033559426536
98,3842.65775933190632497139585862391509,3841.2,1.45775933190632497139585862391509
99,3921.45980503102612697937074338219663,3920.0,1.45980503102612697937074338219663
100,4001.06183014218701164338436821942160,3999.6,1.46183014218701164338436821942160
101,4081.46383507588257710914164652479721,4080.0,1.46383507588257710914164652479721
102,4162.66582023044687720719026919154321,4161.2,1.46582023044687720719026919154321
103,4244.66778599253012309863283758541025,4243.2,1.46778599253012309863283758541025
104,4327.46973273755134103775202433364789,4326.0,1.46973273755134103775202433364789
105,4411.07166083012931417004918540269750,4409.6,1.47166083012931417004918540269750
106,4495.47357062449304551995414142864092,4494.0,1.47357062449304551995414142864092
107,4580.67546246487290124050801649198301,4579.2,1.47546246487290124050801649198301
108,4666.67733668587351395776711999997282,4665.2,1.47733668587351395776711999997282
109,4753.47919361282945744914167163206195,4752.0,1.47919361282945744914167163206195
110,4841.08103356214464147475818744743931,4839.6,1.48103356214464147475818744743931
111,4929.48285684161630971973615056162367,4928.0,1.48285684161630971973615056162367
112,5018.68466375074447437163628621610013,5017.2,1.48466375074447437163628621610013
113,5108.68645458102756532154357271065569,5107.2,1.48645458102756532154357271065569
114,5199.48822961624502321949235342897149,5198.0,1.48822961624502321949235342897149
115,5291.08998913272752516643805434113915,5289.6,1.48998913272752516643805434113915
116,5383.49173339961548349333245455146150,5382.0,1.49173339961548349333245455146150
117,5476.69346267910642636485248643473629,5475.2,1.49346267910642636485248643473629
118,5570.69517722669182791422725496415937,5569.2,1.49517722669182791422725496415937
119,5665.49687729138392190189192226334566,5664.0,1.49687729138392190189192226334566
120,5761.09856311593300704846242387311210,5759.6,1.49856311593300704846242387311210
121,5857.50023493703571392528059728838384,5856.0,1.50023493703571392528059728838384
122,5954.70189298553468437264695629762311,5953.2,1.50189298553468437264695629762311
123,6052.70353748661008222292661452648806,6051.2,1.50353748661008222292661452648806
124,6151.50516865996333642590506812622652,6150.0,1.50516865996333642590506812622652
125,6251.10678671999348810750817567124918,6249.6,1.50678671999348810750817567124918
126,6351.50839187596649789570280155425187,6350.0,1.50839187596649789570280155425187
127,6452.70998433217784926950855759045063,6451.2,1.50998433217784926950855759045063
128,6554.71156428810876109986177546361650,6553.2,1.51156428810876109986177546361650
129,6657.51313193857631047783432782587820,6656.0,1.51313193857631047783432782587820
130,6761.11468747387774854384329442070273,6759.6,1.51468747387774854384329442070273
131,6865.51623107992927662736952541873649,6864.0,1.51623107992927662736952541873649
132,6970.71776293839953502950285568828579,6969.2,1.51776293839953502950285568828579
133,7076.71928322683804499904697353414562,7075.2,1.51928322683804499904697353414562
134,7183.52079211879883317695993857942762,7182.0,1.52079211879883317695993857942762
135,7291.12228978395944967556286378474104,7289.6,1.52228978395944967556286378474104
136,7399.52377638823558727141919941177000,7398.0,1.52377638823558727141919941177000
137,7508.72525209389149588284466431513529,7507.2,1.52525209389149588284466431513529
138,7618.72671705964637289101648209207403,7617.2,1.52671705964637289101648209207403
139,7729.52817144077690775774587230191226,7728.0,1.52817144077690775774587230191226
140,7841.12961538921614394700933561380917,7839.6,1.52961538921614394700933561380917
141,7953.53104905364881659984477789654051,7952.0,1.53104905364881659984477789654051
142,8066.73247257960331633895186095420340,8065.2,1.53247257960331633895186095420340
143,8180.73388610954042092916647099357727,8179.2,1.53388610954042092916647099357727
144,8295.53528978293892934034316109672757,8294.0,1.53528978293892934034316109672757
145,8411.13668373637832857141976764115112,8409.6,1.53668373637832857141976764115112
146,8527.53806810361861572568862547415901,8526.0,1.53806810361861572568862547415901
147,8644.73944301567738962433255460136343,8643.2,1.53944301567738962433255460136343
148,8762.74080860090432728725063776255661,8761.2,1.54080860090432728725063776255661
149,8881.54216498505314708212561567433411,8880.0,1.54216498505314708212561567433411
150,9001.14351229135116218260646433685662,8999.6,1.54351229135116218260646433685662
151,9121.54485064056652024985804581908767,9120.0,1.54485064056652024985804581908767
152,9242.74618015107321963664356835645357,9241.2,1.54618015107321963664356835645357
153,9364.74750093891399106363050100624266,9363.2,1.54750093891399106363050100624266
154,9487.54881311786112866715830642519517,9486.0,1.54881311786112866715830642519517
155,9611.15011679947534865445715691756301,9609.6,1.55011679947534865445715691756301
156,9735.55141209316275343267718817024215,9734.0,1.55141209316275343267718817024215
157,9860.75269910622997225832740599839202,9859.2,1.55269910622997225832740599839202
158,9986.75397794393755022522230413803734,9985.2,1.55397794393755022522230413803734
159,10113.5552487095516492637656188076789,10112.0,1.5552487095516492637656188076789
160,10241.1565115043941274891060818293912,10239.6,1.5565115043941274891060818293912
161,10369.5577664278910553942809681179805,10368.0,1.5577664278910553942809681179805
162,10498.7590135776197283494444885090339,10497.2,1.5590135776197283494444885090339
163,10628.7602530493542302604758572521580,10627.2,1.5602530493542302604758572521580
164,10759.5614849371096030235585874985574,10758.0,1.5614849371096030235585874985574
165,10891.1627093331846703759452958026353,10889.6,1.5627093331846703759452958026353
166,11023.5639263282035666584930632478034,11022.0,1.5639263282035666584930632478034
167,11156.7651360111560177222867496608476,11155.2,1.5651360111560177222867496608476
168,11290.7663384694364166682613430331152,11289.2,1.5663384694364166682613430331152
169,11425.5675337888817394819117232270300,11424.0,1.5675337888817394819117232270300
170,11561.1687220538083403062044965497295,11559.6,1.5687220538083403062044965497295
171,11697.5699033470476665471512026636621,11696.0,1.5699033470476665471512026636621
172,11834.7710777499809316787003594234852,11833.2,1.5710777499809316787003594234852
173,11972.7722453425727811492785080328235,11971.2,1.5722453425727811492785080328235
174,12111.5734062034039872334947267787943,12110.0,1.5734062034039872334947267787943
175,12251.1745604097032068139418906109914,12249.6,1.5745604097032068139418906109914
176,12391.5757080373778317994486177597619,12390.0,1.5757080373778317994486177597619
177,12532.7768491610439654403205709838726,12531.2,1.5768491610439654403205709838726
178,12674.7779838540555536949693779471044,12673.2,1.5779838540555536949693779471044
179,12817.5791121885326980928769210088287,12816.0,1.5791121885326980928769210088287
180,12961.1802342353891810402970727698785,12959.6,1.5802342353891810402970727698785
181,13105.5813500643592262172836944839509,13104.0,1.5813500643592262172836944839509
182,13250.7824597440235217614340844478465,13249.2,1.5824597440235217614340844478465
183,13396.7835633418345292876259566349669,13395.2,1.5835633418345292876259566349669
184,13543.5846609241411029852882487640264,13542.0,1.5846609241411029852882487640264
185,13691.1857525562124406013348213285867,13689.6,1.5857525562124406013348213285867
186,13839.5868383022613872773839434850147,13838.0,1.5868383022613872773839434850147
187,13988.7879182254671160417688461529730,13987.2,1.5879182254671160417688461529730
188,14138.7889923879972003926586612674526,14137.2,1.5889923879972003926586612674526
189,14289.5900608510291027033843085243947,14288.0,1.5900608510291027033843085243947
190,14441.1911236747710941010511370189723,14439.6,1.5911236747710941010511370189723
191,14593.5921809184826250409946670788854,14592.0,1.5921809184826250409946670788854
192,14746.7932326404941629592857089642205,14745.2,1.5932326404941629592857089642205
193,14900.7942788982265153071379048164431,14899.2,1.5942788982265153071379048164431
194,15055.5953197482096513080032125918374,15054.0,1.5953197482096513080032125918374
195,15211.1963552461010403697194326495419,15209.6,1.5963552461010403697194326495419
196,15367.5973854467035208436126576177400,15366.0,1.5973854467035208436126576177400
197,15524.7984104039827135058804295479106,15523.2,1.5984104039827135058804295479106
198,15682.7994301710839939232392523196106,15681.2,1.5994301710839939232392523196106
199,15841.6004448003490365366953013622241,15840.0,1.6004448003490365366953013622241
200,16001.2014543433319444036427963315770,15999.6,1.6014543433319444036427963315770
201,16161.6024588508149755747133393604410,16160.0,1.6024588508149755747133393604410
202,16322.8034583728238794815338113274679,16321.2,1.6034583728238794815338113274679
203,16484.8044529586428539901187284806970,16483.2,1.6044529586428539901187284806970
204,16647.6054426568291347348071161984543,16646.0,1.6054426568291347348071161984543
205,16811.2064275152272266981016624005683,16809.6,1.6064275152272266981016624005683
206,16975.6074075809827910551558471518712,16974.0,1.6074075809827910551558471518712
207,17140.8083829005561931535831758494052,17139.2,1.6083829005561931535831758494052
208,17306.8093535197357258500417801581111,17305.2,1.6093535197357258500417801581111
209,17473.6103194836505139464734882519596,17472.0,1.6103194836505139464734882519596
210,17641.2112808367831112216459522533438,17639.6,1.6112808367831112216459522533438
211,17809.6122376229817974170064449997424,17808.0,1.6122376229817974170064449997424
212,17978.8131898854725854040220228336082,17977.2,1.6131898854725854040220228336082
213,18148.8141376668709429109475821684312,18147.2,1.6141376668709429109475821684312
214,18319.6150810091932437847582458325894,18318.0,1.6150810091932437847582458325894
215,18491.2160199538679479945268132459391,18489.6,1.6160199538679479945268132459391
216,18663.6169545417465243307520461874556,18662.0,1.6169545417465243307520461874556
217,18836.8178848131141197597299380661899,18835.2,1.6178848131141197597299380661899
218,19010.8188108076999844054674625851427,19009.2,1.6188108076999844054674625851427
219,19185.6197325646876554321278178718890,19184.0,1.6197325646876554321278178718890
220,19361.2206501227249123351851034292471,19359.6,1.6206501227249123351851034292471
221,19537.6215635199335015436319857155564,19536.0,1.6215635199335015436319857155564
222,19714.8224727939186475306597062593979,19713.2,1.6224727939186475306597062593979
223,19892.8233779817783439936953720697372,19891.2,1.6233779817783439936953720697372
224,20071.6242791201124401631506282368049,20070.0,1.6242791201124401631506282368049
225,20251.2251762450315247964804496150697,20249.6,1.6251762450315247964804496150697
226,20431.6260693921656113955500803916082,20430.0,1.6260693921656113955500803916082
227,20612.8269585966726332902135329207854,20611.2,1.6269585966726332902135329207854
228,20794.8278438932467503983640233216742,20793.2,1.6278438932467503983640233216742
229,20977.6287253161264748146582412679455,20976.0,1.6287253161264748146582412679455
230,21161.2296028991026199142116316608038,21159.6,1.6296028991026199142116316608038
231,21345.6304766755260747605908698834809,21344.0,1.6304766755260747605908698834809
232,21530.8313466783154142270775872813765,21529.2,1.6313466783154142270775872813765
233,21716.8322129399643398167651061140377,21715.2,1.6322129399643398167651061140377
234,21903.6330754925489673276108305634476,21902.0,1.6330754925489673276108305634476
235,22091.2339343677349545336016957867415,22089.6,1.6339343677349545336016957867415
236,22279.6347895967844785808612021854465,22278.0,1.6347895967844785808612021854465
237,22468.8356412105630667188842212373875,22467.2,1.6356412105630667188842212373875
238,22658.8364892395462820979716432898700,22657.2,1.6364892395462820979716432898700
