Eigenstate,Energy,Kinetic Energy,Potential Energy
1,0.500000000014436759845643134025840090,0.0,0.500000000014436759845643134025840090
2,1.84623093774535024475812525124867650,1.2,0.64623093774535024475812525124867650
3,3.93633760998178493139498178949355332,3.2,0.73633760998178493139498178949355332
4,6.79966527839080040038363643037656682,6.0,0.79966527839080040038363643037656682
5,10.4480465762844073382580235490293482,9.6,0.8480465762844073382580235490293482
6,14.8870659984156876655059370287811199,14.0,0.8870659984156876655059370287811199
7,20.1197208262220694825480638252932546,19.2,0.9197208262220694825480638252932546
8,26.1477838460801119120975085684604488,25.2,0.9477838460801119120975085684604488
9,32.9723835569958730456418163998158876,32.0,0.9723835569958730456418163998158876
10,40.5942802131177872185207492844387018,39.6,0.9942802131177872185207492844387018
11,49.0140093845868009224169398543274502,48.0,1.0140093845868009224169398543274502
12,58.2319621667074773258270896567676119,57.2,1.0319621667074773258270896567676119
13,68.2484326895455733130671649316351474,67.2,1.0484326895455733130671649316351474
14,79.0636476507841925184492005392221716,78.0,1.0636476507841925184492005392221716
15,90.6777854315379650866395136668900454,89.6,1.0777854315379650866395136668900454
16,103.090988901223489585802263260231663,102.0,1.090988901223489585802263260231663
17,116.303374251020835392061014011789251,115.2,1.103374251020835392061014011789251
18,130.315037244879740931572408898636250,129.2,1.115037244879740931572408898636250
19,145.126057742623590524593221647536613,144.0,1.126057742623590524593221647536613
20,160.736503037583350327910089624118446,159.6,1.136503037583350327910089624118446
21,177.146430362679265182183115295666324,176.0,1.146430362679265182183115295666324
22,194.355888801579598521069340257452526,193.2,1.155888801579598521069340257452526
23,212.364920766637156871563418249892122,211.2,1.164920766637156871563418249892122
24,231.173563156289711904290475678656743,230.0,1.173563156289711904290475678656743
25,250.781848271855926747596121462466656,249.6,1.181848271855926747596121462466656
26,271.189804551342943682456501693733204,270.0,1.189804551342943682456501693733204
27,292.397457162408959937714832550030725,291.2,1.197457162408959937714832550030725
28,314.404828485722267498503328293455964,313.2,1.204828485722267498503328293455964
29,337.211938512163205020904371913142879,336.0,1.211938512163205020904371913142879
30,360.818805171665982377793071371475146,359.6,1.218805171665982377793071371475146
31,385.225444607351399861566321433424359,384.0,1.225444607351399861566321433424359
32,410.431871405523584485347726710422182,409.2,1.231871405523584485347726710422182
33,436.438098789794218020579051809149010,435.2,1.238098789794218020579051809149010
34,463.244138785847185143096143538661090,462.0,1.244138785847185143096143538661090
35,490.850002362017374994356119194233479,489.6,1.250002362017374994356119194233479
36,519.255699549823890586147000606490783,518.0,1.255699549823890586147000606490783
37,548.461239547793835928766082207222608,547.2,1.261239547793835928766082207222608
38,578.466630811282432019650239715290490,577.2,1.266630811282432019650239715290490
39,609.271881130497364180034359463415125,608.0,1.271881130497364180034359463415125
40,640.876997698539442443758141287818731,639.6,1.276997698539442443758141287818731
41,673.281987170954906428692753008096388,672.0,1.281987170954906428692753008096388
42,706.486855718039713519812055509068791,705.2,1.286855718039713519812055509068791
43,740.491609070929662848064773959017999,739.2,1.291609070929662848064773959017999
44,775.296252562342113533739395858813823,774.0,1.296252562342113533739395858813823
45,810.900791162697486094049325673830157,809.6,1.300791162697486094049325673830157
46,847.305229512235599632099691824299055,846.0,1.305229512235599632099691824299055
47,884.509571949648420812088624359942725,883.2,1.309571949648420812088624359942725
48,922.513822537673214261366863876417320,921.2,1.313822537673214261366863876417320
49,961.317985086025421496099158214648560,960.0,1.317985086025421496099158214648560
50,1000.92206317199647275363114343569603,999.6,1.32206317199647275363114343569603
51,1041.32606015899626915220423817906215,1040.0,1.32606015899626915220423817906215
52,1082.52997921328172738437123714877524,1081.2,1.32997921328172738437123714877524
53,1124.53382331908032903192731224788196,1123.2,1.33382331908032903192731224788196
54,1167.33759529229005545872178568630077,1166.0,1.33759529229005545872178568630077
55,1210.94129779291361374520996624136893,1209.6,1.34129779291361374520996624136893
56,1255.34493333636478455848408710287515,1254.0,1.34493333636478455848408710287515
57,1300.54850430376752388640755938086106,1299.2,1.34850430376752388640755938086106
58,1346.55201295135365337818937628203153,1345.2,1.35201295135365337818937628203153
59,1393.35546141905222008646347064510858,1392.0,1.35546141905222008646347064510858
60,1440.95885173835258189823817450596902,1439.6,1.35885173835258189823817450596902
61,1489.36218583951371071457865487661657,1488.0,1.36218583951371071457865487661657
62,1538.56546555818390443377367644362150,1537.2,1.36546555818390443377367644362150
63,1588.56869264148785690371920870476923,1587.2,1.36869264148785690371920870476923
64,1639.37186875363172252933077350329387,1638.0,1.37186875363172252933077350329387
65,1690.97499548107127738082484950600231,1689.6,1.37499548107127738082484950600231
66,1743.37807433728343130965672453931475,1742.0,1.37807433728343130965672453931475
67,1796.58110676717708328757729923637068,1795.2,1.38110676717708328757729923637068
68,1850.58409415117555602346364315025582,1849.2,1.38409415117555602346364315025582
69,1905.38703780899953324185199465656428,1904.0,1.38703780899953324185199465656428
70,1960.98993900317649473883860318336711,1959.6,1.38993900317649473883860318336711
71,2017.39279894230004562728306874142254,2016.0,1.39279894230004562728306874142254
72,2074.59561878406023794086963764107868,2073.2,1.39561878406023794086963764107868
73,2132.59839963806392976017869434544594,2131.2,1.39839963806392976017869434544594
74,2191.40114256846240817536835940778921,2190.0,1.40114256846240817536835940778921
75,2251.00384859640187129896334430393990,2249.6,1.40384859640187129896334430393990
76,2311.40651870231091498549325552998541,2310.0,1.40651870231091498549325552998541
77,2372.60915382803786751630463989606203,2371.2,1.40915382803786751630463989606203
78,2434.61175487884964970969106074371902,2433.2,1.41175487884964970969106074371902
79,2497.41432272530279109649340251119209,2496.0,1.41432272530279109649340251119209
80,2561.01685820499629467567833069981184,2559.6,1.41685820499629467567833069981184
81,2625.41936212421519342292629437273916,2624.0,1.41936212421519342292629437273916
82,2690.62183525947288027470707459628181,2689.2,1.42183525947288027470707459628181
83,2756.62427835895960457653131033889369,2755.2,1.42427835895960457653131033889369
84,2823.42669214390390369235035381672668,2822.0,1.42669214390390369235035381672668
85,2891.02907730985317919590318558413065,2889.6,1.42907730985317919590318558413065
86,2959.43143452787911119941988854597637,2958.0,1.43143452787911119941988854597637
87,3028.63376444571314690429130069222231,3027.2,1.43376444571314690429130069222231
88,3098.63606768881687608057884174693194,3097.2,1.43606768881687608057884174693194
89,3169.43834486139172268007704672152605,3168.0,1.43834486139172268007704672152605
90,3241.04059654733203857091206251936206,3239.6,1.44059654733203857091206251936206
91,3313.44282331112536392960871285935550,3312.0,1.44282331112536392960871285935550
92,3386.64502569870333052901962902886726,3385.2,1.44502569870333052901962902886726
93,3460.64720423824642190545432621588429,3459.2,1.44720423824642190545432621588429
94,3535.44935944094556145960801675578929,3534.0,1.44935944094556145960801675578929
95,3611.05149180172327839186095331421000,3609.6,1.45149180172327839186095331421000
96,3687.45360179991699955040269061763212,3686.0,1.45360179991699955040269061763212
97,3764.65568989992683092852602775655090,3763.2,1.45568989992683092852602775655090
98,3842.65775655183001967314075028820271,3841.2,1.45775655183001967314075028820271
99,3921.45980219196413399436809353305212,3920.0,1.45980219196413399436809353305212
100,4001.06182724348085202566087075598772,3999.6,1.46182724348085202566087075598772
101,4081.46383211687212137973966358352057,4080.0,1.46383211687212137973966358352057
102,4162.66581721047032557091444441031629,4161.2,1.46581721047032557091444441031629
103,4244.66778291092398556074811219446001,4243.2,1.46778291092398556074811219446001
104,4327.46972959365041741930798936811708,4326.0,1.46972959365041741930798936811708
105,4411.07165762326667402049447670466933,4409.6,1.47165762326667402049447670466933
106,4495.47356735400000792569231062735170,4494.0,1.47356735400000792569231062735170
107,4580.67545913007901452803448716076312,4579.2,1.47545913007901452803448716076312
108,4666.67733328610653529001451852076877,4665.2,1.47733328610653529001451852076877
109,4753.47919014741533231364851326225244,4752.0,1.47919014741533231364851326225244
110,4841.08103003040748306226355433620891,4839.6,1.48103003040748306226355433620891
111,4929.48285324287837819179028218793755,4928.0,1.48285324287837819179028218793755
112,5018.68466008432615601580414277841597,5017.2,1.48466008432615601580414277841597
113,5108.68645084624735159276569043675881,5107.2,1.48645084624735159276569043675881
114,5199.48822581241948966615397292307196,5198.0,1.48822581241948966615397292307196
115,5291.08998525917131023968446605436283,5289.6,1.48998525917131023968446605436283
116,5383.49172945564126723815482452966234,5382.0,1.49172945564126723815482452966234
117,5476.69345866402490899145491410276444,5475.2,1.49345866402490899145491410276444
118,5570.69517313981170824817204420126032,5569.2,1.49517313981170824817204420126032
119,5665.49687313201187571150603020152479,5664.0,1.49687313201187571150603020152479
120,5761.09855888337366524797370142288141,5759.6,1.49855888337366524797370142288141
121,5857.50023063059164065213827802382147,5856.0,1.50023063059164065213827802382147
122,5954.70188860450635493746623072095457,5953.2,1.50188860450635493746623072095457
123,6052.70353303029586093048225028044706,6051.2,1.50353303029586093048225028044706
124,6151.50516412765945426558428163229235,6150.0,1.50516412765945426558428163229235
125,6251.10678211099402031161748857233386,6249.6,1.50678211099402031161748857233386
126,6351.50838718956334136400843114642286,6350.0,1.50838718956334136400843114642286
127,6452.70997956766069985837436532003842,6451.2,1.50997956766069985837436532003842
128,6554.71155944476509077433266230921205,6553.2,1.51155944476509077433266230921205
129,6657.51312701569134432499725690656654,6656.0,1.51312701569134432499725690656654
130,6761.11468247073444164578175456049525,6759.6,1.51468247073444164578175456049525
131,6865.51622599580829079201075939069423,6864.0,1.51622599580829079201075939069423
132,6970.71775777257921537764015798861892,6969.2,1.51775777257921537764015798861892
133,7076.71927797859439640580322182105051,7075.2,1.51927797859439640580322182105051
134,7183.52078678740549656594040044232305,7182.0,1.52078678740549656594040044232305
135,7291.12228436868767816392829676363922,7289.6,1.52228436868767816392829676363922
136,7399.52377088835422216409294718358116,7398.0,1.52377088835422216409294718358116
137,7508.72524650866694251404884892536285,7507.2,1.52524650866694251404884892536285
138,7618.72671138834257631131469037489972,7617.2,1.52671138834257631131469037489972
139,7729.52816568265532826475104993119239,7728.0,1.52816568265532826475104993119239
140,7841.12960954353573245789707879050613,7839.6,1.52960954353573245789707879050613
141,7953.53104311966598986379326537978716,7952.0,1.53104311966598986379326537978716
142,8066.73246655657193198761020851857679,8065.2,1.53246655657193198761020851857679
143,8180.73387999671175236323414452931169,8179.2,1.53387999671175236323414452931169
144,8295.53528357956164045032287299300930,8294.0,1.53528357956164045032287299300930
145,8411.13667744169844829058675754334806,8409.6,1.53667744169844829058675754334806
146,8527.53806171687951241329842901610638,8526.0,1.53806171687951241329842901610638
147,8644.73943653611974527706888969277432,8643.2,1.53943653611974527706888969277432
148,8762.74080202776611157689437277581201,8761.2,1.54080202776611157689437277581201
149,8881.54215831756959121740397552626958,8880.0,1.54215831756959121740397552626958
150,9001.14350552875473259316098037614784,8999.6,1.54350552875473259316098037614784
151,9121.54484378208689209024689271740302,9120.0,1.54484378208689209024689271740302
152,9242.74617319593725010827267496189412,9241.2,1.54617319593725010827267496189412
153,9364.74749388634569255248490872158096,9363.2,1.54749388634569255248490872158096
154,9487.54880596708164169518271529547250,9486.0,1.54880596708164169518271529547250
155,9611.15010954970291464241135003508959,9609.6,1.55010954970291464241135003508959
156,9735.55140474361268727226844045409192,9734.0,1.55140474361268727226844045409192
157,9860.75269165611463469139875728133472,9859.2,1.55269165611463469139875728133472
158,9986.75397039246632002775090880140276,9985.2,1.55397039246632002775090880140276
159,10113.5552410559308952324013766456483,10112.0,1.5552410559308952324013766456483
160,10241.1565037478271802279556053056872,10239.6,1.5565037478271802279556053056872
161,10369.5577585675781788996170537992279,10368.0,1.5577585675781788996170537992279
162,10498.7590056127580913899955455319792,10497.2,1.5590056127580913899955455319792
163,10628.7602449791378775509242687972714,10627.2,1.5602449791378775509242687972714
164,10759.5614767607294261888502800694628,10758.0,1.5614767607294261888502800694628
165,10891.1627010498283787039861307157022,10889.6,1.5627010498283787039861307157022
166,11023.5639179370556576387813336809869,11022.0,1.5639179370556576387813336809869
167,11156.7651275113977473680029969532320,11155.2,1.5651275113977473680029969532320
168,11290.7663298602457696193090518992786,11289.2,1.5663298602457696193090518992786
169,11425.5675250694333988863746569671263,11424.0,1.5675250694333988863746569671263
170,11561.1687132232736574776572745071771,11559.6,1.5687132232736574776572745071771
171,11697.5698944045946303952311873055588,11696.0,1.5698944045946303952311873055588
172,11834.7710686947741379103191838577263,11833.2,1.5710686947741379103191838577263
173,11972.7722361737734012378220737194371,11971.2,1.5722361737734012378220737194371
174,12111.5733969201697371533298162082620,12110.0,1.5733969201697371533298162082620
175,12251.1745510111883155375171256751274,12249.6,1.5745510111883155375171256751274
176,12391.5756985227330095542461484946873,12390.0,1.5756985227330095542461484946873
177,12532.7768395294163717228834667881742,12531.2,1.5768395294163717228834667881742
178,12674.7779741045887650391973698107093,12673.2,1.5779741045887650391973698107093
179,12817.5791023203666755897509246729272,12816.0,1.5791023203666755897509246729272
180,12961.1802242476602376061594757598342,12959.6,1.5802242476602376061594757598342
181,13105.5813399561999936077683543101053,13104.0,1.5813399561999936077683543101053
182,13250.7824495145629173281058295136590,13249.2,1.5824495145629173281058295136590
183,13396.7835529901977224743547971019985,13395.2,1.5835529901977224743547971019985
184,13543.5846504494494815613487717654681,13542.0,1.5846504494494815613487717654681
185,13691.1857419575835766281849104174630,13689.6,1.5857419575835766281849104174630
186,13839.5868275788090028060428555581578,13838.0,1.5868275788090028060428555581578
187,13988.7879073763010485376759195236323,13987.2,1.5879073763010485376759195236323
188,14138.7889814122233678848582535265433,14137.2,1.5889814122233678848582535265433
189,14289.5900497477494686548446208699448,14288.0,1.5900497477494686548446208699448
190,14441.1911124430836319968863567580068,14439.6,1.5911124430836319968863567580068
191,14593.5921695574812826913208205960390,14592.0,1.5921695574812826913208205960390
192,14746.7932211492688265134021020428054,14745.2,1.5932211492688265134021020428054
193,14900.7942672758629729756851689975959,14899.2,1.5942672758629729756851689975959
194,15055.5953079937895567897096231569013,15054.0,1.5953079937895567897096231569013
195,15211.1963433587018759793047940202335,15209.6,1.5963433587018759793047940202335
196,15367.5973734253985603373785429731646,15366.0,1.5973734253985603373785429731646
197,15524.7983982478409846014726870649945,15523.2,1.5983982478409846014726870649945
198,15682.7994178791702405100258549083305,15681.2,1.5994178791702405100258549083305
199,15841.6004323717236805731588813379301,15840.0,1.6004323717236805731588813379301
200,16001.2014417770510474981434360297643,15999.6,1.6014417770510474981434360297643
201,16161.6024461459302002459322894293324,16160.0,1.6024461459302002459322894293324
202,16322.8034455283824500948621646890544,16321.2,1.6034455283824500948621646890544
203,16484.8044399736875173662108808283492,16483.2,1.6044399736875173662108808283492
204,16647.6054295303981204264698830050827,16646.0,1.6054295303981204264698830050827
205,16811.2064142463542069316438582980937,16809.6,1.6064142463542069316438582980937
206,16975.6073941686968403322739220601939,16974.0,1.6073941686968403322739220601939
207,17140.8083693438817475098095069503136,17139.2,1.6083693438817475098095069503136
208,17306.8093398176925417657332001509098,17305.2,1.6093398176925417657332001509098
209,17473.6103056352536269062656995089120,17472.0,1.6103056352536269062656995089120
210,17641.2112668410427939182495551417842,17639.6,1.6112668410427939182495551417842
211,17809.6122234789035175951676761714719,17808.0,1.6122234789035175951676761714719
212,17978.8131755920569633404183355063273,17977.2,1.6131755920569633404183355063273
213,18148.8141232231137085257340985684569,18147.2,1.6141232231137085257340985684569
214,18319.6150664140851933804279198027978,18318.0,1.6150664140851933804279198027978
215,18491.2160052063949006176905568851572,18489.6,1.6160052063949006176905568851572
216,18663.6169396408892777523894403047593,18662.0,1.6169396408892777523894403047593
217,18836.8178697578484060694039517283641,18835.2,1.6178697578484060694039517283641
218,19010.8187955969964252149395747155227,19009.2,1.6187955969964252149395747155227
219,19185.6197171975117166837493269389590,19184.0,1.6197171975117166837493269389590
220,19361.2206345980368587103826213261809,19359.6,1.6206345980368587103826213261809
221,19537.6215478366883504667436461294645,19536.0,1.6215478366883504667436461294645
222,19714.8224569510661227633168511716094,19713.2,1.6224569510661227633168511716094
223,19892.8233619782628288148827749459369,19891.2,1.6233619782628288148827749459369
224,20071.6242629548729301300143398158145,20070.0,1.6242629548729301300143398158145
225,20251.2251599170015800808878984643407,20249.6,1.6251599170015800808878984643407
226,20431.6260529002733086913416496749075,20430.0,1.6260529002733086913416496749075
227,20612.8269419398405172860194882583758,20611.2,1.6269419398405172860194882583758
228,20794.8278270703917848107912064380482,20793.2,1.6278270703917848107912064380482
229,20977.6287083261599929765838453979447,20976.0,1.6287083261599929765838453979447
230,21161.2295857409302749128521216294157,21159.6,1.6295857409302749128521216294157
231,21345.6304593480477891199418095268671,21344.0,1.6304593480477891199418095268671
232,21530.8313291804253291292502016851453,21529.2,1.6313291804253291292502016851453
233,21716.8321952705507638566712256634172,21715.2,1.6321952705507638566712256634172
234,21903.6330576504943247953742289246106,21902.0,1.6330576504943247953742289246106
235,22091.2339163519157332189992641197327,22089.6,1.6339163519157332189992641197327
236,22279.6347714060711770940198726544226,22278.0,1.6347714060711770940198726544226
237,22468.8356228438201413213827818777277,22467.2,1.6356228438201413213827818777277
238,22658.8364706956320930384176306187763,22657.2,1.6364706956320930384176306187763
