Eigenstate,Energy,Kinetic Energy,Potential Energy
1,0.500000000341106248691724317328366410,0.0,0.500000000341106248691724317328366410
2,1.84623093987770476518466893890502541,1.2,0.64623093987770476518466893890502541
3,3.93633761624552439767712600015982452,3.2,0.73633761624552439767712600015982452
4,6.79966529143779728418449346658519726,6.0,0.79966529143779728418449346658519726
5,10.4480465988852325038174262683169700,9.6,0.8480465988852325038174262683169700
6,14.8870660333898800791629057337548909,14.0,0.8870660333898800791629057337548909
7,20.1197208764125191300267830919422646,19.2,0.9197208764125191300267830919422646
8,26.1477839143424460196778685984534360,25.2,0.9477839143424460196778685984534360
9,32.9723836461935846596558470298538849,32.0,0.9723836461935846596558470298538849
10,40.5942803261198217689623562845117582,39.6,0.9942803261198217689623562845117582
11,49.0140095242663000119840300765378869,48.0,1.0140095242663000119840300765378869
12,58.2319623359411123437452877443783420,57.2,1.0319623359411123437452877443783420
13,68.2484328912132002740101611191563118,67.2,1.0484328912132002740101611191563118
14,79.0636478877686918914063663493315212,78.0,1.0636478877686918914063663493315212
15,90.6777857067251933511875081759529510,89.6,1.0777857067251933511875081759529510
16,103.090989217502301098452730588935158,102.0,1.090989217502301098452730588935158
17,116.303374611283150118634167080541646,115.2,1.103374611283150118634167080541646
18,130.315037652020643070300158213712782,129.2,1.115037652020643070300158213712782
19,145.126058199541448541739392787523864,144.0,1.126058199541448541739392787523864
20,160.736503547179952233016984862962708,159.6,1.136503547179952233016984862962708
21,177.146430927859964920287607940641028,176.0,1.146430927859964920287607940641028
22,194.355889425253470666723387023598728,193.2,1.155889425253470666723387023598728
23,212.364921451717157664318770359450042,211.2,1.164921451717157664318770359450042
24,231.173563905692845236856739115480308,230.0,1.173563905692845236856739115480308
25,250.781849088503414107871297262519718,249.6,1.181849088503414107871297262519718
26,271.189805438160397321699218527429664,270.0,1.189805438160397321699218527429664
27,292.397458122326558728751933049455660,291.2,1.197458122326558728751933049455660
28,314.404829521674935085447278836129873,313.2,1.204829521674935085447278836129873
29,337.211939627090789962057193705262808,336.0,1.211939627090789962057193705262808
30,360.818806368513440057365210328610147,359.6,1.218806368513440057365210328610147
31,385.225445889068976001093770366950703,384.0,1.225445889068976001093770366950703
32,410.431872775067000127453122122015556,409.2,1.231872775067000127453122122015556
33,436.438100250124855889630595383515374,435.2,1.238100250124855889630595383515374
34,463.244140339932277311946426916949506,462.0,1.244140339932277311946426916949506
35,490.850004012830191805538199070967141,489.6,1.250004012830191805538199070967141
36,519.255701300343930791003635530932098,518.0,1.255701300343930791003635530932098
37,548.461241401007018019972183417582782,547.2,1.261241401007018019972183417582782
38,578.466632770181286742181652854458170,577.2,1.266632770181286742181652854458170
39,609.271883198081228213381426355526580,608.0,1.271883198081228213381426355526580
40,640.876999877814653254487844783349422,639.6,1.276999877814653254487844783349422
41,673.281989464934998297638694048948050,672.0,1.281989464934998297638694048948050
42,706.486858129745614752455669407723838,705.2,1.286858129745614752455669407723838
43,740.491611603389894180246783137070929,739.2,1.291611603389894180246783137070929
44,775.296255218592987747850158296044521,774.0,1.296255218592987747850158296044521
45,810.900793945783308863402420299034932,809.6,1.300793945783308863402420299034932
46,847.305232425208871613383025551921702,846.0,1.305232425208871613383025551921702
47,884.509574995570041007679679482231228,883.2,1.309574995570041007679679482231228
48,922.513825719612684674951152595826696,921.2,1.313825719612684674951152595826696
49,961.317988407061053106485965568240579,960.0,1.317988407061053106485965568240579
50,1000.92206663521559283295526931123864,999.6,1.32206663521559283295526931123864
51,1041.32606376749542995586601132259673,1040.0,1.32606376749542995586601132259673
52,1082.52998297016691624112180937673322,1081.2,1.32998297016691624112180937673322
53,1124.53382722746717986347299663806306,1123.2,1.33382722746717986347299663806306
54,1167.33759935530406175911537768674128,1166.0,1.33759935530406175911537768674128
55,1210.94130201369034305113129729727688,1209.6,1.34130201369034305113129729727688
56,1255.34493771805009444229835565457193,1254.0,1.34493771805009444229835565457193
57,1300.54850884951777950463579128776440,1299.2,1.34850884951777950463579128776440
58,1346.55201766433594660874156457084613,1345.2,1.35201766433594660874156457084613
59,1393.35546630244459028867265402303852,1392.0,1.35546630244459028867265402303852
60,1440.95885679534423833040388499946428,1439.6,1.35885679534423833040388499946428
61,1489.36219107330525664438217484773000,1488.0,1.36219107330525664438217484773000
62,1538.56547097198756297757017767158244,1537.2,1.36547097198756297757017767158244
63,1588.56869823852769863134584974169028,1587.2,1.36869823852769863134584974169028
64,1639.37187453714389487169911530602167,1638.0,1.37187453714389487169911530602167
65,1690.97500145430423587819344319990049,1689.6,1.37500145430423587819344319990049
66,1743.37808050349817273910496766196307,1742.0,1.37808050349817273910496766196307
67,1796.58111312964738070882956203939433,1795.2,1.38111312964738070882956203939433
68,1850.58410071318819578284323704208358,1849.2,1.38410071318819578284323704208358
69,1905.38704457385455397478113538367480,1904.0,1.38704457385455397478113538367480
70,1960.98994597418742841193942571753839,1959.6,1.38994597418742841193942571753839
71,2017.39280612279416066178626111795737,2016.0,1.39280612279416066178626111795737
72,2074.59562617737878445969123820070938,2073.2,1.39562617737878445969123820070938
73,2132.59840724756238700169390214676366,2131.2,1.39840724756238700169390214676366
74,2191.40115039751073411758591639183752,2190.0,1.40115039751073411758591639183752
75,2251.00385664838475453849237960101162,2249.6,1.40385664838475453849237960101162
76,2311.40652698062802891639200112269138,2310.0,1.40652698062802891639200112269138
77,2372.60916233610412685461317180575300,2371.2,1.40916233610412685461317180575300
78,2434.61176362009546941017428740181423,2433.2,1.41176362009546941017428740181423
79,2497.41433170317434770885967970219841,2496.0,1.41433170317434770885967970219841
80,2561.01686742295579018829049024630266,2559.6,1.41686742295579018829049024630266
81,2625.41937158574112164279206794747362,2624.0,1.41937158574112164279206794747362
82,2690.62184496806029579331807379207505,2689.2,1.42184496806029579331807379207505
83,2756.62428831812039437192041872306702,2755.2,1.42428831812039437192041872306702
84,2823.42670235716706141855406135695303,2822.0,1.42670235716706141855406135695303
85,2891.02908778076508221184997100261061,2889.6,1.42908778076508221184997100261061
86,2959.43144526000380039011686962933547,2958.0,1.43144526000380039011686962933547
87,3028.63377544263260934805356236076331,3027.2,1.43377544263260934805356236076331
88,3098.63607895413133061693431633959537,3097.2,1.43607895413133061693431633959537
89,3169.43835639871990843388935691703363,3168.0,1.43835639871990843388935691703363
90,3241.04060836031150648919303537063176,3239.6,1.44060836031150648919303537063176
91,3313.44283540341277138844274963871052,3312.0,1.44283540341277138844274963871052
92,3386.64503807397473906899257144939048,3385.2,1.44503807397473906899257144939048
93,3460.64721690019759815497327773356836,3459.2,1.44721690019759815497327773356836
94,3535.44937239329228130651345115155405,3534.0,1.44937239329228130651345115155405
95,3611.05150504820163446477144307969401,3609.6,1.45150504820163446477144307969401
96,3687.45361534428371207229355851194684,3686.0,1.45361534428371207229355851194684
97,3764.65570374595956200613102083112270,3763.2,1.45570374595956200613102083112270
98,3842.65777070332769108687435835461194,3841.2,1.45777070332769108687435835461194
99,3921.45981665274724855460514823867557,3920.0,1.45981665274724855460514823867557
100,4001.06184201739181856236997696756282,3999.6,1.46184201739181856236997696756282
101,4081.46384720777558343365804637935553,4080.0,1.46384720777558343365804637935553
102,4162.66583262225349385566709912267678,4161.2,1.46583262225349385566709912267678
103,4244.66779864749697426655823410570349,4243.2,1.46779864749697426655823410570349
104,4327.46974565894658443022127223243964,4326.0,1.46974565894658443022127223243964
105,4411.07167402124296511834014969057622,4409.6,1.47167402124296511834014969057622
106,4495.47358408863730505533792277275121,4494.0,1.47358408863730505533792277275121
107,4580.67547620538248819985611226662739,4579.2,1.47547620538248819985611226662739
108,4666.67735070610600119689864231193122,4665.2,1.47735070610600119689864231193122
109,4753.47920791616561224127190116375698,4752.0,1.47920791616561224127190116375698
110,4841.08104815198877017285768593887022,4839.6,1.48104815198877017285768593887022
111,4929.48287172139660676309452887527388,4928.0,1.48287172139660676309452887527388
112,5018.68467892391337571844286488071372,5017.2,1.48467892391337571844286488071372
113,5108.68647005106210639085055210448110,5107.2,1.48647005106210639085055210448110
114,5199.48824538664720142751931986139021,5198.0,1.48824538664720142751931986139021
115,5291.09000520702466714380396340444327,5289.6,1.49000520702466714380396340444327
116,5383.49174978136061707146967311926673,5382.0,1.49174978136061707146967311926673
117,5476.69347937187865742156484119029312,5475.2,1.49347937187865742156484119029312
118,5570.69519423409672217010162861219766,5569.2,1.49519423409672217010162861219766
119,5665.49689461705389176106382540734791,5664.0,1.49689461705389176106382540734791
120,5761.09858076352770357906710221754665,5759.6,1.49858076352770357906710221754665
121,5857.50025291024242407679969480672351,5856.0,1.50025291024242407679969480672351
122,5954.70191128806873352928221322968014,5953.2,1.50191128806873352928221322968014
123,6052.70355612221524219409924848819034,6051.2,1.50355612221524219409924848819034
124,6151.50518763241223897699634158653481,6150.0,1.50518763241223897699634158653481
125,6251.10680603308804413602074957531681,6249.6,1.50680603308804413602074957531681
126,6351.50841153353832236013741778265266,6350.0,1.50841153353832236013741778265266
127,6452.71000433808869198041597841344030,6451.2,1.51000433808869198041597841344030
128,6554.71158464625094348474996225528665,6553.2,1.51158464625094348474996225528665
129,6657.51315265287316843388275956482057,6656.0,1.51315265287316843388275956482057
130,6761.11470854828408149470526128488915,6759.6,1.51470854828408149470526128488915
131,6865.51625251843180290272895340404257,6864.0,1.51625251843180290272895340404257
132,6970.71778474501735368849924551947403,6969.2,1.51778474501735368849924551947403
133,7076.71930540562310422118227361431038,7075.2,1.51930540562310422118227361431038
134,7183.52081467383640534667198137133959,7182.0,1.52081467383640534667198137133959
135,7291.12231271936861328927943143906647,7289.6,1.52231271936861328927943143906647
136,7399.52379970816971579860117491388014,7398.0,1.52379970816971579860117491388014
137,7508.72527580253875371529202609636893,7507.2,1.52527580253875371529202609636893
138,7618.72674116123021851754084860977293,7617.2,1.52674116123021851754084860977293
139,7729.52819593955660430421786665482979,7728.0,1.52819593955660430421786665482979
140,7841.12964028948727722476453777125088,7839.6,1.52964028948727722476453777125088
141,7953.53107435974382080848163317786079,7952.0,1.53107435974382080848163317786079
142,8066.73249829589200757268464768602303,8065.2,1.53249829589200757268464768602303
143,8180.73391224043053863910254168043682,8179.2,1.53391224043053863910254168043682
144,8295.53531633287668590834232005693360,8294.0,1.53531633287668590834232005693360
145,8411.13671070984896715456488737010480,8409.6,1.53671070984896715456488737010480
146,8527.53809550514697653385727000745614,8526.0,1.53809550514697653385727000745614
147,8644.73947084982848479690387264348007,8643.2,1.53947084982848479690387264348007
148,8762.74083687228392453862061800087284,8761.2,1.54083687228392453862061800087284
149,8881.54219369830836228943647441582286,8880.0,1.54219369830836228943647441582286
150,9001.14354145117106109292092176244406,8999.6,1.54354145117106109292092176244406
151,9121.54488025168272948794056035546656,9120.0,1.54488025168272948794056035546656
152,9242.74621021826054719853625295118663,9241.2,1.54621021826054719853625295118663
153,9364.74753146699105648534745572634139,9363.2,1.54753146699105648534745572634139
154,9487.54884411169100306206362376902073,9486.0,1.54884411169100306206362376902073
155,9611.15014826396620481724523838223652,9609.6,1.55014826396620481724523838223652
156,9735.55144403326852621234286132915982,9734.0,1.55144403326852621234286132915982
157,9860.75273152695102940709705537567584,9859.2,1.55273152695102940709705537567584
158,9986.75401085032137393512698885760480,9985.2,1.55401085032137393512698885760480
159,10113.5552821066935286073657717341292,10112.0,1.5552821066935286073657717341292
160,10241.1565453974378619858416528702029,10239.6,1.5565453974378619858416528702029
161,10369.5578008220296699290103772357452,10368.0,1.5578008220296699290103772357452
162,10498.7590484780961996749685322349213,10497.2,1.5590484780961996749685322349213
163,10628.7602884614622253212090957351314,10627.2,1.5602884614622253212090957351314
164,10759.5615208661942293430293797616738,10758.0,1.5615208661942293430293797616738
165,10891.1627457846432387564674837093847,10889.6,1.5627457846432387564674837093847
166,11023.5639633074863664471694346168140,11022.0,1.5639633074863664471694346168140
167,11156.7651735237671049034817391428997,11155.2,1.5651735237671049034817391428997
168,11290.7663765209344150488202368005690,11289.2,1.5663765209344150488202368005690
169,11425.5675723848806552417085039022647,11424.0,1.5675723848806552417085039022647
170,11561.1687611999783901930852553344475,11559.6,1.5687611999783901930852553344475
171,11697.5699430491161200019960648453687,11696.0,1.5699430491161200019960648453687
172,11834.7711180137329671831744507545021,11833.2,1.5711180137329671831744507545021
173,11972.7722861738523570958726319953076,11971.2,1.5722861738523570958726319953076
174,12111.5734476081147276246911013289978,12110.0,1.5734476081147276246911013289978
175,12251.1746023938093021047695585413465,12249.6,1.5746023938093021047695585413465
176,12391.5757506069049552053354423244998,12390.0,1.5757506069049552053354423244998
177,12532.7768923220802050400048094992652,12531.2,1.5768923220802050400048094992652
178,12674.7780276127523606663113879735999,12673.2,1.5780276127523606663113879735999
179,12817.5791565511058514277185568740787,12816.0,1.5791565511058514277185568740787
180,12961.1802792081197690930621622174299,12959.6,1.5802792081197690930621622174299
181,13105.5813956535946454507968168667905,13104.0,1.5813956535946454507968168667905
182,13250.7825059561784930624764081504136,13249.2,1.5825059561784930624764081504136
183,13396.7836101833921322340463547152525,13395.2,1.5836101833921322340463547152525
184,13543.5847084016538284560537488539305,13542.0,1.5847084016538284560537488539305
185,13691.1858006763032621307515352979581,13689.6,1.5858006763032621307515352979581
186,13839.5868870716248515648473305623736,13838.0,1.5868870716248515648473305623736
187,13988.7879676508704530388322628727701,13987.2,1.5879676508704530388322628727701
188,14138.7890424762814533999371961410645,14137.2,1.5890424762814533999371961410645
189,14289.5901116091102789208612270882688,14288.0,1.5901116091102789208612270882688
190,14441.1911751096413360867254937214482,14439.6,1.5911751096413360867254937214482
191,14593.5922330372114035445175889475483,14592.0,1.5922330372114035445175889475483
192,14746.7932854502294916092924347587068,14745.2,1.5932854502294916092924347587068
193,14900.7943324061961876433986320577246,14899.2,1.5943324061961876433986320577246
194,15055.5953739617225006623048303441020,15054.0,1.5953739617225006623048303441020
195,15211.1964101725482231125644432103404,15209.6,1.5964101725482231125644432103404
196,15367.5974410935598235273908682610345,15366.0,1.5974410935598235273908682610345
197,15524.7984667788078844491523197897643,15523.2,1.5984667788078844491523197897643
198,15682.7994872815240997951745320843872,15681.2,1.5994872815240997951745320843872
199,15841.6005026541378445155593076345057,15840.0,1.6005026541378445155593076345057
200,16001.2015129482923304985226210735739,15999.6,1.6015129482923304985226210735739
201,16161.6025182148603597154444936202192,16160.0,1.6025182148603597154444936202192
202,16322.8035185039596879980549278182642,16321.2,1.6035185039596879980549278182642
203,16484.8045138649680101192327184709466,16483.2,1.6045138649680101192327184709466
204,16647.6055043465375778096221126442955,16646.0,1.6055043465375778096221126442955
205,16811.2064899966094606932407876390029,16809.6,1.6064899966094606932407876390029
206,16975.6074708624274631792112510662629,16974.0,1.6074708624274631792112510662629
207,17140.8084469905517031992511243846195,17139.2,1.6084469905517031992511243846195
208,17306.8094184268718670319358951869829,17305.2,1.6094184268718670319358951869829
209,17473.6103852166201459767956884925973,17472.0,1.6103852166201459767956884925973
210,17641.2113474043838663947180323027182,17639.6,1.6113474043838663947180323027182
211,17809.6123050341178204951604060192689,17808.0,1.6123050341178204951604060192689
212,17978.8132581491563081195215049257533,17977.2,1.6132581491563081195215049257533
213,18148.8142067922248939215223352769678,18147.2,1.6142067922248939215223352769678
214,18319.6151510054518949439589776005337,18318.0,1.6151510054518949439589776005337
215,18491.2160908303795978225259114808435,18489.6,1.6160908303795978225259114808435
216,18663.6170263079752195964186350228851,18662.0,1.6170263079752195964186350228851
217,18836.8179574786416161108366752573787,18835.2,1.6179574786416161108366752573787
218,19010.8188843822277470107768228378656,19009.2,1.6188843822277470107768228378656
219,19185.6198070580389006268924215791822,19184.0,1.6198070580389006268924215791822
220,19361.2207255448466912902861915706649,19359.6,1.6207255448466912902861915706649
221,19537.6216398808988270082480851134381,19536.0,1.6216398808988270082480851134381
222,19714.8225501039286647290057552030863,19713.2,1.6225501039286647290057552030863
223,19892.8234562511645467880604052500209,19891.2,1.6234562511645467880604052500209
224,20071.6243583593389336282126726838415,20070.0,1.6243583593389336282126726838415
225,20251.2252564646973353837501158696535,20249.6,1.6252564646973353837501158696535
226,20431.6261506030070459018082137876644,20430.0,1.6261506030070459018082137876644
227,20612.8270408095656878800328201918061,20611.2,1.6270408095656878800328201918061
228,20794.8279271192095709682651693783987,20793.2,1.6279271192095709682651693783987
229,20977.6288095663218700252176077150893,20976.0,1.6288095663218700252176077150893
230,21161.2296881848406282565352966666998,21159.6,1.6296881848406282565352966666998
231,21345.6305630082665870650692593386374,21344.0,1.6305630082665870650692593386374
232,21530.8314340696708530653007483463054,21529.2,1.6314340696708530653007483463054
233,21716.8323014017023972919303727778981,21715.2,1.6323014017023972919303727778981
234,21903.6331650365954027947947890220801,21902.0,1.6331650365954027947947890220801
235,22091.2340250061764538389343615232887,22089.6,1.6340250061764538389343615232887
236,22279.6348813418715764580174627847326,22278.0,1.6348813418715764580174627847326
237,22468.8357340747131340324301932393467,22467.2,1.6357340747131340324301932393467
238,22658.8365832353465796760809018267721,22657.2,1.6365832353465796760809018267721
