Eigenstate,Energy,Kinetic Energy,Potential Energy
1,0.500000000000716358684371272968220086,0.0,0.500000000000716358684371272968220086
2,1.84623093765579087735173955727344244,1.2,0.64623093765579087735173955727344244
3,3.93633760971871270724193718524380725,3.2,0.73633760971871270724193718524380725
4,6.79966527784285439470936136583094535,6.0,0.79966527784285439470936136583094535
5,10.4480465753352602276509248558784320,9.6,0.8480465753352602276509248558784320
6,14.8870659969469810173142144440326808,14.0,0.8870659969469810173142144440326808
7,20.1197208241144962595000792236107305,19.2,0.9197208241144962595000792236107305
8,26.1477838432138688339446308074421810,25.2,0.9477838432138688339446308074421810
9,32.9723835532508717758536917532320047,32.0,0.9723835532508717758536917532320047
10,40.5942802083737623229065178330286551,39.6,0.9942802083737623229065178330286551
11,49.0140093787233692331497209609799814,48.0,1.0140093787233692331497209609799814
12,58.2319621596041725428385379323285365,57.2,1.0319621596041725428385379323285365
13,68.2484326810818671249990760850192883,67.2,1.0484326810818671249990760850192883
14,79.0636476408395079660074482226178690,78.0,1.0636476408395079660074482226178690
15,90.6777854199916852463496318500678693,89.6,1.0777854199916852463496318500678693
16,103.090988887954963314680442989877858,102.0,1.090988887954963314680442989877858
17,116.303374235909381160851826818834876,115.2,1.103374235909381160851826818834876
18,130.315037227804649376531227445730248,129.2,1.115037227804649376531227445730248
19,145.126057723464126116926625979310272,144.0,1.126057723464126116926625979310272
20,160.736503016218752421175474378641925,159.6,1.136503016218752421175474378641925
21,177.146430338988748611849183172489386,176.0,1.146430338988748611849183172489386
22,194.355888775442353875533954929541252,193.2,1.155888775442353875533954929541252
23,212.364920737932350518031464177215189,211.2,1.164920737932350518031464177215189
24,231.173563124896485828917712872748507,230.0,1.173563124896485828917712872748507
25,250.781848237653398252933594547245239,249.6,1.181848237653398252933594547245239
26,271.189804514210204973853140486600948,270.0,1.189804514210204973853140486600948
27,292.397457122225077622295633904827509,291.2,1.197457122225077622295633904827509
28,314.404828442366282014570135873546754,313.2,1.204828442366282014570135873546754
29,337.211938465514130011405881371279474,336.0,1.211938465514130011405881371279474
30,360.818805121602804018412970249943186,359.6,1.218805121602804018412970249943186
31,385.225444553753076151666188484926565,384.0,1.225444553753076151666188484926565
32,410.431871348269044508255922425823308,409.2,1.231871348269044508255922425823308
33,436.438098728762361178385553723993520,435.2,1.238098728762361178385553723993520
34,463.244138720916880370087988585959066,462.0,1.244138720916880370087988585959066
35,490.850002293067459952431298075064017,489.6,1.250002293067459952431298075064017
36,519.255699476733170844920150840683942,518.0,1.255699476733170844920150840683942
37,548.461239470441084132585939969231302,547.2,1.261239470441084132585939969231302
38,578.466630729546387043356143852678261,577.2,1.266630729546387043356143852678261
39,609.271881044256730274964361567392585,608.0,1.271881044256730274964361567392585
40,640.876997607672888375267324539204192,639.6,1.276997607672888375267324539204192
41,673.281987075341064606234210552422217,672.0,1.281987075341064606234210552422217
42,706.486855617557179120464595383456960,705.2,1.286855617557179120464595383456960
43,740.491608965456992934253134550744095,739.2,1.291608965456992934253134550744095
44,775.296252451757826165778603138760879,774.0,1.296252451757826165778603138760879
45,810.900791046880059438050095230754911,809.6,1.300791046880059438050095230754911
46,847.305229391063471063692782143775361,846.0,1.305229391063471063692782143775361
47,884.509571822999986016359917297939523,883.2,1.309571822999986016359917297939523
48,922.513822405426826329339287615155532,921.2,1.313822405426826329339287615155532
49,961.317984948059390018050576840493463,960.0,1.317984948059390018050576840493463
50,1000.92206302818906290949748535881061,999.6,1.32206302818906290949748535881061
51,1041.32606000922570079928319269141555,1040.0,1.32606000922570079928319269141555
52,1082.52997905742617414251287525426692,1081.2,1.32997905742617414251287525426692
53,1124.53382315701791736637314652806848,1123.2,1.33382315701791736637314652806848
54,1167.33759512389886376073239748899150,1166.0,1.33759512389886376073239748899150
55,1210.94129761807167141060290418904470,1209.6,1.34129761807167141060290418904470
56,1255.34493315495007106418776306823236,1254.0,1.34493315495007106418776306823236
57,1300.54850411565796786512304769642004,1299.2,1.34850411565796786512304769642004
58,1346.55201275642713169123990137034815,1345.2,1.35201275642713169123990137034815
59,1393.35546121718655689490090349993814,1392.0,1.35546121718655689490090349993814
60,1440.95885152942554773226660686027347,1439.6,1.35885152942554773226660686027347
61,1489.36218562340302154134704675876017,1488.0,1.36218562340302154134704675876017
62,1538.56546533476722072358244541297922,1537.2,1.36546533476722072358244541297922
63,1588.56869241064278269467936908976861,1587.2,1.36869241064278269467936908976861
64,1639.37186851523580449050870849911328,1638.0,1.37186851523580449050870849911328
65,1690.97499523500200387390083821628421,1689.6,1.37499523500200387390083821628421
66,1743.37807408341823144912103708133757,1742.0,1.37807408341823144912103708133757
67,1796.58110650539332599948376981022877,1795.2,1.38110650539332599948376981022877
68,1850.58409388135054910275718916605673,1849.2,1.38409388135054910275718916605673
69,1905.38703753101052240828341566730072,1904.0,1.38703753101052240828341566730072
70,1960.98993871690066269147731425590811,1959.6,1.38993871690066269147731425590811
71,2017.39279864761451109763584136214051,2016.0,1.39279864761451109763584136214051
72,2074.59561848084205474461128922186699,2073.2,1.39561848084205474461128922186699
73,2132.59839932619008584749858140447602,2131.2,1.39839932619008584749858140447602
74,2191.40114224780982467993478045676198,2190.0,1.40114224780982467993478045676198
75,2251.00384826684740158550626909292885,2249.6,1.40384826684740158550626909292885
76,2311.40651836373134369600438298213777,2310.0,1.40651836373134369600438298213777
77,2372.60915348030990961485239123071824,2371.2,1.40915348030990961485239123071824
78,2434.61175452184994952584691238618953,2433.2,1.41175452184994952584691238618953
79,2497.41432235890792136736484969175711,2496.0,1.41432235890792136736484969175711
80,2561.01685782908275558654279715113206,2559.6,1.41685782908275558654279715113206
81,2625.41936173865941164645932223452699,2624.0,1.41936173865941164645932223452699
82,2690.62183486415120800879732631056249,2689.2,1.42183486415120800879732631056249
83,2756.62427795374831858067412883083968,2755.2,1.42427795374831858067412883083968
84,2823.42669172867920432261091615224338,2822.0,1.42669172867920432261091615224338
85,2891.02907688449118943843962816522177,2889.6,1.42907688449118943843962816522177
86,2959.43143409225587570255620817789986,2958.0,1.43143409225587570255620817789986
87,3028.63376399970463100912923034939888,3027.2,1.43376399970463100912923034939888
88,3098.63606723229896485013743523650369,3097.2,1.43606723229896485013743523650369
89,3169.43834439424021992694821008855881,3168.0,1.43834439424021992694821008855881
90,3241.04059606942266588341983759144046,3239.6,1.44059606942266588341983759144046
91,3313.44282282233375969645969378811775,3312.0,1.44282282233375969645969378811775
92,3386.64502519890504896243154190608528,3385.2,1.44502519890504896243154190608528
93,3460.64720372731693206274941846685979,3459.2,1.44720372731693206274941846685979
94,3535.44935891876024626325758863262852,3534.0,1.44935891876024626325758863262852
95,3611.05149126815743364796703045529822,3609.6,1.45149126815743364796703045529822
96,3687.45360125484583296560260656307855,3686.0,1.45360125484583296560260656307855
97,3764.65568934322546112530531536882072,3763.2,1.45568934322546112530531536882072
98,3842.65775598337347520353959241436714,3841.2,1.45775598337347520353959241436714
99,3921.45980161162735235206623726390626,3920.0,1.45980161162735235206623726390626
100,4001.06182665113867865642576934601713,3999.6,1.46182665113867865642576934601713
101,4081.46383151239930869022232895585371,4080.0,1.46383151239930869022232895585371
102,4162.66581659374153193577731968323702,4161.2,1.46581659374153193577731968323702
103,4244.66778228181377432810910800954717,4243.2,1.46778228181377432810910800954717
104,4327.46972895203325591448453189368716,4326.0,1.46972895203325591448453189368716
105,4411.07165696901693254803137920289720,4409.6,1.47165696901693254803137920289720
106,4495.47356668699195876965701581631349,4494.0,1.47356668699195876965701581631349
107,4580.67545845018683095056309203677387,4579.2,1.47545845018683095056309203677387
108,4666.67733259320429052809185579547110,4665.2,1.47733259320429052809185579547110
109,4753.47918944137699857410537203381262,4752.0,1.47918944137699857410537203381262
110,4841.08102931110693051497402729078236,4839.6,1.48102931110693051497402729078236
111,4929.48285251018937396105205292333643,4928.0,1.48285251018937396105205292333643
112,5018.68465933812236316988439758163001,5017.2,1.48465933812236316988439758163001
113,5108.68645008640232813159523080234167,5107.2,1.48645008640232813159523080234167
114,5199.48822503880668750715194910602766,5198.0,1.48822503880668750715194910602766
115,5291.08998447166407420169604608008449,5289.6,1.48998447166407420169604608008449
116,5383.49172865411283402348398604254655,5382.0,1.49172865411283402348398604254655
117,5476.69345784834840616597444863058807,5475.2,1.49345784834840616597444863058807
118,5570.69517230986015321949270834568830,5569.2,1.49517230986015321949270834568830
119,5665.49687228765817470518672278842495,5664.0,1.49687228765817470518672278842495
120,5761.09855802449061228175438819789139,5759.6,1.49855802449061228175438819789139
121,5857.50022975705191650817729581777229,5856.0,1.50022975705191650817729581777229
122,5954.70188771618252613256350917227530,5953.2,1.50188771618252613256350917227530
123,6052.70353212706037868426986193521072,6051.2,1.50353212706037868426986193521072
124,6151.50516320938465346666566381458656,6150.0,1.50516320938465346666566381458656
125,6251.10678117755211848163653505529450,6249.6,1.50678117755211848163653505529450
126,6351.50838624082643761962959396370619,6350.0,1.50838624082643761962959396370619
127,6452.70997860350077387115478255036181,6451.2,1.50997860350077387115478255036181
128,6554.71155846505400172846722933176714,6553.2,1.51155846505400172846722933176714
129,6657.51312602030082987291748608763163,6656.0,1.51312602030082987291748608763163
130,6761.11468145953611686158916024029312,6759.6,1.51468145953611686158916024029312
131,6865.51622496867364712272540125755763,6864.0,1.51622496867364712272540125755763
132,6970.71775672937961959224485287840123,6969.2,1.51775672937961959224485287840123
133,7076.71927691920108954206395736221497,7075.2,1.51927691920108954206395736221497
134,7183.52078571168959287498323612437328,7182.0,1.52078571168959287498323612437328
135,7291.12228327652016405255301632706650,7289.6,1.52228327652016405255301632706650
136,7399.52376977960595513480370139698235,7398.0,1.52376977960595513480370139698235
137,7508.72524538320865010278179828404660,7507.2,1.52524538320865010278179828404660
138,7618.72671024604485502284266305890812,7617.2,1.52671024604485502284266305890812
139,7729.52816452338864250574511870611715,7728.0,1.52816452338864250574511870611715
140,7841.12960836717041346762481381164302,7839.6,1.52960836717041346762481381164302
141,7953.53104192607223464243343617632086,7952.0,1.53104192607223464243343617632086
142,8066.73246534561980222216351079606238,8065.2,1.53246534561980222216351079606238
143,8180.73387876827117335100947922312920,8179.2,1.53387876827117335100947922312920
144,8295.53528233350240001997861246499004,8294.0,1.53528233350240001997861246499004
145,8411.13667617789019572070636055284936,8409.6,1.53667617789019572070636055284936
146,8527.53806043519175734847961883764927,8526.0,1.53806043519175734847961883764927
147,8644.73943523642185664150554523707765,8643.2,1.53943523642185664150554523707765
148,8762.74080070992731648543023906807847,8761.2,1.54080070992731648543023906807847
149,8881.54215698145897388403707815130914,8880.0,1.54215698145897388403707815130914
150,9001.14350417424123323697772942304356,8999.6,1.54350417424123323697772942304356
151,9121.54484240903930583876452502982317,9120.0,1.54484240903930583876452502982317
152,9242.74617180422422589816880614153054,9241.2,1.54617180422422589816880614153054
153,9364.74749247583573202769273525265962,9363.2,1.54749247583573202769273525265962
154,9487.54880453764309810233038820974066,9486.0,1.54880453764309810233038820974066
155,9611.15010810120399172358390742319260,9609.6,1.55010810120399172358390742319260
156,9735.55140327592143815507054217763057,9734.0,1.55140327592143815507054217763057
157,9860.75269016909896077629651035292130,9859.2,1.55269016909896077629651035292130
158,9986.75396888599396987267080542369744,9985.2,1.55396888599396987267080542369744
159,10113.5552395298694634345644109290212,10112.0,1.5552395298694634345644109290212
160,10241.1565022020441063029244191302647,10239.6,1.5565022020441063029244191302647
161,10369.5577570019407461575339519291941,10368.0,1.5577570019407461575339519291941
162,10498.7590040271334258089890435377319,10497.2,1.5590040271334258089890435377319
163,10628.7602433733929466476618345668633,10627.2,1.5602433733929466476618345668633
164,10759.5614751347310378862147482393532,10758.0,1.5614751347310378862147482393532
165,10891.1626994034431801958531217184865,10889.6,1.5626994034431801958531217184865
166,11023.5639162701501342518750666161920,11022.0,1.5639162701501342518750666161920
167,11156.7651258238382214208076756351689,11155.2,1.5651258238382214208076756351689
168,11290.7663281518983992780128326772318,11289.2,1.5663281518983992780128326772318
169,11425.5675233401641770178232850177304,11424.0,1.5675233401641770178232850177304
170,11561.1687114729484104992941721543088,11559.6,1.5687114729484104992941721543088
171,11697.5698926330790171220008450792722,11696.0,1.5698926330790171220008450792722
172,11834.7710669019336483985104392948479,11833.2,1.5710669019336483985104392948479
173,11972.7722343594733556258279062972000,11971.2,1.5722343594733556258279062972000
174,12111.5733950842752844993000675196287,12110.0,1.5733950842752844993000675196287
175,12251.1745491535644326538804736044655,12249.6,1.5745491535644326538804736044655
176,12391.5756966432444998390775720958338,12390.0,1.5756966432444998390775720958338
177,12532.7768376279278639880933109143841,12531.2,1.5768376279278639880933109143841
178,12674.7779721809647123355180185114217,12673.2,1.5779721809647123355180185114217
179,12817.5791003744713540284969798588656,12816.0,1.5791003744713540284969798588656
180,12961.1802222793577451777371818684385,12959.6,1.5802222793577451777371818684385
181,13105.5813379653542489969099576293374,13104.0,1.5813379653542489969099576293374
182,13250.7824475010376587258044305275723,13249.2,1.5824475010376587258044305275723
183,13396.7835509538565063864750823108088,13395.2,1.5835509538565063864750823108088
184,13543.5846483901556816138889883079511,13542.0,1.5846483901556816138889883079511
185,13691.1857398752003823691651809243338,13689.6,1.5857398752003823691651809243338
186,13839.5868254731994185039950294241824,13838.0,1.5868254731994185039950294241824
187,13988.7879052473278919767098265100734,13987.2,1.5879052473278919767098265100734
188,14138.7889792597492691562792230012528,14137.2,1.5889792597492691562792230012528
189,14289.5900475716368689452969832015360,14288.0,1.5900475716368689452969832015360
190,14441.1911102431947823729974801190347,14439.6,1.5911102431947823729974801190347
191,14593.5921673336782428808201792795672,14592.0,1.5921673336782428808201792795672
192,14746.7932189014134636826896919973040,14745.2,1.5932189014134636826896919973040
193,14900.7942650038169605038235108842009,14899.2,1.5942650038169605038235108842009
194,15055.5953056974143730388133772886257,15054.0,1.5953056974143730388133772886257
195,15211.1963410378588030613020191075197,15209.6,1.5963410378588030613020191075197
196,15367.5973710799486828771173821126146,15366.0,1.5973710799486828771173821126146
197,15524.7983958776451884961471715264197,15523.2,1.5983958776451884961471715264197
198,15682.7994154840892116848944407635385,15681.2,1.5994154840892116848944407635385
199,15841.6004299516179037335290786654940,15840.0,1.6004299516179037335290786654940
200,16001.2014393317808048775958781108391,15999.6,1.6014393317808048775958781108391
201,16161.6024436753555703507574564178502,16160.0,1.6024436753555703507574564178502
202,16322.8034430323633064446826655374618,16321.2,1.6034430323633064446826655374618
203,16484.8044374520835272307623223718093,16483.2,1.6044374520835272307623223718093
204,16647.6054269830687435585129604507382,16646.0,1.6054269830687435585129604507382
205,16811.2064116731586942959804266734519,16809.6,1.6064116731586942959804266734519
206,16975.6073915694942328308394000132693,16974.0,1.6073915694942328308394000132693
207,17140.8083667185308747028140284404371,17139.2,1.6083667185308747028140284404371
208,17306.8093371660520205888236735507317,17305.2,1.6093371660520205888236735507317
209,17473.6103029571818603836808496761144,17472.0,1.6103029571818603836808496761144
210,17641.2112641363979698719398288164493,17639.6,1.6112641363979698719398288164493
211,17809.6122207475436073498518003632590,17808.0,1.6122207475436073498518003632590
212,17978.8131728338397204245481816543052,17977.2,1.6131728338397204245481816543052
213,18148.8141204378966673683392183909622,18147.2,1.6141204378966673683392183909622
214,18319.6150636017256680038111888338396,18318.0,1.6150636017256680038111888338396
215,18491.2160023667499833259460274932239,18489.6,1.6160023667499833259460274932239
216,18663.6169367738158378157134205656937,18662.0,1.6169367738158378157134205656937
217,18836.8178668632030884041702078462176,18835.2,1.6178668632030884041702078462176
218,19010.8187926746356490595094040191927,19009.2,1.6187926746356490595094040191927
219,19185.6197142472916742699869532814096,19184.0,1.6197142472916742699869532814096
220,19361.2206316198135139308464214090737,19359.6,1.6206316198135139308464214090737
221,19537.6215448303174375375233970771130,19536.0,1.6215448303174375375233970771130
222,19714.8224539164031448824870808521514,19713.2,1.6224539164031448824870808521514
223,19892.8233589151630568165421796533455,19891.2,1.6233589151630568165421796533455
224,20071.6242598631914011338810255961168,20070.0,1.6242598631914011338810255961168
225,20251.2251567965930961374199869356377,20249.6,1.6251567965930961374199869356377
226,20431.6260497509924354223527707477143,20430.0,1.6260497509924354223527707477143
227,20612.8269387615415825207584016444467,20611.2,1.6269387615415825207584016444467
228,20794.8278238629288772174546209559718,20793.2,1.6278238629288772174546209559718
229,20977.6287050893869606892314455011053,20976.0,1.6287050893869606892314455011053
230,21161.2295824747007241536925037208885,21159.6,1.6295824747007241536925037208885
231,21345.6304560522150828169579941397924,21344.0,1.6304560522150828169579941397924
232,21530.8313258548425855291330693082419,21529.2,1.6313258548425855291330693082419
233,21716.8321919150708551330292105897818,21715.2,1.6321919150708551330292105897818
234,21903.6330542649698756521872616485847,21902.0,1.6330542649698756521872616485847
235,22091.2339129361991194892849386353590,22089.6,1.6339129361991194892849386353590
236,22279.6347679600145243336795936228352,22278.0,1.6347679600145243336795936228352
237,22468.8356193672753233981952932908174,22467.2,1.6356193672753233981952932908174
238,22658.8364671884507307161474454124331,22657.2,1.6364671884507307161474454124331
