Eigenstate,Energy,Kinetic Energy,Potential Energy
1,0.500000000064181683973499865993774870,0.0,0.500000000064181683973499865993774870
2,1.84623093807005966036791343817988078,1.2,0.64623093807005966036791343817988078
3,3.93633761093559480463279345405180264,3.2,0.73633761093559480463279345405180264
4,6.79966528037748363671899374135194428,6.0,0.79966528037748363671899374135194428
5,10.4480465797257628935924339223688519,9.6,0.8480465797257628935924339223688519
6,14.8870660037409051231289819442345399,14.0,0.8870660037409051231289819442345399
7,20.1197208338638111245066515751620021,19.2,0.9197208338638111245066515751620021
8,26.1477838564728794537255071351919562,25.2,0.9477838564728794537255071351919562
9,32.9723835705752487836941513952092868,32.0,0.9723835705752487836941513952092868
10,40.5942802303200494500200546406488075,39.6,0.9942802303200494500200546406488075
11,49.0140094058487155539914054418088228,48.0,1.0140094058487155539914054418088228
12,58.2319621924661792679742822879884717,57.2,1.0319621924661792679742822879884717
13,68.2484327202384967545996859093893222,67.2,1.0484327202384967545996859093893222
14,79.0636476868490293325078673633107134,78.0,1.0636476868490293325078673633107134
15,90.6777854734126402089167201993722524,89.6,1.0777854734126402089167201993722524
16,103.090988949346147054868685593687686,102.0,1.090988949346147054868685593687686
17,116.303374305829831326283181348427732,115.2,1.103374305829831326283181348427732
18,130.315037306813641158939964416939531,129.2,1.115037306813641158939964416939531
19,145.126057812121171418816273671664117,144.0,1.126057812121171418816273671664117
20,160.736503115083601907437403223565765,159.6,1.136503115083601907437403223565765
21,177.146430448621395840964163865225976,176.0,1.146430448621395840964163865225976
22,194.355888896403040958955025905810387,193.2,1.155888896403040958955025905810387
23,212.364920870781574922382740223973758,211.2,1.164920870781574922382740223973758
24,231.173563270195008046647379328567962,230.0,1.173563270195008046647379328567962
25,250.781848395962250142790846457294445,249.6,1.181848395962250142790846457294445
26,271.189804686090698625187159426374567,270.0,1.189804686090698625187159426374567
27,292.397457308238814634368447700770943,291.2,1.197457308238814634368447700770943
28,314.404828643075163108769137927952897,313.2,1.204828643075163108769137927952897
29,337.211938681480364913673324818646418,336.0,1.211938681480364913673324818646418
30,360.818805353388921563540624541185055,359.6,1.218805353388921563540624541185055
31,385.225444801921934571800974839027954,384.0,1.225444801921934571800974839027954
32,410.431871613383841876037661785823751,409.2,1.231871613383841876037661785823751
33,436.438099011386645981297707210076805,435.2,1.238099011386645981297707210076805
34,463.244139021614562197346556031227405,462.0,1.244139021614562197346556031227405
35,490.850002612402820279424509698015239,489.6,1.250002612402820279424509698015239
36,519.255699815270873903101935069947937,518.0,1.255699815270873903101935069947937
37,548.461239828746187855010037088111977,547.2,1.261239828746187855010037088111977
38,578.466631108184354077855729747644190,577.2,1.266631108184354077855729747644190
39,609.271881443793439058439586226137449,608.0,1.271881443793439058439586226137449
40,640.876998028674644263719558513466522,639.6,1.276998028674644263719558513466522
41,673.281987518374611056141086406302040,672.0,1.281987518374611056141086406302040
42,706.486856083189708917870555840058204,705.2,1.286856083189708917870555840058204
43,740.491609454256159468591626282448748,739.2,1.291609454256159468591626282448748
44,775.296252964291754745971865538243012,774.0,1.296252964291754745971865538243012
45,810.900791583717358648872538365403796,809.6,1.300791583717358648872538365403796
46,847.305229952773244160751204711705867,846.0,1.305229952773244160751204711705867
47,884.509572410151842358351629745047067,883.2,1.309572410151842358351629745047067
48,922.513823018590892846508621312166151,921.2,1.313823018590892846508621312166151
49,961.317985587806322715983610477689275,960.0,1.317985587806322715983610477689275
50,1000.92206369509005840758117759391708,999.6,1.32206369509005840758117759391708
51,1041.32606070385250790331421019680453,1040.0,1.32606070385250790331421019680453
52,1082.52997978035110545107752398906026,1081.2,1.32997978035110545107752398906026
53,1124.53382390881386091073688447162532,1123.2,1.33382390881386091073688447162532
54,1167.33759590513929467807850688779791,1166.0,1.33759590513929467807850688779791
55,1210.94129842933066365054743226919973,1209.6,1.34129842933066365054743226919973
56,1255.34493399680230912857398307900211,1254.0,1.34493399680230912857398307900211
57,1300.54850498867875858116498526866267,1299.2,1.34850498867875858116498526866267
58,1346.55201366119241601814293724904999,1345.2,1.35201366119241601814293724904999
59,1393.35546215427292176413824975250072,1392.0,1.35546215427292176413824975250072
60,1440.95885249941023792173582361931426,1439.6,1.35885249941023792173582361931426
61,1489.36218662686395158367051774619578,1488.0,1.36218662686395158367051774619578
62,1538.56546637228298684885142236062699,1537.2,1.36546637228298684885142236062699
63,1588.56869348279267480797266195468731,1587.2,1.36869348279267480797266195468731
64,1639.37186962259981818454540422977850,1638.0,1.37186962259981818454540422977850
65,1690.97499637816085247721208304474852,1689.6,1.37499637816085247721208304474852
66,1743.37807526295335811014865389257752,1742.0,1.37807526295335811014865389257752
67,1796.58110772188691580703435106598233,1795.2,1.38110772188691580703435106598233
68,1850.58409513538554124325914075770949,1849.2,1.38409513538554124325914075770949
69,1905.38703882317062236031182914291743,1904.0,1.38703882317062236031182914291743
70,1960.98994004777035445802696254163448,1959.6,1.38994004777035445802696254163448
71,2017.39280001777906947663759825569305,2016.0,1.39280001777906947663759825569305
72,2074.59561989088755763820016881154913,2073.2,1.39561989088755763820016881154913
73,2132.59840077670342661055448225397330,2131.2,1.39840077670342661055448225397330
74,2191.40114373937872450842827888113094,2190.0,1.40114373937872450842827888113094
75,2251.00384980006042194519288680031651,2249.6,1.40384980006042194519288680031651
76,2311.40651993917789879202065558140436,2310.0,1.40651993917789879202065558140436
77,2372.60915509858027890277686312900443,2371.2,1.40915509858027890277686312900443
78,2434.61175618353529026479820901998580,2433.2,1.41175618353529026479820901998580
79,2497.41432406460028121571761949196044,2496.0,1.41432406460028121571761949196044
80,2561.01685957937508524085040477134896,2559.6,1.41685957937508524085040477134896
81,2625.41936353414557752418028424690317,2624.0,1.41936353414557752418028424690317
82,2690.62183670542600497542994321970546,2689.2,1.42183670542600497542994321970546
83,2756.62427984140748272191103780752770,2755.2,1.42427984140748272191103780752770
84,2823.42669366331942576213245045468140,2822.0,1.42669366331942576213245045468140
85,2891.02907886671012520197178057722479,2889.6,1.42907886671012520197178057722479
86,2959.43143612265216262882549700518483,2958.0,1.43143612265216262882549700518483
87,3028.63376607887789870835359298884886,3027.2,1.43376607887789870835359298884886
88,3098.63606936084984871069852437999325,3097.2,1.43606936084984871069852437999325
89,3169.43834657277037417089675138597634,3168.0,1.43834657277037417089675138597634
90,3241.04059829853477667147199112265015,3239.6,1.44059829853477667147199112265015
91,3313.44282510263155828314852394322645,3312.0,1.44282510263155828314852394322645
92,3386.64502753099332490208364105813575,3385.2,1.44502753099332490208364105813575
93,3460.64720611180154646696286738368493,3459.2,1.44720611180154646696286738368493
94,3535.44936135624814511056333811049314,3534.0,1.44936135624814511056333811049314
95,3611.05149375925666114636179502358910,3609.6,1.45149375925666114636179502358910
96,3687.45360380016554496864714101286793,3686.0,1.45360380016554496864714101286793
97,3764.65569194337593860248812035749623,3763.2,1.45569194337593860248812035749623
98,3842.65775863896613776561163523018270,3841.2,1.45775863896613776561163523018270
99,3921.45980432327477183205859163800007,3920.0,1.45980432327477183205859163800007
100,4001.06182941945459274706760782849208,3999.6,1.46182941945459274706760782849208
101,4081.46383433799863463848298005856290,4080.0,1.46383433799863463848298005856290
102,4162.66581947724038029526178837220613,4161.2,1.46581947724038029526178837220613
103,4244.66778522382946277004242059257385,4243.2,1.46778522382946277004242059257385
104,4327.46973195318432309802674475479735,4326.0,1.46973195318432309802674475479735
105,4411.07166002992315205067051120371369,4409.6,1.47166002992315205067051120371369
106,4495.47356980827435307843365897601864,4494.0,1.47356980827435307843365897601864
107,4580.67546163246768551488641650153117,4579.2,1.47546163246768551488641650153117
108,4666.67733583710716787491299961073422,4665.2,1.47733583710716787491299961073422
109,4753.47919274752675248622035586308183,4752.0,1.47919274752675248622035586308183
110,4841.08103268012972027323475988411194,4839.6,1.48103268012972027323475988411194
111,4929.48285594271267865127008037115504,4928.0,1.48285594271267865127008037115504
112,5018.68466283477499605521875642791121,5017.2,1.48466283477499605521875642791121
113,5108.68645364781445109122199248904795,5107.2,1.48645364781445109122199248904795
114,5199.48822866560982554201973415095176,5198.0,1.48822866560982554201973415095176
115,5291.08998816449113000817824193363748,5289.6,1.48998816449113000817824193363748
116,5383.49173241359810263574520255056235,5382.0,1.49173241359810263574520255056235
117,5476.69346167512758966787546855355861,5475.2,1.49346167512758966787546855355861
118,5570.69517620457037552686488424445611,5569.2,1.49517620457037552686488424445611
119,5665.49687625093799641931375435117671,5664.0,1.49687625093799641931375435117671
120,5761.09856205698004561490650020528746,5759.6,1.49856205698004561490650020528746
121,5857.50023385939244028204968008349517,5856.0,1.50023385939244028204968008349517
122,5954.70189188901710085047816571894224,5953.2,1.50189188901710085047816571894224
123,6052.70353637103346167800715223523663,6051.2,1.50353637103346167800715223523663
124,6151.50516752514221411879914423173762,6150.0,1.50516752514221411879914423173762
125,6251.10678556574165352425219991458184,6249.6,1.50678556574165352425219991458184
126,6351.50839070209698651031796708712410,6350.0,1.50839070209698651031796708712410
127,6452.70998313850293424717192133105230,6451.2,1.50998313850293424717192133105230
128,6554.71156307443994493996849283841659,6553.2,1.51156307443994493996849283841659
129,6657.51313070472431659617553452265954,6656.0,1.51313070472431659617553452265954
130,6761.11468621965251279311557461022741,6759.6,1.51468621965251279311557461022741
131,6865.51622980513993875522317219017693,6864.0,1.51622980513993875522317219017693
132,6970.71776164285443007332755184072908,6969.2,1.51776164285443007332755184072908
133,7076.71928191034469461668458537005068,7075.2,1.51928191034469461668458537005068
134,7183.52079078116393691252501380693089,7182.0,1.52079078116393691252501380693089
135,7291.12228842498887615954234502489496,7289.6,1.52228842498887615954234502489496
136,7399.52377500773436535421373890354183,7398.0,1.52377500773436535421373890354183
137,7508.72525069166380570090417619956925,7507.2,1.52525069166380570090417619956925
138,7618.72671563549553686471320489090653,7617.2,1.52671563549553686471320489090653
139,7729.52816999450538152011848766114941,7728.0,1.52816999450538152011848766114941
140,7841.12961392062550720250180655503479,7839.6,1.52961392062550720250180655503479
141,7953.53104756253976391215352163024036,7952.0,1.53104756253976391215352163024036
142,8066.73247106577564784708480069390411,8065.2,1.53247106577564784708480069390411
143,8180.73388457279303299080711473426712,8179.2,1.53388457279303299080711473426712
144,8295.53528822306980510160244908899955,8294.0,1.53528822306980510160244908899955
145,8411.13668215318452846204773947565279,8409.6,1.53668215318452846204773947565279
146,8527.53806649689626787880722236876666,8526.0,1.53806649689626787880722236876666
147,8644.73944138522168021973988847204895,8643.2,1.53944138522168021973988847204895
148,8762.74080694650949081733601591416778,8761.2,1.54080694650949081733601591416778
149,8881.54216330651245653942314869304912,8880.0,1.54216330651245653942314869304912
150,9001.14351058845691916800388014862385,8999.6,1.54351058845691916800388014862385
151,9121.54484891311004500046546159665710,9120.0,1.54484891311004500046546159665710
152,9242.74617839884484097231527571522126,9241.2,1.54617839884484097231527571522126
153,9364.74749916170303625112093708915186,9363.2,1.54749916170303625112093708915186
154,9487.54881131545591320088095168503165,9486.0,1.54881131545591320088095168503165
155,9611.15011497166316595280301578584994,9609.6,1.55011497166316595280301578584994
156,9735.55141023972986444883680133973179,9734.0,1.55141023972986444883680133973179
157,9860.75269722696159500454765886126827,9859.2,1.55269722696159500454765886126827
158,9986.75397603861784920941641677220236,9985.2,1.55397603861784920941641677220236
159,10113.5552467779637248373815182969442,10112.0,1.5552467779637248373815182969442
160,10241.1565095463200051051449976874501,10239.6,1.5565095463200051051449976874501
161,10369.5577644431116747743447002387804,10368.0,1.5577644431116747743447002387804
162,10498.7590115659149325586759059555201,10497.2,1.5590115659149325586759059555201
163,10628.7602510105027546892433920708474,10627.2,1.5602510105027546892433920708474
164,10759.5614828708890642747212641233551,10758.0,1.5614828708890642747212641233551
165,10891.1627072393715550565203821155720,10889.6,1.5627072393715550565203821155720
166,11023.5639242065732200745339722129125,11022.0,1.5639242065732200745339722129125
167,11156.7651338614826324757639492112583,11155.2,1.5651338614826324757639492112583
168,11290.7663362914930211547239449581395,11289.2,1.5663362914930211547239449581395
169,11425.5675315824401862876921954346722,11424.0,1.5675315824401862876921954346722
170,11561.1687198186392945039135042934154,11559.6,1.5687198186392945039135042934154
171,11697.5699010829205938881936036166412,11696.0,1.5699010829205938881936036166412
172,11834.7710754566640866815276291375266,11833.2,1.5710754566640866815276291375266
173,11972.7722430198331950820765943441459,11971.2,1.5722430198331950820765943441459
174,12111.5734038510074559899896300024632,12110.0,1.5734038510074559899896300024632
175,12251.1745580274142786809888531218477,12249.6,1.5745580274142786809888531218477
176,12391.5757056249597951150535227941738,12390.0,1.5757056249597951150535227941738
177,12532.7768467182588361407250584870564,12531.2,1.5768467182588361407250584870564
178,12674.7779813806640627494134738229038,12673.2,1.5779813806640627494134738229038
179,12817.5791096842942788246355154621938,12816.0,1.5791096842942788246355154621938
180,12961.1802317000619563325680023998401,12959.6,1.5802317000619563325680023998401
181,13105.5813474976999956024872240304283,13104.0,1.5813474976999956024872240304283
182,13250.7824571457877483924648872461472,13249.2,1.5824571457877483924648872461472
183,13396.7835607117763267895795915639862,13395.2,1.5835607117763267895795915639862
184,13543.5846582620132221861650137266074,13542.0,1.5846582620132221861650137266074
185,13691.1857498617662561402039277308552,13689.6,1.5857498617662561402039277308552
186,13839.5868355752468840884721947313004,13838.0,1.5868355752468840884721947313004
187,13988.7879154656328757129165078097012,13987.2,1.5879154656328757129165078097012
188,14138.7889895950903873965655774146742,14137.2,1.5889895950903873965655774146742
189,14289.5900580247954505000484462415078,14288.0,1.5900580247954505000484462415078
190,14441.1911208149548911097805021320594,14439.6,1.5911208149548911097805021320594
191,14593.5921780248267004803516908774265,14592.0,1.5921780248267004803516908774265
192,14746.7932297127398725533024980717179,14745.2,1.5932297127398725533024980717179
193,14900.7942759361137268561171990022993,14899.2,1.5942759361137268561171990022993
194,15055.5953167514767301221988499276689,15054.0,1.5953167514767301221988499276689
195,15211.1963522144848345641660957011238,15209.6,1.5963522144848345641660957011238
196,15367.5973823799393464923521335029211,15366.0,1.5973823799393464923521335029211
197,15524.7984073018043396538081691217698,15523.2,1.5984073018043396538081691217698
198,15682.7994270332236274537703359966070,15681.2,1.5994270332236274537703359966070
199,15841.6004416265373068934255411678155,15840.0,1.6004416265373068934255411678155
200,16001.2014511332978881641549898879299,15999.6,1.6014511332978881641549898879299
201,16161.6024556042860208746548997522933,16160.0,1.6024556042860208746548997522933
202,16322.8034550895258302870648209068827,16321.2,1.6034550895258302870648209068827
203,16484.8044496382998742168053642240126,16483.2,1.6044496382998742168053642240126
204,16647.6054392991637322110075522021463,16646.0,1.6054392991637322110075522021463
205,16811.2064241199602369708656507561706,16809.6,1.6064241199602369708656507561706
206,16975.6074041478333610366318896407837,16974.0,1.6074041478333610366318896407837
207,17140.8083794292417646058993255889755,17139.2,1.6083794292417646058993255889755
208,17306.8093500099720187065984526999727,17305.2,1.6093500099720187065984526999727
209,17473.6103159351515094675575491773772,17472.0,1.6103159351515094675575491773772
210,17641.2112772492610349822470052298407,17639.6,1.6112772492610349822470052298407
211,17809.6122339961471021246866229339713,17808.0,1.6122339961471021246866229339713
212,17978.8131862190339335446606680063943,17977.2,1.6131862190339335446606680063943
213,18148.8141339605351892201511696097962,18147.2,1.6141339605351892201511696097962
214,18319.6150772626654175426962994598099,18318.0,1.6150772626654175426962994598099
215,18491.2160161668512351419219739541203,18489.6,1.6160161668512351419219739541203
216,18663.6169507139422494037212810850419,18662.0,1.6169507139422494037212810850419
217,18836.8178809442217276411408342899774,18835.2,1.6178809442217276411408342899774
218,19010.8188068974170218904414133448773,19009.2,1.6188068974170218904414133448773
219,19185.6197286127097526052876092068468,19184.0,1.6197286127097526052876092068468
220,19361.2206461287457637572106373064711,19359.6,1.6206461287457637572106373064711
221,19537.6215594836448472446534363731599,19536.0,1.6215594836448472446534363731599
222,19714.8224687150102538079821354563215,19713.2,1.6224687150102538079821354563215
223,19892.8233738599379840113127335993755,19891.2,1.6233738599379840113127335993755
224,20071.6242749550258743504716214948167,20070.0,1.6242749550258743504716214948167
225,20251.2251720363824810436503017252432,20249.6,1.6251720363824810436503017252432
226,20431.6260651396357650427162149183134,20430.0,1.6260651396357650427162149183134
227,20612.8269542999415869080441861057733,20611.2,1.6269542999415869080441861057733
228,20794.8278395519920133570900975149681,20793.2,1.6278395519920133570900975149681
229,20977.6287209300234426388688986294326,20976.0,1.6287209300234426388688986294326
230,21161.2295984678245534205950748643981,21159.6,1.6295984678245534205950748643981
231,21345.6304721987440789757695134499008,21344.0,1.6304721987440789757695134499008
232,21530.8313421556984170826465786963031,21529.2,1.6313421556984170826465786963031
233,21716.8322083711790706185999942573000,21715.2,1.6322083711790706185999942573000
234,21903.6330708772599349964680620914564,21902.0,1.6330708772599349964680620914564
235,22091.2339297056044256139917609786634,22089.6,1.6339297056044256139917609786634
236,22279.6347848874724550151294841614257,22278.0,1.6347848874724550151294841614257
237,22468.8356364537272633833900358291254,22467.2,1.6356364537272633833900358291254
238,22658.8364844348421040982100429838227,22657.2,1.6364844348421040982100429838227
