Eigenstate,Energy,Kinetic Energy,Potential Energy
1,0.500000000024851004582589074582201669,0.0,0.500000000024851004582589074582201669
2,1.84623093781332894661675561232302747,1.2,0.64623093781332894661675561232302747
3,3.93633761018146660684135935079025291,3.2,0.73633761018146660684135935079025291
4,6.79966527880671374219671371654526495,6.0,0.79966527880671374219671371654526495
5,10.4480465770048526189651925270905785,9.6,0.8480465770048526189651925270905785
6,14.8870659995305094140272279253072138,14.0,0.8870659995305094140272279253072138
7,20.1197208278218354871452919935678639,19.2,0.9197208278218354871452919935678639
8,26.1477838482557705234780220788997487,25.2,0.9477838482557705234780220788997487
9,32.9723835598385935403879871045376264,32.0,0.9723835598385935403879871045376264
10,40.5942802167188785164957381001397361,39.6,0.9942802167188785164957381001397361
11,49.0140093890376671894770085010959407,48.0,1.0140093890376671894770085010959407
12,58.2319621720995923725665372822333188,57.2,1.0319621720995923725665372822333188
13,68.2484326959704652260376365011465604,67.2,1.0484326959704652260376365011465604
14,79.0636476583334341800300948546083668,78.0,1.0636476583334341800300948546083668
15,90.6777854403031682472685849913087970,89.6,1.0777854403031682472685849913087970
16,103.090988911296301167475730044687067,102.0,1.090988911296301167475730044687067
17,116.303374262492935243101675481572648,115.2,1.103374262492935243101675481572648
18,130.315037257842840554513576341329645,129.2,1.115037257842840554513576341329645
19,145.126057757169432474261688265169655,144.0,1.126057757169432474261688265169655
20,160.736503053803708082155397588053680,159.6,1.136503053803708082155397588053680
21,177.146430380665943353053579093014208,176.0,1.146430380665943353053579093014208
22,194.355888821424433315910768279021607,193.2,1.155888821424433315910768279021607
23,212.364920788432016740761551560319415,211.2,1.164920788432016740761551560319415
24,231.173563180126498330592797349389594,230.0,1.173563180126498330592797349389594
25,250.781848297826575144375446599747230,249.6,1.181848297826575144375446599747230
26,271.189804579539424376914466777579514,270.0,1.189804579539424376914466777579514
27,292.397457192923279221126423089579469,291.2,1.197457192923279221126423089579469
28,314.404828518646468729983664221692548,313.2,1.204828518646468729983664221692548
29,337.211938547589369774367355187728688,336.0,1.211938547589369774367355187728688
30,360.818805209686231624122906682082993,359.6,1.218805209686231624122906682082993
31,385.225444648057895179778139016370897,384.0,1.225444648057895179778139016370897
32,410.431871449008529297838457839643640,409.2,1.231871449008529297838457839643640
33,436.438098836149858848580290251992369,435.2,1.238098836149858848580290251992369
34,463.244138835165812879219052268408486,462.0,1.244138835165812879219052268408486
35,490.850002414391326189723339931581655,489.6,1.250002414391326189723339931581655
36,519.255699605345548750080622229074529,518.0,1.255699605345548750080622229074529
37,548.461239606555632839375307169812819,547.2,1.261239606555632839375307169812819
38,578.466630873376849043960511713627684,577.2,1.266630873376849043960511713627684
39,609.271881196016933602538691108920412,608.0,1.271881196016933602538691108920412
40,640.876997767576748802464218281510127,639.6,1.276997767576748802464218281510127
41,673.281987243602587857895942363166051,672.0,1.281987243602587857895942363166051
42,706.486855794390463098952332574793684,705.2,1.286855794390463098952332574793684
43,740.491609151076229956130622204418800,739.2,1.291609151076229956130622204418800
44,775.296252646377305208768451790267950,774.0,1.296252646377305208768451790267950
45,810.900791250714168397347530003515054,809.6,1.300791250714168397347530003515054
46,847.305229604326699016860738832485655,846.0,1.305229604326699016860738832485655
47,884.509572045906925496145779661668341,883.2,1.309572045906925496145779661668341
48,922.513822638192175603851552170316758,921.2,1.313822638192175603851552170316758
49,961.317985190897955377816468286303600,960.0,1.317985190897955377816468286303600
50,1000.92206328131576096099272959324578,999.6,1.32206328131576096099272959324578
51,1041.32606027285556076458494980867582,1040.0,1.32606027285556076458494980867582
52,1082.52997933177434016477788020772712,1081.2,1.32997933177434016477788020772712
53,1124.53382344229965082088688932039455,1123.2,1.33382344229965082088688932039455
54,1167.33759542032954557131288435548594,1166.0,1.33759542032954557131288435548594
55,1210.94129792586680437117504207326034,1209.6,1.34129792586680437117504207326034
56,1255.34493347432528216537259962223497,1254.0,1.34493347432528216537259962223497
57,1300.54850444682901062571050936119286,1299.2,1.34850444682901062571050936119286
58,1346.55201309960988849443508417618586,1345.2,1.35201309960988849443508417618586
59,1393.35546157259704132925247429615721,1392.0,1.35546157259704132925247429615721
60,1440.95885189727990693720224892233992,1439.6,1.35885189727990693720224892233992
61,1489.36218600391753855725517565719910,1488.0,1.36218600391753855725517565719910
62,1538.56546572815831684639207178755326,1537.2,1.36546572815831684639207178755326
63,1588.56869281712701983490108677084491,1587.2,1.36869281712701983490108677084491
64,1639.37186893502988753670962029321687,1638.0,1.37186893502988753670962029321687
65,1690.97499566832278306059505854207780,1689.6,1.37499566832278306059505854207780
66,1743.37807453048270472906510513345047,1742.0,1.37807453048270472906510513345047
67,1796.58110696641864142037327320943875,1795.2,1.38110696641864142037327320943875
68,1850.58409435655400718832707357593647,1849.2,1.38409435655400718832707357593647
69,1905.38703802060957854382008059725356,1904.0,1.38703802060957854382008059725356
70,1960.98993922111292951375541756223534,1959.6,1.38993922111292951375541756223534
71,2017.39279916665776088929741055164352,2016.0,1.39279916665776088929741055164352
72,2074.59561901493422183300858495156757,2073.2,1.39561901493422183300858495156757
73,2132.59839987554926900802596088882374,2131.2,1.39839987554926900802596088882374
74,2191.40114281265428954387801831491558,2190.0,1.40114281265428954387801831491558
75,2251.00384884739558305244086585255573,2249.6,1.40384884739558305244086585255573
76,2311.40651896020184835077704024005467,2310.0,1.40651896020184835077704024005467
77,2372.60915409292151814918238679171055,2371.2,1.40915409292151814918238679171055
78,2434.61175515082161916458635701702264,2433.2,1.41175515082161916458635701702264
79,2497.41432300445878829945892433974274,2496.0,1.41432300445878829945892433974274
80,2561.01685849143213740073289935725577,2559.6,1.41685849143213740073289935725577
81,2625.41936241802680977177391518848999,2624.0,1.41936241802680977177391518848999
82,2690.62183556075631015987685126175198,2689.2,1.42183556075631015987685126175198
83,2756.62427866781100120797783813041374,2755.2,1.42427866781100120797783813041374
84,2823.42669246041953506755489838238218,2822.0,1.42669246041953506755489838238218
85,2891.02907763412942959351659845108794,2889.6,1.42907763412942959351659845108794
86,2959.43143486001248267648878710522082,2958.0,1.43143486001248267648878710522082
87,3028.63376478580026079710964382557383,3027.2,1.43376478580026079710964382557383
88,3098.63606803695447450920756037770249,3097.2,1.43606803695447450920756037770249
89,3169.43834521767667005657489286944962,3168.0,1.43834521767667005657489286944962
90,3241.04059691186132311132133690285185,3239.6,1.44059691186132311132133690285185
91,3313.44282368399609916974001821635383,3312.0,1.44282368399609916974001821635383
92,3386.64502608001275684408021401968963,3385.2,1.44502608001275684408021401968963
93,3460.64720462809190803356504028566620,3459.2,1.44720462809190803356504028566620
94,3535.44935983942460602925430291394676,3534.0,1.44935983942460602925430291394676
95,3611.05149220893351145332371915230949,3609.6,1.45149220893351145332371915230949
96,3687.45360221595618411121526408204834,3686.0,1.45360221595618411121526408204834
97,3764.65569032489286449300382573837322,3763.2,1.45569032489286449300382573837322
98,3842.65775698582093578603059845524079,3841.2,1.45775698582093578603059845524079
99,3921.45980263507810378866456268857849,3920.0,1.45980263507810378866456268857849
100,4001.06182769581618577463729143762713,3999.6,1.46182769581618577463729143762713
101,4081.46383257852727005324186020733478,4080.0,1.46383257852727005324186020733478
102,4162.66581768154388239596556159941270,4161.2,1.46581768154388239596556159941270
103,4244.66778339151468758651321209377706,4243.2,1.46778339151468758651321209377706
104,4327.46973008385714708646749687738739,4326.0,1.46973008385714708646749687738739
105,4411.07165812318846073507579590613430,4409.6,1.47165812318846073507579590613430
106,4495.47356786373602963740930782753314,4494.0,1.47356786373602963740930782753314
107,4580.67545964972859931318484576028952,4579.2,1.47545964972859931318484576028952
108,4666.67733381576916293898525642845347,4665.2,1.47733381576916293898525642845347
109,4753.47919068719063592308032763343415,4752.0,1.47919068719063592308032763343415
110,4841.08103058039525063192491330351448,4839.6,1.48103058039525063192491330351448
111,4929.48285380317855422621251765148592,4928.0,1.48285380317855422621251765148592
112,5018.68466065503884313072912534960982,5017.2,1.48466065503884313072912534960982
113,5108.68645142747281212645793706233349,5107.2,1.48645142747281212645793706233349
114,5199.48822640425814729562938321096406,5198.0,1.48822640425814729562938321096406
115,5291.08998586172375160190818196621687,5289.6,1.48998586172375160190818196621687
116,5383.49173006900824355626100717114344,5382.0,1.49173006900824355626100717114344
117,5476.69345928830733770604154165381881,5475.2,1.49345928830733770604154165381881
118,5570.69517377511067465372417378950623,5569.2,1.49517377511067465372417378950623
119,5665.49687377842863459800122332082004,5664.0,1.49687377842863459800122332082004
120,5761.09855954100964254772368425253144,5759.6,1.49855954100964254772368425253144
121,5857.50023129954843509192117664651469,5856.0,1.50023129954843509192117664651469
122,5954.70188928488573969600405868294801,5953.2,1.50188928488573969600405868294801
123,6052.70353372219978530131863234209624,6051.2,1.50353372219978530131863234209624
124,6151.50516483119004532541771225850699,6150.0,1.50516483119004532541771225850699
125,6251.10678282625358459414575872410664,6249.6,1.50678282625358459414575872410664
126,6351.50838791665436653934016133031555,6350.0,1.50838791665436653934016133031555
127,6452.70998030668585641806390540344285,6451.2,1.50998030668585641806390540344285
128,6554.71156019582723372209496819032855,6553.2,1.51156019582723372209496819032855
129,6657.51312777889351487315964494231558,6656.0,1.51312777889351487315964494231558
130,6761.11468324617986891752978487724551,6759.6,1.51468324617986891752978487724551
131,6865.51622678360039352948583823807831,6864.0,1.51622678360039352948583823807831
132,6970.71775857282160365594679096369241,6969.2,1.51775857282160365594679096369241
133,7076.71927879139087335298411326124308,7075.2,1.51927879139087335298411326124308
134,7183.52078761286006008897805123236231,7182.0,1.52078761286006008897805123236231
135,7291.12228520690452268083202670276829,7289.6,1.52228520690452268083202670276829
136,7399.52377173943774034213058025287403,7398.0,1.52377173943774034213058025287403
137,7508.72524737272172701418275114024886,7507.2,1.52524737272172701418275114024886
138,7618.72671226547342153890209008960921,7617.2,1.52671226547342153890209008960921
139,7729.52816657296723212656901337922367,7728.0,1.52816657296723212656901337922367
140,7841.12961044713389812555281717120509,7839.6,1.52961044713389812555281717120509
141,7953.53104403665582754358080902595991,7952.0,1.53104403665582754358080902595991
142,8066.73246748705906069687490804505962,8065.2,1.53246748705906069687490804505962
143,8180.73388094080200171330672335576012,8179.2,1.53388094080200171330672335576012
144,8295.53528453736105243608527438048877,8294.0,1.53528453736105243608527438048877
145,8411.13667841331327908673222171005864,8409.6,1.53667841331327908673222171005864
146,8527.53806270241623417734877523864269,8526.0,1.53806270241623417734877523864269
147,8644.73943753568504795921228243532138,8643.2,1.53943753568504795921228243532138
148,8762.74080304146690473670719902312857,8761.2,1.54080304146690473670719902312857
149,8881.54215934551300584752094659788425,8880.0,1.54215934551300584752094659788425
150,9001.14350657104812294995787798046452,8999.6,1.54350657104812294995787798046452
151,9121.54484483883783753160083785662082,9120.0,1.54484483883783753160083785662082
152,9242.74617426725355693846514064072133,9241.2,1.54617426725355693846514064072133
153,9364.74749497233539587431317830683644,9363.2,1.54749497233539587431317830683644
154,9487.54880706785300726934577148530910,9486.0,1.54880706785300726934577148530910
155,9611.15011066536444075423669629223299,9609.6,1.55011066536444075423669629223299
156,9735.55140587427310660584681256862879,9734.0,1.55140587427310660584681256862879
157,9860.75269280188291621119393550698066,9859.2,1.55269280188291621119393550698066
158,9986.75397155345167086775238489828661,9985.2,1.55397155345167086775238489828661
159,10113.5552422322427625928880781708342,10112.0,1.5552422322427625928880781708342
160,10241.1565049395752532799392022860731,10239.6,1.5565049395752532799392022860731
161,10369.5577597748723906970339306945440,10368.0,1.5577597748723906970339306945440
162,10498.7590068357086207897168758644219,10497.2,1.5590068357086207897168758644219
163,10628.7602462178551511406541037658834,10627.2,1.5602462178551511406541037658834
164,10759.5614780153241202229820023199020,10758.0,1.5614780153241202229820023199020
165,10891.1627023204114210474881386701482,10889.6,1.5627023204114210474881386701482
166,11023.5639192237382297191831627512475,11022.0,1.5639192237382297191831627512475
167,11156.7651288142912861355536355715234,11155.2,1.5651288142912861355536355715234
168,11290.7663311794619695153796854024179,11289.2,1.5663311794619695153796854024179
169,11425.5675264050842138201784651365936,11424.0,1.5675264050842138201784651365936
170,11561.1687145754713028113594662283973,11559.6,1.5687145754713028113594662283973
171,11697.5698957734515849375228883046897,11696.0,1.5698957734515849375228883046897
172,11834.7710700804031459185293181366827,11833.2,1.5710700804031459185293181366827
173,11972.7722375762874744286418091302781,11971.2,1.5722375762874744286418091302781
174,12111.5733983396821567222247086923709,12110.0,1.5733983396821567222247086923709
175,12251.1745524478126341869025541282829,12249.6,1.5745524478126341869025541282829
176,12391.5756999765830535305021627670676,12390.0,1.5756999765830535305021627670676
177,12532.7768410006062428622856567989440,12531.2,1.5768410006062428622856567989440
178,12674.7779755932328428228408958230689,12673.2,1.5779755932328428228408958230689
179,12817.5791038265796192075453804522178,12816.0,1.5791038265796192075453804522178
180,12961.1802257715569880299727430407365,12959.6,1.5802257715569880299727430407365
181,13105.5813414978957756737982098230583,13104.0,1.5813414978957756737982098230583
182,13250.7824510741732418285584784024843,13249.2,1.5824510741732418285584784024843
183,13396.7835545678383882585102045521790,13395.2,1.5835545678383882585102045521790
184,13543.5846520452365776460930971564338,13542.0,1.5846520452365776460930971564338
185,13691.1857435716334843180909640265582,13689.6,1.5857435716334843180909640265582
186,13839.5868292112383978230799744392724,13838.0,1.5868292112383978230799744392724
187,13988.7879090272269031606313420228680,13987.2,1.5879090272269031606313420228680
188,14138.7889830817629530985525310181379,14137.2,1.5889830817629530985525310181379
189,14289.5900514360203563092242484077167,14288.0,1.5900514360203563092242484077167
190,14441.1911141502036969760773772077649,14439.6,1.5911141502036969760773772077649
191,14593.5921712835687050927276817659621,14592.0,1.5921712835687050927276817659621
192,14746.7932228944420938369367368921382,14745.2,1.5932228944420938369367368921382
193,14900.7942690402408823232118047336177,14899.2,1.5942690402408823232118047336177
194,15055.5953097774912170747914113309297,15054.0,1.5953097774912170747914113309297
195,15211.1963451618467101473390254681210,15209.6,1.5963451618467101473390254681210
196,15367.5973752481063075962077899809483,15366.0,1.5973752481063075962077899809483
197,15524.7984000902317026625598447510263,15523.2,1.5984000902317026625598447510263
198,15682.7994197413643078402816368805177,15681.2,1.5994197413643078402816368805177
199,15841.6004342538417986575110792392532,15840.0,1.6004342538417986575110792392532
200,16001.2014436792142431129377770688496,15999.6,1.6014436792142431129377770688496
201,16161.6024480682598277432553735825364,16160.0,1.6024480682598277432553735825364
202,16322.8034474710001936978777478838825,16321.2,1.6034474710001936978777478838825
203,16484.8044419367153934756012665114999,16483.2,1.6044419367153934756012665114999
204,16647.6054315139584799380749698068914,16646.0,1.6054315139584799380749698068914
205,16811.2064162505697375653909752600156,16809.6,1.6064162505697375653909752600156
206,16975.6073961936905689724923364992306,16974.0,1.6073961936905689724923364992306
207,17140.8083713897770425570241341535896,17139.2,1.6083713897770425570241341535896
208,17306.8093418846131155000327690831333,17305.2,1.6093418846131155000327690831333
209,17473.6103077233235378623413131856684,17472.0,1.6103077233235378623413131856684
210,17641.2112689503864492722002709421756,17639.6,1.6112689503864492722002709421756
211,17809.6122256096456755631704699733736,17808.0,1.6122256096456755631704699733736
212,17978.8131777443227355893605168001319,17977.2,1.6131777443227355893605168001319
213,18148.8141253970285625959070462185393,18147.2,1.6141253970285625959070462185393
214,18319.6150686097749551203815922219072,18318.0,1.6150686097749551203815922219072
215,18491.2160074239857566313491383422882,18489.6,1.6160074239857566313491383422882
216,18663.6169418805077778585291422071223,18662.0,1.6169418805077778585291422071223
217,18836.8178720196214657735947417630482,18835.2,1.6178720196214657735947417630482
218,19010.8187978810513281940534302579997,19009.2,1.6187978810513281940534302579997
219,19185.6197195039761172831383311761716,19184.0,1.6197195039761172831383311761716
220,19361.2206369270387844538310351130647,19359.6,1.6206369270387844538310351130647
221,19537.6215501883562045792988122103635,19536.0,1.6215501883562045792988122103635
222,19714.8224593255286867071047140495901,19713.2,1.6224593255286867071047140495901
223,19892.8233643756492648380144531775429,19891.2,1.6233643756492648380144531775429
224,20071.6242653753127838286910798059372,20070.0,1.6242653753127838286910798059372
225,20251.2251623606247829748126083206864,20249.6,1.6251623606247829748126083206864
226,20431.6260553672101808125459145216504,20430.0,1.6260553672101808125459145216504
227,20612.8269444302217697812159049691344,20611.2,1.6269444302217697812159049691344
228,20794.8278295843485225573616442267793,20793.2,1.6278295843485225573616442267793
229,20977.6287108638237172123152057803025,20976.0,1.6287108638237172123152057803025
230,21161.2295883024328858795319189341904,21159.6,1.6295883024328858795319189341904
231,21345.6304619335215887209268080673040,21344.0,1.6304619335215887209268080673040
232,21530.8313317900030236011222357164423,21529.2,1.6313317900030236011222357164423
233,21716.8321979043654664550952052174586,21715.2,1.6321979043654664550952052174586
234,21903.6330603086795584952742592341120,21902.0,1.6330603086795584952742592341120
235,22091.2339190346054334291696336443562,22089.6,1.6339190346054334291696336443562
236,22279.6347741133996943862886369462650,22278.0,1.6347741133996943862886369462650
237,22468.8356255759222441744466549678843,22467.2,1.6356255759222441744466549678843
238,22658.8364734526429705964676892447429,22657.2,1.6364734526429705964676892447429
