Eigenstate,Energy,Kinetic Energy,Potential Energy
1,0.500000000041004454879854306578701742,0.0,0.500000000041004454879854306578701742
2,1.84623093791877033826200644384283408,1.2,0.64623093791877033826200644384283408
3,3.93633761049119258020631884442058128,3.2,0.73633761049119258020631884442058128
4,6.79966527945183870184709663343290751,6.0,0.79966527945183870184709663343290751
5,10.4480465781223435439455524137342854,9.6,0.8480465781223435439455524137342854
6,14.8870660012597319381301598060115104,14.0,0.8870660012597319381301598060115104
7,20.1197208303032813212358823803242265,19.2,0.9197208303032813212358823803242265
8,26.1477838516305267660709599095684548,25.2,0.9477838516305267660709599095684548
9,32.9723835642480959323448190602332136,32.0,0.9723835642480959323448190602332136
10,40.5942802223047862306411016481138735,39.6,0.9942802223047862306411016481138735
11,49.0140093959417948334058751917609129,48.0,1.0140093959417948334058751917609129
12,58.2319621804638711465261889681782245,57.2,1.0319621804638711465261889681782245
13,68.2484327059369199530436420807325724,67.2,1.0484327059369199530436420807325724
14,79.0636476700441694705828356382329607,78.0,1.0636476700441694705828356382329607
15,90.6777854539003601749113074356693653,89.6,1.0777854539003601749113074356693653
16,103.090988926922192406108946463633850,102.0,1.090988926922192406108946463633850
17,116.303374280289832456251309874894952,115.2,1.103374280289832456251309874894952
18,130.315037277953113294948789819825395,129.2,1.115037277953113294948789819825395
19,145.126057779735513124166401663081168,144.0,1.126057779735513124166401663081168
20,160.736503078968092527488216075017669,159.6,1.136503078968092527488216075017669
21,177.146430408571192187100702022036562,176.0,1.146430408571192187100702022036562
22,194.355888852213173431679800257154814,193.2,1.155888852213173431679800257154814
23,212.364920822246943214124418181992088,211.2,1.164920822246943214124418181992088
24,231.173563217110376524339083906278623,230.0,1.173563217110376524339083906278623
25,250.781848338122242982612980819039204,249.6,1.181848338122242982612980819039204
26,271.189804623289794752649139979758642,270.0,1.189804623289794752649139979758642
27,292.397457240271342509319932508221380,291.2,1.197457240271342509319932508221380
28,314.404828569735295385182084294277511,313.2,1.204828569735295385182084294277511
29,337.211938602562112996939200859308592,336.0,1.211938602562112996939200859308592
30,360.818805268686130082792872142738805,359.6,1.218805268686130082792872142738805
31,385.225444711228275780865446488874869,384.0,1.225444711228275780865446488874869
32,410.431871516492809993664064654399969,409.2,1.231871516492809993664064654399969
33,436.438098908091551479074954523217506,435.2,1.238098908091551479074954523217506
34,463.244138911708526041971726889172781,462.0,1.244138911708526041971726889172781
35,490.850002495678768134647853584143771,489.6,1.250002495678768134647853584143771
36,519.255699691521530295614201501630729,518.0,1.255699691521530295614201501630729
37,548.461239697764070307703722801964179,547.2,1.261239697764070307703722801964179
38,578.466630969761767213227293209803387,577.2,1.266630969761767213227293209803387
39,609.271881297722468674366735217861573,608.0,1.271881297722468674366735217861573
40,640.876997874747151383417476033850600,639.6,1.276997874747151383417476033850600
41,673.281987356382225953751914894276558,672.0,1.281987356382225953751914894276558
42,706.486855912923825120854718020140212,705.2,1.286855912923825120854718020140212
43,740.491609275507927737854613815823379,739.2,1.291609275507927737854613815823379
44,775.296252776852077034465951590277232,774.0,1.296252776852077034465951590277232
45,810.900791387376882039251447451027450,809.6,1.300791387376882039251447451027450
46,847.305229747322354782520917571028559,846.0,1.305229747322354782520917571028559
47,884.509572195380659284847341437126894,883.2,1.309572195380659284847341437126894
48,922.513822794289261971932369155524848,921.2,1.313822794289261971932369155524848
49,961.317985353763810612656195462897606,960.0,1.317985353763810612656195462897606
50,1000.92206345109594616349315856740112,999.6,1.32206345109594616349315856740112
51,1041.32606044969578494000181223497139,1040.0,1.32606044969578494000181223497139
52,1082.52997951582046332179877285709564,1081.2,1.32997951582046332179877285709564
53,1124.53382363369768707887965671807890,1123.2,1.33382363369768707887965671807890
54,1167.33759561922566627569441814462091,1166.0,1.33759561922566627569441814462091
55,1210.94129813240734121687259873843777,1209.6,1.34129813240734121687259873843777
56,1255.34493368865673032836899016955350,1254.0,1.34493368865673032836899016955350
57,1300.54850466909803190268126712798934,1299.2,1.34850466909803190268126712798934
58,1346.55201332996331445050044175725873,1345.2,1.35201332996331445050044175725873
59,1393.35546181118187645387979403297148,1392.0,1.35546181118187645387979403297148
60,1440.95885214424333180830593885283238,1439.6,1.35885214424333180830593885283238
61,1489.36218625940691301355109998584612,1488.0,1.36218625940691301355109998584612
62,1538.56546599232118316807240997846942,1537.2,1.36546599232118316807240997846942
63,1588.56869309011110593270343884487861,1587.2,1.36869309011110593270343884487861
64,1639.37186921698311014946123224158141,1638.0,1.37186921698311014946123224158141
65,1690.97499595939325096131936579999894,1689.6,1.37499595939325096131936579999894
66,1743.37807483081872193974347857626000,1742.0,1.37807483081872193974347857626000
67,1796.58110727616871043545994486003238,1795.2,1.38110727616871043545994486003238
68,1850.58409467586683220711988510074595,1849.2,1.38409467586683220711988510074595
69,1905.38703834963406871179393122945195,1904.0,1.38703834963406871179393122945195
70,1960.98993955999820217296904156585045,1959.6,1.38993955999820217296904156585045
71,2017.39279951555314483798776769467523,2016.0,1.39279951555314483798776769467523
72,2074.59561937398926059449023031913926,2073.2,1.39561937398926059449023031913926
73,2132.59840024491372410901587063690588,2131.2,1.39840024491372410901587063690588
74,2191.40114319247814380236901097103200,2190.0,1.40114319247814380236901097103200
75,2251.00384923782904387524939542000585,2249.6,1.40384923782904387524939542000585
76,2311.40651936139535104089345588900300,2310.0,1.40651936139535104089345588900300
77,2372.60915450502572922305404811034655,2371.2,1.40915450502572922305404811034655
78,2434.61175557398743967946608497775738,2433.2,1.41175557398743967946608497775738
79,2497.41432343883735719095326264012006,2496.0,1.41432343883735719095326264012006
80,2561.01685893717483483068650297556757,2559.6,1.41685893717483483068650297556757
81,2625.41936287528526048662822796551312,2624.0,1.41936287528526048662822796551312
82,2690.62183602968238685964291934882680,2689.2,1.42183602968238685964291934882680
83,2756.62427914855682792596473204317177,2755.2,1.42427914855682792596473204317177
84,2823.42669295313749056099679883891768,2822.0,1.42669295313749056099679883891768
85,2891.02907813897215074524314439095766,2889.6,1.42907813897215074524314439095766
86,2959.43143537713286790778468000384663,2958.0,1.43143537713286790778468000384663
87,3028.63376531535147349191101402318830,3027.2,1.43376531535147349191101402318830
88,3098.63606857908994644978394394624773,3097.2,1.43606857908994644978394394624773
89,3169.43834577255010487084699741572264,3168.0,1.43834577255010487084699741572264
90,3241.04059747962669973196615262289407,3239.6,1.44059747962669973196615262289407
91,3313.44282426480767530523609495630005,3312.0,1.44282426480767530523609495630005
92,3386.64502667402507246184721450970697,3385.2,1.44502667402507246184721450970697
93,3460.64720523545978885535293783884165,3459.2,1.44720523545978885535293783884165
94,3535.44936046030316703893883586002738,3534.0,1.44936046030316703893883586002738
95,3611.05149284347816041726597284741746,3609.6,1.45149284347816041726597284741746
96,3687.45360286432262511134440328739956,3686.0,1.45360286432262511134440328739956
97,3764.65569098723710147278332789499103,3763.2,1.45569098723710147278332789499103
98,3842.65775766229927610946940889390461,3841.2,1.45775766229927610946940889390461
99,3921.45980332584716181253593114977504,3920.0,1.45980332584716181253593114977504
100,4001.06182840103288643406914747413725,3999.6,1.46182840103288643406914747413725
101,4081.46383329834885246084384346154708,4080.0,1.46383329834885246084384346154708
102,4162.66581841612790345465900239514046,4161.2,1.46581841612790345465900239514046
103,4244.66778414101902561623152111098470,4243.2,1.46778414101902561623152111098470
104,4327.46973084844000546489573200694811,4326.0,1.46973084844000546489573200694811
105,4411.07165890300837155259926306832564,4409.6,1.47165890300837155259926306832564
106,4495.47356865895185736644232102839570,4494.0,1.47356865895185736644232102839570
107,4580.67546046049954449205198930585072,4579.2,1.47546046049954449205198930585072
108,4666.67733464225476587052868989584894,4665.2,1.47733464225476587052868989584894
109,4753.47919152955078038816793585774344,4752.0,1.47919152955078038816793585774344
110,4841.08103143879016761803530424613762,4839.6,1.48103143879016761803530424613762
111,4929.48285467776882567127414499406391,4928.0,1.48285467776882567127414499406391
112,5018.68466154598540568239206558772033,5017.2,1.48466154598540568239206558772033
113,5108.68645233493696091697807890136813,5107.2,1.48645233493696091697807890136813
114,5199.48822732840153973254610294826910,5198.0,1.48822732840153973254610294826910
115,5291.08998680270841117469785357598868,5289.6,1.48998680270841117469785357598868
116,5383.49173102699656365914997808413597,5382.0,1.49173102699656365914997808413597
117,5476.69346026346208547716353490483708,5475.2,1.49346026346208547716353490483708
118,5570.69517476759499483080832992407811,5569.2,1.49517476759499483080832992407811
119,5665.49687478840605339077841951083746,5664.0,1.49687478840605339077841951083746
120,5761.09856056864407152724008607640358,5759.6,1.49856056864407152724008607640358
121,5857.50023234500417509694930697292836,5856.0,1.50023234500417509694930697292836
122,5954.70189034832748475674302784050997,5953.2,1.50189034832748475674302784050997
123,6052.70353480379262658057663504326661,6051.2,1.50353480379262658057663504326661
124,6151.50516593109947507747120688039390,6150.0,1.50516593109947507747120688039390
125,6251.10678394464550014147120298935014,6249.6,1.50678394464550014147120298935014
126,6351.50838905369507426741563448813246,6350.0,1.50838905369507426741563448813246
127,6452.70998146254207578843933358407411,6451.2,1.50998146254207578843933358407411
128,6554.71156137066610130393118616053657,6553.2,1.51156137066610130393118616053657
129,6657.51312897288258839343799442348863,6656.0,1.51312897288258839343799442348863
130,6761.11468445948713133013538015642780,6759.6,1.51468445948713133013538015642780
131,6865.51622801639425710336915899673864,6864.0,1.51622801639425710336915899673864
132,6970.71775982527091408256999758412563,6969.2,1.51775982527091408256999758412563
133,7076.71928006366491387325960105729130,7075.2,1.51928006366491387325960105729130
134,7183.52078890512855563990870602286139,7182.0,1.52078890512855563990870602286139
135,7291.12228651933764406206410867705551,7289.6,1.52228651933764406206410867705551
136,7399.52377307220610840263162264540632,7398.0,1.52377307220610840263162264540632
137,7508.72524872599641685925866885197846,7507.2,1.52524872599641685925866885197846
138,7618.72671363942596675776919268009346,7617.2,1.52671363942596675776919268009346
139,7729.52816796776962904069838467652293,7728.0,1.52816796776962904069838467652293
140,7841.12961186295861005800608910752016,7839.6,1.52961186295861005800608910752016
141,7953.53104547367578910955806351784085,7952.0,1.53104547367578910955806351784085
142,8066.73246894544768211569724617662214,8065.2,1.53246894544768211569724617662214
143,8180.73388242073317314205763453604300,8179.2,1.53388242073317314205763453604300
144,8295.53528603900914832513684457662624,8294.0,1.53528603900914832513684457662624
145,8411.13667993685316255738381295442065,8409.6,1.53667993685316255738381295442065
146,8527.53806424802326142180773009921427,8526.0,1.53806424802326142180773009921427
147,8644.73943910353507266314798876879326,8643.2,1.53943910353507266314798876879326
148,8762.74080463173628252461167199301315,8761.2,1.54080463173628252461167199301315
149,8881.54216095837859875111096642396590,8880.0,1.54216095837859875111096642396590
150,9001.14350820668730389985545716649657,8999.6,1.54350820668730389985545716649657
151,9121.54484649742849487253098035470189,9120.0,1.54484649742849487253098035470189
152,9242.74617594897409896821149339030365,9241.2,1.54617594897409896821149339030365
153,9364.74749667736475540667426715383579,9363.2,1.54749667736475540667426715383579
154,9487.54880879637064622133639771161362,9486.0,1.54880879637064622133639771161362
155,9611.15011241755035475778112992741384,9609.6,1.55011241755035475778112992741384
156,9735.55140765030782964421243929813515,9734.0,1.55140765030782964421243929813515
157,9860.75269460194752528041594923103398,9859.2,1.55269460194752528041594923103398
158,9986.75397337772779066330230554877469,9985.2,1.55397337772779066330230554877469
159,10113.5552440809125702218408123960589,10112.0,1.5552440809125702218408123960589
160,10241.1565068128214829988956138082550,10239.6,1.5565068128214829988956138082550
161,10369.5577616728783386760579597534728,10368.0,1.5577616728783386760579597534728
162,10498.7590087586581499025484175357746,10497.2,1.5590087586581499025484175357746
163,10628.7602481659326957814609447699516,10627.2,1.5602481659326957814609447699516
164,10759.5614799887146911499164563032980,10758.0,1.5614799887146911499164563032980
165,10891.1627043193006102533162972903259,10889.6,1.5627043193006102533162972903259
166,11023.5639212483122153292566908993254,11022.0,1.5639212483122153292566908993254
167,11156.7651308647368373333965781365303,11155.2,1.5651308647368373333965781365303
168,11290.7663332559664514961649633419051,11289.2,1.5663332559664514961649633419051
169,11425.5675285078355927723710051656061,11424.0,1.5675285078355927723710051656061
170,11561.1687167046581509268055525754616,11559.6,1.5687167046581509268055525754616
171,11697.5698979292630854502673365510114,11696.0,1.5698979292630854502673365510114
172,11834.7710722630290981726447987240033,11833.2,1.5710722630290981726447987240033
173,11972.7722397859182989753569482448152,11971.2,1.5722397859182989753569482448152
174,12111.5734005765089004466401562459326,12110.0,1.5734005765089004466401562459326
175,12251.1745547120269754645866464798426,12249.6,1.5745547120269754645866464798426
176,12391.5757022683773074142604471575221,12390.0,1.5757022683773074142604471575221
177,12532.7768433201733662994009969028588,12531.2,1.5768433201733662994009969028588
178,12674.7779779407664399030835688510937,12673.2,1.5779779407664399030835688510937
179,12817.5791062022739464422551735023621,12816.0,1.5791062022739464422551735023621
180,12961.1802281756069596625177362116039,12959.6,1.5802281756069596625177362116039
181,13105.5813439304969690217175922597205,13104.0,1.5813439304969690217175922597205
182,13250.7824535355219026576994966017792,13249.2,1.5824535355219026576994966017792
183,13396.7835570581314361894720927001890,13395.2,1.5835570581314361894720927001890
184,13543.5846545646716115932936492512778,13542.0,1.5846545646716115932936492512778
185,13691.1857461204087879617742231500360,13689.6,1.5857461204087879617742231500360
186,13839.5868317895529451145862782694527,13838.0,1.5868317895529451145862782694527
187,13988.7879116352803638612540315650804,13987.2,1.5879116352803638612540315650804
188,14138.7889857197556983523084279173847,14137.2,1.5889857197556983523084279173847
189,14289.5900541041534642498679590748582,14288.0,1.5900541041534642498679590748582
190,14441.1911168486789583686925231128019,14439.6,1.5911168486789583686925231128019
191,14593.5921740125886290102312084294588,14592.0,1.5921740125886290102312084294588
192,14746.7932256542099133718354284376228,14745.2,1.5932256542099133718354284376228
193,14900.7942718309605603349533099346155,14899.2,1.5942718309605603349533099346155
194,15055.5953125993674519730551894492432,15054.0,1.5953125993674519730551894492432
195,15211.1963480150849417116158002163515,15209.6,1.5963480150849417116158002163515
196,15367.5973781329127228320192561601296,15366.0,1.5973781329127228320192561601296
197,15524.7984030068132416946738064714917,15523.2,1.5984030068132416946738064714917
198,15682.7994226899286698432807506259733,15681.2,1.5994226899286698432807506259733
199,15841.6004372345974478240770151432867,15840.0,1.6004372345974478240770151432867
200,16001.2014466923704146602157347584189,15999.6,1.6014466923704146602157347584189
201,16161.6024511140265339576673233991102,16160.0,1.6024511140265339576673233991102
202,16322.8034505495882300187564885132570,16321.2,1.6034505495882300187564885132570
203,16484.8044450483363446180204258721592,16483.2,1.6044450483363446180204258721592
204,16647.6054346588247260552540216405122,16646.0,1.6054346588247260552540216405122
205,16811.2064194288944604510576050677475,16809.6,1.6064194288944604510576050677475
206,16975.6073994056877583035883011589334,16974.0,1.6073994056877583035883011589334
207,17140.8083746356615021771443550386932,17139.2,1.6083746356615021771443550386932
208,17306.8093451646004697439910114075516,17305.2,1.6093451646004697439910114075516
209,17473.6103110376302379222596953504853,17472.0,1.6103110376302379222596953504853
210,17641.2112722992297796055235540704030,17639.6,1.6112722992297796055235540704030
211,17809.6122289932437603430098991078322,17808.0,1.6122289932437603430098991078322
212,17978.8131811628945451975758049858508,17977.2,1.6131811628945451975758049858508
213,18148.8141288507939201593392296164083,18147.2,1.6141288507939201593392296164083
214,18319.6150720989545430906532545547199,18318.0,1.6150720989545430906532545547199
215,18491.2160109488011234086525249062781,18489.6,1.6160109488011234086525249062781
216,18663.6169454411813444598268900567287,18662.0,1.6169454411813444598268900567287
217,18836.8178756163765325456619456538178,18835.2,1.6178756163765325456619456538178
218,19010.8188015141120815717939638885700,19009.2,1.6188015141120815717939638885700
219,19185.6197231735676365936125527796581,19184.0,1.6197231735676365936125527796581
220,19361.2206406333870487664363057715106,19359.6,1.6206406333870487664363057715106
221,19537.6215539316880996025484654464239,19536.0,1.6215539316880996025484654464239
222,19714.8224631060720117324556871180175,19713.2,1.6224631060720117324556871180175
223,19892.8233681936327397311979150374037,19891.2,1.6233681936327397311979150374037
224,20071.6242692309660560690051365224488,20070.0,1.6242692309660560690051365224488
225,20251.2251662541784347428405561677003,20249.6,1.6251662541784347428405561677003
226,20431.6260592988957361267680776782788,20430.0,1.6260592988957361267680776782788
227,20612.8269484002717016839878121782968,20611.2,1.6269484002717016839878121782968
228,20794.8278335929962603507359029450263,20793.2,1.6278335929962603507359029450263
229,20977.6287149113036537441892911201462,20976.0,1.6287149113036537441892911201462
230,21161.2295923889803848806086846640460,21159.6,1.6295923889803848806086846640460
231,21345.6304660593729921929797664010440,21344.0,1.6304660593729921929797664010440
232,21530.8313359553956592570620998614407,21529.2,1.6313359553956592570620998614407
233,21716.8322021095376552113395386162113,21715.2,1.6322021095376552113395386162113
234,21903.6330645538706220169270217298220,21902.0,1.6330645538706220169270217298220
235,22091.2339233200557017285223065450092,22089.6,1.6339233200557017285223065450092
236,22279.6347784393505134751602665054872,22278.0,1.6347784393505134751602665054872
237,22468.8356299426159837708846647730027,22467.2,1.6356299426159837708846647730027
238,22658.8364778603230318863374361397855,22657.2,1.6364778603230318863374361397855
