Eigenstate,Energy,Kinetic Energy,Potential Energy
1,0.500000000051972487793170879696009525,0.0,0.500000000051972487793170879696009525
2,1.84623093799036410920261051679051668,1.2,0.64623093799036410920261051679051668
3,3.93633761070149427136017724396531530,3.2,0.73633761070149427136017724396531530
4,6.79966527988987529708103187658172623,6.0,0.79966527988987529708103187658172623
5,10.4480465788811173895824559331958289,9.6,0.8480465788811173895824559331958289
6,14.8870660024338760897918685934748348,14.0,0.8870660024338760897918685934748348
7,20.1197208319881960008659015431661935,19.2,0.9197208319881960008659015431661935
8,26.1477838539220195542659074416989240,25.2,0.9477838539220195542659074416989240
9,32.9723835672422147564495979412195478,32.0,0.9723835672422147564495979412195478
10,40.5942802260977348743576864563091388,39.6,0.9942802260977348743576864563091388
11,49.0140094006298872941030210881122279,48.0,1.0140094006298872941030210881122279
12,58.2319621861435057890836577467058654,57.2,1.0319621861435057890836577467058654
13,68.2484327127045644413398310464010020,67.2,1.0484327127045644413398310464010020
14,79.0636476779963519018721793692818228,78.0,1.0636476779963519018721793692818228
15,90.6777854631336639566322060707468754,89.6,1.0777854631336639566322060707468754
16,103.090988937533253483854018941338014,102.0,1.090988937533253483854018941338014
17,116.303374292375338071498514816922691,115.2,1.103374292375338071498514816922691
18,130.315037291609801769055699240483825,129.2,1.115037291609801769055699240483825
19,145.126057795060174349686074439090093,144.0,1.126057795060174349686074439090093
20,160.736503096057568958833815991141376,159.6,1.136503096057568958833815991141376
21,177.146430427522380191415834195879851,176.0,1.146430427522380191415834195879851
22,194.355888873123024904664272116499807,193.2,1.155888873123024904664272116499807
23,212.364920845212467394259894139663549,211.2,1.164920845212467394259894139663549
24,231.173563242228641958143069969599419,230.0,1.173563242228641958143069969599419
25,250.781848365490379606637780531388054,249.6,1.181848365490379606637780531388054
26,271.189804653004996067037901393301838,270.0,1.189804653004996067037901393301838
27,292.397457272430867824159960601053593,291.2,1.197457272430867824159960601053593
28,314.404828604436472125509051567870128,313.2,1.204828604436472125509051567870128
29,337.211938639902339055604239682075658,336.0,1.211938639902339055604239682075658
30,360.818805308762876212881382858172455,359.6,1.218805308762876212881382858172455
31,385.225444754139088021205395140020289,384.0,1.225444754139088021205395140020289
32,410.431871562335312122357296949076585,409.2,1.231871562335312122357296949076585
33,436.438098956963447491049745940940676,435.2,1.238098956963447491049745940940676
34,463.244138963707602647374866051081774,462.0,1.244138963707602647374866051081774
35,490.850002550902897275531988459667085,489.6,1.250002550902897275531988459667085
36,519.255699750068671678875853020925718,518.0,1.255699750068671678875853020925718
37,548.461239759732273952622241753384862,547.2,1.261239759732273952622241753384862
38,578.466631035249176012269381258407682,577.2,1.266631035249176012269381258407682
39,609.271881366827320966173228448286957,608.0,1.271881366827320966173228448286957
40,640.876997947567783537092544146527632,639.6,1.276997947567783537092544146527632
41,673.281987433017074963740114774075594,672.0,1.281987433017074963740114774075594
42,706.486855993471431211826411048936613,705.2,1.286855993471431211826411048936613
43,740.491609360066936979131302751553166,739.2,1.291609360066936979131302751553166
44,775.296252865521243963608825826625523,774.0,1.296252865521243963608825826625523
45,810.900791480255072294512662829920834,809.6,1.300791480255072294512662829920834
46,847.305229844508547743920811350477007,846.0,1.305229844508547743920811350477007
47,884.509572296973950723694148191181680,883.2,1.309572296973950723694148191181680
48,922.513822900388866708646060504091388,921.2,1.313822900388866708646060504091388
49,961.317985464469065182796170948946590,960.0,1.317985464469065182796170948946590
50,1000.92206356650631149192190872850108,999.6,1.32206356650631149192190872850108
51,1041.32606056991084902314441412854388,1040.0,1.32606056991084902314441412854388
52,1082.52997964093994391798179406751950,1081.2,1.32997964093994391798179406751950
53,1124.53382376382143440675351052816397,1123.2,1.33382376382143440675351052816397
54,1167.33759575445366572076089747208737,1166.0,1.33759575445366572076089747208737
55,1210.94129827283971604615469471791430,1209.6,1.34129827283971604615469471791430
56,1255.34493383439374441327345933502122,1254.0,1.34493383439374441327345933502122
57,1300.54850482024009245011615072115588,1299.2,1.34850482024009245011615072115588
58,1346.55201348661097474232004805817290,1345.2,1.35201348661097474232004805817290
59,1393.35546197343583859473871685448123,1392.0,1.35546197343583859473871685448123
60,1440.95885231220444948201174368134548,1439.6,1.35885231220444948201174368134548
61,1489.36218643317619424801247791983663,1488.0,1.36218643317619424801247791983663
62,1538.56546617199979310894598749037616,1537.2,1.36546617199979310894598749037616
63,1588.56869327580036962584818382304103,1587.2,1.36869327580036962584818382304103
64,1639.37186940878451533231452246535954,1638.0,1.37186940878451533231452246535954
65,1690.97499615740845086331352959786175,1689.6,1.37499615740845086331352959786175
66,1743.37807503514953809188581128132038,1742.0,1.37807503514953809188581128132038
67,1796.58110748691713548920311551419086,1795.2,1.38110748691713548920311551419086
68,1850.58409489313503276265317809493374,1849.2,1.38409489313503276265317809493374
69,1905.38703857352438815588910256033324,1904.0,1.38703857352438815588910256033324
70,1960.98993979061316352651752165047061,1959.6,1.38993979061316352651752165047061
71,2017.39279975299545361336883803459668,2016.0,1.39279975299545361336883803459668
72,2074.59561961836180766291238039173859,2073.2,1.39561961836180766291238039173859
73,2132.59840049631958857797605761739477,2131.2,1.39840049631958857797605761739477
74,2191.40114345102059590337683534102988,2190.0,1.40114345102059590337683534102988
75,2251.00384950361154786196545494232743,2249.6,1.40384950361154786196545494232743
76,2311.40651963452156809783317536231725,2310.0,1.40651963452156809783317536231725
77,2372.60915478559952038501034425331151,2371.2,1.40915478559952038501034425331151
78,2434.61175586211286876180612261632768,2433.2,1.41175586211286876180612261632768
79,2497.41432373461869373094640685099955,2496.0,1.41432373461869373094640685099955
80,2561.01685924071655704002233686581440,2559.6,1.41685924071655704002233686581440
81,2625.41936318669205821528528293595662,2624.0,1.41936318669205821528528293595662
82,2690.62183634905916457127040792184695,2689.2,1.42183634905916457127040792184695
83,2756.62427947600870768494123622143538,2755.2,1.42427947600870768494123622143538
84,2823.42669328876981503133148473764736,2822.0,1.42669328876981503133148473764736
85,2891.02907848289048620148663107902782,2889.6,1.42907848289048620148663107902782
86,2959.43143572944300725811826346386650,2958.0,1.43143572944300725811826346386650
87,3028.63376567615943931358449802107819,3027.2,1.43376567615943931358449802107819
88,3098.63606894850199403707382661027572,3097.2,1.43606894850199403707382661027572
89,3169.43834615067272529570829118215467,3168.0,1.43834615067272529570829118215467
90,3241.04059786656662291755257894490764,3239.6,1.44059786656662291755257894490764
91,3313.44282466067187311246492813800456,3312.0,1.44282466067187311246492813800456
92,3386.64502707892076178918651702897826,3385.2,1.44502707892076178918651702897826
93,3460.64720564949443475201040034770444,3459.2,1.44720564949443475201040034770444
94,3535.44936088358448583163294887682451,3534.0,1.44936088358448583163294887682451
95,3611.05149327611412285076170970835264,3609.6,1.45149327611412285076170970835264
96,3687.45360330642145950293710001745411,3686.0,1.45360330642145950293710001745411
97,3764.65569143890729688091595239180380,3763.2,1.45569143890729688091595239180380
98,3842.65775812364958551666986611123547,3841.2,1.45775812364958551666986611123547
99,3921.45980379698660532286261600000730,3920.0,1.45980379698660532286261600000730
100,4001.06182888207075448525441808951139,3999.6,1.46182888207075448525441808951139
101,4081.46383378939470905132666275994457,4080.0,1.46383378939470905132666275994457
102,4162.66581891729158938569950735041275,4161.2,1.46581891729158938569950735041275
103,4244.66778465241066174930177625474083,4243.2,1.46778465241066174930177625474083
104,4327.46973137016999599454262398224009,4326.0,1.46973137016999599454262398224009
105,4411.07165943518740729497691306765553,4409.6,1.47165943518740729497691306765553
106,4495.47356920169091906371310221287557,4494.0,1.47356920169091906371310221287557
107,4580.67546101390990613285669970364572,4579.2,1.47546101390990613285669970364572
108,4666.67733520644799802672827503741480,4665.2,1.47733520644799802672827503741480
109,4753.47919210463875356806051642768756,4752.0,1.47919210463875356806051642768756
110,4841.08103202488505563625420651436564,4839.6,1.48103202488505563625420651436564
111,4929.48285527498310903557402103111806,4928.0,1.48285527498310903557402103111806
112,5018.68466215443187499753208829786412,5017.2,1.48466215443187499753208829786412
113,5108.68645295472872030591285944953159,5107.2,1.48645295472872030591285944953159
114,5199.48822795965201027513662598796970,5198.0,1.48822795965201027513662598796970
115,5291.08998744553133436415658803350136,5289.6,1.48998744553133436415658803350136
116,5383.49173168150600487643596650527912,5382.0,1.49173168150600487643596650527912
117,5476.69346092977243748354520914044969,5475.2,1.49346092977243748354520914044969
118,5570.69517544582098127881346833558334,5569.2,1.49517544582098127881346833558334
119,5665.49687547866273235375260141939917,5664.0,1.49687547866273235375260141939917
120,5761.09856127104683904773678113194892,5759.6,1.49856127104683904773678113194892
121,5857.50023305966876875417663284604940,5856.0,1.50023305966876875417663284604940
122,5954.70189107536998725329419427905525,5953.2,1.50189107536998725329419427905525
123,6052.70353554332946934867287668907492,6051.2,1.50353554332946934867287668907492
124,6151.50516668324744190494807630113080,6150.0,1.50516668324744190494807630113080
125,6251.10678470952173081774101181639258,6249.6,1.50678470952173081774101181639258
126,6351.50838983141706824964085448086951,6350.0,1.50838983141706824964085448086951
127,6452.70998225322769588815374871320475,6451.2,1.50998225322769588815374871320475
128,6554.71156217443357739434776964960328,6553.2,1.51156217443357739434776964960328
129,6657.51312978985052113768434745808095,6656.0,1.51312978985052113768434745808095
130,6761.11468528977449593065988093827833,6759.6,1.51468528977449593065988093827833
131,6865.51622886012040707276298165032678,6864.0,1.51622886012040707276298165032678
132,6970.71776068255558503605235615458312,6969.2,1.51776068255558503605235615458312
133,7076.71928093462822734307574297258512,7075.2,1.51928093462822734307574297258512
134,7183.52078978989102291189242169304819,7182.0,1.52078978989102291189242169304819
135,7291.12228741802017003461876441612069,7289.6,1.52228741802017003461876441612069
136,7399.52377398492999546838594619342134,7398.0,1.52377398492999546838594619342134
137,7508.72524965288336880965585969026651,7507.2,1.52524965288336880965585969026651
138,7618.72671458059809271085030129627487,7617.2,1.52671458059809271085030129627487
139,7729.52816892334944739234312208220535,7728.0,1.52816892334944739234312208220535
140,7841.12961283306905245689683086927549,7839.6,1.52961283306905245689683086927549
141,7953.53104645844020445613505173460963,7952.0,1.53104645844020445613505173460963
142,8066.73246994498984058537551126310138,8065.2,1.53246994498984058537551126310138
143,8180.73388343517727023297869006116294,8179.2,1.53388343517727023297869006116294
144,8295.53528706847980893073062709937159,8294.0,1.53528706847980893073062709937159
145,8411.13668098147544506401903278235323,8409.6,1.53668098147544506401903278235323
146,8527.53806530792266183181120419239762,8526.0,1.53806530792266183181120419239762
147,8644.73944017883752874347629744498344,8643.2,1.53944017883752874347629744498344
148,8762.74080572256817798146103669004792,8761.2,1.54080572256817798146103669004792
149,8881.54216206486676743075405342807087,8880.0,1.54216206486676743075405342807087
150,9001.14350932895903401599629425233675,8999.6,1.54350932895903401599629425233675
151,9121.54484763561153326047227293665072,9120.0,1.54484763561153326047227293665072
152,9242.74617710319665536613103741794507,9241.2,1.54617710319665536613103741794507
153,9364.74749784775550676431036772538598,9363.2,1.54749784775550676431036772538598
154,9487.54880998305874103638472656237939,9486.0,1.54880998305874103638472656237939
155,9611.15011362066541744030858845867805,9609.6,1.55011362066541744030858845867805
156,9735.55140886997996490939645796937707,9734.0,1.55140886997996490939645796937707
157,9860.75269583830732256992059039707536,9859.2,1.55269583830732256992059039707536
158,9986.75397463090632859560564513125651,9985.2,1.55397463090632859560564513125651
159,10113.5552453510414210718310102325569,10112.0,1.5552453510414210718310102325569
160,10241.1565081000327172070563496263305,10239.6,1.5565081000327172070563496263305
161,10369.5577629773045293875668786549144,10368.0,1.5577629773045293875668786549144
162,10498.7590100804323775366155574756963,10497.2,1.5590100804323775366155574756963
163,10628.7602495051885526312371273645365,10627.2,1.5602495051885526312371273645365
164,10759.5614813455862860133051905810127,10758.0,1.5614813455862860133051905810127
165,10891.1627056939225730950257952526803,10889.6,1.5627056939225730950257952526803
166,11023.5639226408197019744319565814931,11022.0,1.5639226408197019744319565814931
167,11156.7651322752655341931751393077490,11155.2,1.5651322752655341931751393077490
168,11290.7663346846525803255029967925171,11289.2,1.5663346846525803255029967925171
169,11425.5675299548159154604902462079438,11424.0,1.5675299548159154604902462079438
170,11561.1687181700699743206148246732481,11559.6,1.5687181700699743206148246732481
171,11697.5698994132442662111161750531306,11696.0,1.5698994132442662111161750531306
172,11834.7710737657180476667702058817470,11833.2,1.5710737657180476667702058817470
173,11972.7722413074539881983879526053920,11971.2,1.5722413074539881983879526053920
174,12111.5734021170308649825287086046431,12110.0,1.5734021170308649825287086046431
175,12251.1745562716753204793370016233008,12249.6,1.5745562716753204793370016233008
176,12391.5757038472927126848330379815383,12390.0,1.5757038472927126848330379815383
177,12532.7768449184970912781707032971918,12531.2,1.5768449184970912781707032971918
178,12674.7779795586403288182361323838487,12673.2,1.5779795586403288182361323838487
179,12817.5791078398404334345095605460277,12816.0,1.5791078398404334345095605460277
180,12961.1802298330090739585661521624253,12959.6,1.5802298330090739585661521624253
181,13105.5813456078783401447790253025151,13104.0,1.5813456078783401447790253025151
182,13250.7824552330267656755867873030627,13249.2,1.5824552330267656755867873030627
183,13396.7835587759046370005765961123512,13395.2,1.5835587759046370005765961123512
184,13543.5846563028586122508958587159282,13542.0,1.5846563028586122508958587159282
185,13691.1857478791556720370931128168404,13689.6,1.5857478791556720370931128168404
186,13839.5868335690064230989842185076775,13838.0,1.5868335690064230989842185076775
187,13988.7879134355877786080187959164173,13987.2,1.5879134355877786080187959164173
188,14138.7889875410650305584380576773018,14137.2,1.5889875410650305584380576773018
189,14289.5900559466133379782889388218020,14288.0,1.5900559466133379782889388218020
190,14441.1911187124386466113461995402315,14439.6,1.5911187124386466113461995402315
191,14593.5921758977980592924679561867196,14592.0,1.5921758977980592924679561867196
192,14746.7932275610196733985610213353409,14745.2,1.5932275610196733985610213353409
193,14900.7942737595219036789763874500031,14899.2,1.5942737595219036789763874500031
194,15055.5953145498323038060898454342462,15054.0,1.5953145498323038060898454342462
195,15211.1963499876059045783978853166351,15209.6,1.5963499876059045783978853166351
196,15367.5973801276430824680002862829067,15366.0,1.5973801276430824680002862829067
197,15524.7984050239069728877610893912598,15523.2,1.5984050239069728877610893912598
198,15682.7994247295404423400975546309834,15681.2,1.5994247295404423400975546309834
199,15841.6004392968826322812218692369649,15840.0,1.6004392968826322812218692369649
200,16001.2014487774850886410049166120204,15999.6,1.6014487774850886410049166120204
201,16161.6024532221274879748501517148317,16160.0,1.6024532221274879748501517148317
202,16322.8034526808329736236981319840537,16321.2,1.6034526808329736236981319840537
203,16484.8044472028831125368526239572882,16483.2,1.6044472028831125368526239572882
204,16647.6054368368324843724994669690427,16646.0,1.6054368368324843724994669690427
205,16811.2064216305229128412392835216305,16809.6,1.6064216305229128412392835216305
206,16975.6074016310973523113409323803421,16974.0,1.6074016310973523113409323803421
207,17140.8083768850134355463505249783326,17139.2,1.6083768850134355463505249783326
208,17306.8093474380566967964708200098744,17305.2,1.6093474380566967964708200098744
209,17473.6103133353534759865480118587697,17472.0,1.6103133353534759865480118587697
210,17641.2112746213835154962755987082742,17639.6,1.6112746213835154962755987082742
211,17809.6122313399922568915813080326097,17808.0,1.6122313399922568915813080326097
212,17978.8131835344028478343298951735690,17977.2,1.6131835344028478343298951735690
213,18148.8141312472278635482403614074482,18147.2,1.6141312472278635482403614074482
214,18319.6150745204807578167109753970992,18318.0,1.6150745204807578167109753970992
215,18491.2160133955870427187884416537343,18489.6,1.6160133955870427187884416537343
216,18663.6169479133952110577417826578914,18662.0,1.6169479133952110577417826578914
217,18836.8178781141874054412876644973300,18835.2,1.6178781141874054412876644973300
218,19010.8188040376898429859212097130170,19009.2,1.6188040376898429859212097130170
219,19185.6197257230829989182924371250794,19184.0,1.6197257230829989182924371250794
220,19361.2206432090115615817601447543288,19359.6,1.6206432090115615817601447543288
221,19537.6215565335941567504176288313779,19536.0,1.6215565335941567504176288313779
222,19714.8224657344328584479596677892344,19713.2,1.6224657344328584479596677892344
223,19892.8233708486224798322265508904649,19891.2,1.6233708486224798322265508904649
224,20071.6242719127596592047277110554051,20070.0,1.6242719127596592047277110554051
225,20251.2251689629517437016918973230258,20249.6,1.6251689629517437016918973230258
226,20431.6260620348254742045893250092822,20430.0,1.6260620348254742045893250092822
227,20612.8269511635354801129765674709754,20611.2,1.6269511635354801129765674709754
228,20794.8278363837725857898687960679563,20793.2,1.6278363837725857898687960679563
229,20977.6287177297719358317869460038014,20976.0,1.6287177297719358317869460038014
230,21161.2295952353209438497213959722943,21159.6,1.6295952353209438497213959722943
231,21345.6304689337670665502797326645453,21344.0,1.6304689337670665502797326645453
232,21530.8313388580254135259366002709669,21529.2,1.6313388580254135259366002709669
233,21716.8322050405861877398869842600657,21715.2,1.6322050405861877398869842600657
234,21903.6330675135219728515663393544743,21902.0,1.6330675135219728515663393544743
235,22091.2339263084948605539346339056376,22089.6,1.6339263084948605539346339056376
236,22279.6347814567634276212900690723157,22278.0,1.6347814567634276212900690723157
237,22468.8356329891895662877362916500397,22467.2,1.6356329891895662877362916500397
238,22658.8364809362451696873114920243738,22657.2,1.6364809362451696873114920243738
