Eigenstate,Energy,Kinetic Energy,Potential Energy
1,0.500000000039421190494445647784370901,0.0,0.500000000039421190494445647784370901
2,1.84623093790843559621051393196721669,1.2,0.64623093790843559621051393196721669
3,3.93633761046083503070371542977095852,3.2,0.73633761046083503070371542977095852
4,6.79966527938860716817724717766583738,6.0,0.79966527938860716817724717766583738
5,10.4480465780128130928152564767876979,9.6,0.8480465780128130928152564767876979
6,14.8870660010902423700701888807041971,14.0,0.8870660010902423700701888807041971
7,20.1197208300600618588874550452320324,19.2,0.9197208300600618588874550452320324
8,26.1477838512997480269911533262947849,25.2,0.9477838512997480269911533262947849
9,32.9723835638158940712712863842715297,32.0,0.9723835638158940712712863842715297
10,40.5942802217572751695936628209079413,39.6,0.9942802217572751695936628209079413
11,49.0140093952650728840551942642741000,48.0,1.0140093952650728840551942642741000
12,58.2319621796440247749168466827910842,57.2,1.0319621796440247749168466827910842
13,68.2484327049600259885742012339120908,67.2,1.0484327049600259885742012339120908
14,79.0636476688962964196229853725043232,78.0,1.0636476688962964196229853725043232
15,90.6777854525675689942325054393794013,89.6,1.0777854525675689942325054393794013
16,103.090988925390536936964637755903128,102.0,1.090988925390536936964637755903128
17,116.303374278545359637681180008486189,115.2,1.103374278545359637681180008486189
18,130.315037275981863228991369134975789,129.2,1.115037275981863228991369134975789
19,145.126057777523519039023245999518147,144.0,1.126057777523519039023245999518147
20,160.736503076501380668664324294212994,159.6,1.136503076501380668664324294212994
21,177.146430405835781656610106842524502,176.0,1.146430405835781656610106842524502
22,194.355888849195075989069275773404850,193.2,1.155888849195075989069275773404850
23,212.364920818932163048926111702799061,211.2,1.164920818932163048926111702799061
24,231.173563213484910006793649660490943,230.0,1.173563213484910006793649660490943
25,250.781848334172078397615499205282334,249.6,1.181848334172078397615499205282334
26,271.189804619000912020557168690335089,270.0,1.189804619000912020557168690335089
27,292.397457235629712896335148422898809,291.2,1.197457235629712896335148422898809
28,314.404828564726881205351027782928933,313.2,1.204828564726881205351027782928933
29,337.211938597172867307333863873198077,336.0,1.211938597172867307333863873198077
30,360.818805262901996373074345151176740,359.6,1.218805262901996373074345151176740
31,385.225444705035187658166961923401300,384.0,1.225444705035187658166961923401300
32,410.431871509876690863528299879278743,409.2,1.231871509876690863528299879278743
33,436.438098901038314223026791198810969,435.2,1.238098901038314223026791198810969
34,463.244138904204072692189291201913679,462.0,1.244138904204072692189291201913679
35,490.850002487708989546102668310857481,489.6,1.250002487708989546102668310857481
36,519.255699683072305815979161754402588,518.0,1.255699683072305815979161754402588
37,548.461239688821267445270627517724369,547.2,1.261239688821267445270627517724369
38,578.466630960311241303030298584529945,577.2,1.266630960311241303030298584529945
39,609.271881287750062542671733941777141,608.0,1.271881287750062542671733941777141
40,640.876997864238695010708043633848829,639.6,1.276997864238695010708043633848829
41,673.281987345323536136318627689015688,672.0,1.281987345323536136318627689015688
42,706.486855901300705131075167103328832,705.2,1.286855901300705131075167103328832
43,740.491609263306166983235427876863896,739.2,1.291609263306166983235427876863896
44,775.296252764057450715504916752000871,774.0,1.296252764057450715504916752000871
45,810.900791373975150806166824351218897,809.6,1.300791373975150806166824351218897
46,847.305229733299264390885889392635224,846.0,1.305229733299264390885889392635224
47,884.509572180721940250159836082002173,883.2,1.309572180721940250159836082002173
48,922.513822778980629223144023154622012,921.2,1.313822778980629223144023154622012
49,961.317985337790963144678740759490177,960.0,1.317985337790963144678740759490177
50,1000.92206343444456668869585517662341,999.6,1.32206343444456668869585517662341
51,1041.32606043235153953870958393664623,1040.0,1.32606043235153953870958393664623
52,1082.52997949776900109179728061763950,1081.2,1.32997949776900109179728061763950
53,1124.53382361492463978393062949482966,1123.2,1.33382361492463978393062949482966
54,1167.33759559971664799306201804095980,1166.0,1.33759559971664799306201804095980
55,1210.94129811214794798385941701510266,1209.6,1.34129811214794798385941701510266
56,1255.34493366763253978785834710897387,1254.0,1.34493366763253978785834710897387
57,1300.54850464729460294768083452065369,1299.2,1.34850464729460294768083452065369
58,1346.55201330736618686768074151035519,1345.2,1.35201330736618686768074151035519
59,1393.35546178777657056609984221182418,1392.0,1.35546178777657056609984221182418
60,1440.95885212001534811611715530627833,1439.6,1.35885212001534811611715530627833
61,1489.36218623434173183566961967743942,1488.0,1.36218623434173183566961967743942
62,1538.56546596640426428080901950019763,1537.2,1.36546596640426428080901950019763
63,1588.56869306332788820833957288895232,1587.2,1.36869306332788820833957288895232
64,1639.37186918931901119355873107034085,1638.0,1.37186918931901119355873107034085
65,1690.97499593083366674895107078237697,1689.6,1.37499593083366674895107078237697
66,1743.37807480134902645063113697027938,1742.0,1.37807480134902645063113697027938
67,1796.58110724577425528800538634397653,1795.2,1.38110724577425528800538634397653
68,1850.58409464453294629131492423830928,1849.2,1.38409464453294629131492423830928
69,1905.38703831734605782099404069397005,1904.0,1.38703831734605782099404069397005
70,1960.98993952674134863451540551090147,1959.6,1.38993952674134863451540551090147
71,2017.39279948131270714266196185014213,2016.0,1.39279948131270714266196185014213
72,2074.59561933875047302478544421559992,2073.2,1.39561933875047302478544421559992
73,2132.59840020866179636620822982715808,2131.2,1.39840020866179636620822982715808
74,2191.40114315519826063237228954306271,2190.0,1.40114315519826063237228954306271
75,2251.00384919950636469323609877700782,2249.6,1.40384919950636469323609877700782
76,2311.40651932201500955466501395075811,2310.0,1.40651932201500955466501395075811
77,2372.60915446457283305514257711765756,2371.2,1.40915446457283305514257711765756
78,2434.61175553244706998794996957996875,2433.2,1.41175553244706998794996957996875
79,2497.41432339619456828896854014430317,2496.0,1.41432339619456828896854014430317
80,2561.01685889341465380461585534206389,2559.6,1.41685889341465380461585534206389
81,2625.41936283039268681294914683479810,2624.0,1.41936283039268681294914683479810
82,2690.62183598364239202041640916808178,2689.2,1.42183598364239202041640916808178
83,2756.62427910135435502294573771838651,2755.2,1.42427910135435502294573771838651
84,2823.42669290475745392834733422539300,2822.0,1.42669290475745392834733422539300
85,2891.02907808939943556082891234225149,2889.6,1.42907808939943556082891234225149
86,2959.43143532635232980303580922936576,2958.0,1.43143532635232980303580922936576
87,3028.63376526334793816022734380027382,3027.2,1.43376526334793816022734380027382
88,3098.63606852584820925346511009536414,3097.2,1.43606852584820925346511009536414
89,3169.43834571805493044652742431409424,3168.0,1.43834571805493044652742431409424
90,3241.04059742386282159453484198776719,3239.6,1.44059742386282159453484198776719
91,3313.44282420775979545022098158565433,3312.0,1.44282420775979545022098158565433
92,3386.64502661567786096624365927218186,3385.2,1.44502661567786096624365927218186
93,3460.64720517579788347687576912365647,3459.2,1.44720517579788347687576912365647
94,3535.44936039931117281367719898684982,3534.0,1.44936039931117281367719898684982
95,3611.05149278114064925572005508976537,3609.6,1.45149278114064925572005508976537
96,3687.45360280062413539282296376015605,3686.0,1.45360280062413539282296376015605
97,3764.65569092216213763814078318307955,3763.2,1.45569092216213763814078318307955
98,3842.65775759583230825216106644904132,3841.2,1.45775759583230825216106644904132
99,3921.45980325797262526796978746568176,3920.0,1.45980325797262526796978746568176
100,4001.06182833173518136723252023569921,3999.6,1.46182833173518136723252023569921
101,4081.46383322761234345218291439427716,4080.0,1.46383322761234345218291439427716
102,4162.66581834393691908418922415894523,4161.2,1.46581834393691908418922415894523
103,4244.66778406735785804585662125144771,4243.2,1.46778406735785804585662125144771
104,4327.46973077329291001891292029767766,4326.0,1.46973077329291001891292029767766
105,4411.07165882635956629636804690703405,4409.6,1.47165882635956629636804690703405
106,4495.47356858078552268319420298168450,4494.0,1.47356858078552268319420298168450
107,4580.67546038079982265781810891474999,4579.2,1.47546038079982265781810891474999
108,4666.67733456100576062716231073520089,4665.2,1.47733456100576062716231073520089
109,4753.47919144673655651443852459895908,4752.0,1.47919144673655651443852459895908
110,4841.08103135439475049877073691701031,4839.6,1.48103135439475049877073691701031
111,4929.48285459177620086452743094726927,4928.0,1.48285459177620086452743094726927
112,5018.68466145837951848460877416356905,5017.2,1.48466145837951848460877416356905
113,5108.68645224570171592614049118989113,5107.2,1.48645224570171592614049118989113
114,5199.48822723752080040926991356786430,5198.0,1.48822723752080040926991356786430
115,5291.08998671016599940125707468403679,5289.6,1.48998671016599940125707468403679
116,5383.49173093277625929640548500394446,5382.0,1.49173093277625929640548500394446
117,5476.69346016754762591937055599317864,5475.2,1.49346016754762591937055599317864
118,5570.69517466997007455827792648216042,5569.2,1.49517466997007455827792648216042
119,5665.49687468905432352036786153247807,5664.0,1.49687468905432352036786153247807
120,5761.09856046754913936064682354644571,5759.6,1.49856046754913936064682354644571
121,5857.50023224214960366678297240549532,5856.0,1.50023224214960366678297240549532
122,5954.70189024369679237034984035279228,5953.2,1.50189024369679237034984035279228
123,6052.70353469736928636159022853198920,6051.2,1.50353469736928636159022853198920
124,6151.50516582286691450506381406884174,6150.0,1.50516582286691450506381406884174
125,6251.10678383458710058727884285053772,6249.6,1.50678383458710058727884285053772
126,6351.50838894179417053011078965396860,6350.0,1.50838894179417053011078965396860
127,6452.70998134878195562592436645188629,6451.2,1.50998134878195562592436645188629
128,6554.71156125503000496312555195007288,6553.2,1.51156125503000496312555195007288
129,6657.51312885535370813763202330962437,6656.0,1.51312885535370813763202330962437
130,6761.11468434004861096388331988406056,6759.6,1.51468434004861096388331988406056
131,6865.51622789502919149489380322374840,6864.0,1.51622789502919149489380322374840
132,6970.71775970196234868365103806033758,6969.2,1.51775970196234868365103806033758
133,7076.71927993839584423657771752975678,7075.2,1.51927993839584423657771752975678
134,7183.52078877788192693381702100256125,7182.0,1.52078877788192693381702100256125
135,7291.12228639009635058275849888792173,7289.6,1.52228639009635058275849888792173
136,7399.52377294095299308369112385693303,7398.0,1.52377294095299308369112385693303
137,7508.72524859271427077852696019263619,7507.2,1.52524859271427077852696019263619
138,7618.72671350409752864154791534471242,7617.2,1.52671350409752864154791534471242
139,7729.52816783037758476522278664044212,7728.0,1.52816783037758476522278664044212
140,7841.12961172348559214817327053593909,7839.6,1.52961172348559214817327053593909
141,7953.53104533210437623487785697212149,7952.0,1.53104533210437623487785697212149
142,8066.73246880176039858343541404566919,8065.2,1.53246880176039858343541404566919
143,8180.73388227491248838754093602149710,8179.2,1.53388227491248838754093602149710
144,8295.53528589103747639918918924054195,8294.0,1.53528589103747639918918924054195
145,8411.13667978671286161086248354038453,8409.6,1.53667978671286161086248354038453
146,8527.53806409569663318720836496814221,8526.0,1.53806409569663318720836496814221
147,8644.73943894900436193324677625391221,8643.2,1.53943894900436193324677625391221
148,8762.74080447498367662811290510846981,8761.2,1.54080447498367662811290510846981
149,8881.54216079938622702526785094714644,8880.0,1.54216079938622702526785094714644
150,9001.14350804543723716003177839775336,8999.6,1.54350804543723716003177839775336
151,9121.54484633390274487867097195919621,9120.0,1.54484633390274487867097195919621
152,9242.74617578315461788818489126354757,9241.2,1.54617578315461788818489126354757
153,9364.74749650923343527646333215819003,9363.2,1.54749650923343527646333215819003
154,9487.54880862590931840203135878597379,9486.0,1.54880862590931840203135878597379
155,9611.15011224474078938935018346617003,9609.6,1.55011224474078938935018346617003
156,9735.55140747513173509601217897071499,9734.0,1.55140747513173509601217897071499
157,9860.75269442438654759840773516620272,9859.2,1.55269442438654759840773516620272
158,9986.75397319776351301393982638832189,9985.2,1.55397319776351301393982638832189
159,10113.5552438985265123325937858680140,10112.0,1.5552438985265123325937858680140
160,10241.1565066279951005953742149686919,10239.6,1.5565066279951005953742149686919
161,10369.5577614855930229157022378833431,10368.0,1.5577614855930229157022378833431
162,10498.7590085688952268048467216673022,10497.2,1.5590085688952268048467216673022
163,10628.7602479736734256546609077588702,10627.2,1.5602479736734256546609077588702
164,10759.5614797939402680141919613018442,10758.0,1.5614797939402680141919613018442
165,10891.1627041219921612603532346285552,10889.6,1.5627041219921612603532346285552
166,11023.5639210484508001782202663411082,11022.0,1.5639210484508001782202663411082
167,11156.7651306623034476832423250919214,11155.2,1.5651306623034476832423250919214
168,11290.7663330509420103742555322773826,11289.2,1.5663330509420103742555322773826
169,11425.5675283002009539793601748342395,11424.0,1.5675283002009539793601748342395
170,11561.1687164943940984377507346414665,11559.6,1.5687164943940984377507346414665
171,11697.5698977163503328119314079689487,11696.0,1.5698977163503328119314079689487
172,11834.7710720474482878969477845558079,11833.2,1.5710720474482878969477845558079
173,11972.7722395676500019289376232290473,11971.2,1.5722395676500019289376232290473
174,12111.5734003555336152364872870035124,12110.0,1.5734003555336152364872870035124
175,12251.1745544883251278196993483331178,12249.6,1.5745544883251278196993483331178
176,12391.5757020419292495632964475690017,12390.0,1.5757020419292495632964475690017
177,12532.7768430909593763442715443825480,12531.2,1.5768430909593763442715443825480
178,12674.7779777087667211884530719049333,12673.2,1.5779777087667211884530719049333
179,12817.5791059674686269209034212682609,12816.0,1.5791059674686269209034212682609
180,12961.1802279379760912565219961086845,12959.6,1.5802279379760912565219961086845
181,13105.5813436900205269794116315418509,13104.0,1.5813436900205269794116315418509
182,13250.7824532921797849063660677298985,13249.2,1.5824532921797849063660677298985
183,13396.7835568119034626837249948457398,13395.2,1.5835568119034626837249948457398
184,13543.5846543155375236591050219879869,13542.0,1.5846543155375236591050219879869
185,13691.1857458683482476361024908754279,13689.6,1.5857458683482476361024908754279
186,13839.5868315345455344805594548232159,13838.0,1.5868315345455344805594548232159
187,13988.7879113773055843788628217981574,13987.2,1.5879113773055843788628217981574
188,14138.7889854587929701845630732098551,14137.2,1.5889854587929701845630732098551
189,14289.5900538401821255843723491347324,14288.0,1.5900538401821255843723491347324
190,14441.1911165816782647345885914368291,14439.6,1.5911165816782647345885914368291
191,14593.5921737425377525904661681634953,14592.0,1.5921737425377525904661681634953
192,14746.7932253810879423107040029496846,14745.2,1.5932253810879423107040029496846
193,14900.7942715547464980408665222676831,14899.2,1.5942715547464980408665222676831
194,15055.5953123200402164164869076564591,15054.0,1.5953123200402164164869076564591
195,15211.1963477326233647181776518085026,15209.6,1.5963477326233647181776518085026
196,15367.5973778472955493706141895559632,15366.0,1.5973778472955493706141895559632
197,15524.7984027180191291606777405470434,15523.2,1.5984027180191291606777405470434
198,15682.7994223979361873367016997532968,15681.2,1.5994223979361873367016997532968
199,15841.6004369393850754226401903313896,15840.0,1.6004369393850754226401903313896
200,16001.2014463939165426873228274990724,15999.6,1.6014463939165426873228274990724
201,16161.6024508123094622451775305351913,16160.0,1.6024508123094622451775305351913
202,16322.8034502445861671645363191577442,16321.2,1.6034502445861671645363191577442
203,16484.8044447400274072382088945769544,16483.2,1.6044447400274072382088945769544
204,16647.6054343471869380311891369792253,16646.0,1.6054343471869380311891369792253
205,16811.2064191139057521708096174194702,16809.6,1.6064191139057521708096174194702
206,16975.6073990873259658980445892039317,16974.0,1.6073990873259658980445892039317
207,17140.8083743139043667505902093974606,17139.2,1.6083743139043667505902093974606
208,17306.8093448394256365991300771477027,17305.2,1.6093448394256365991300771477027
209,17473.6103107090152557796172587567339,17472.0,1.6103107090152557796172587567339
210,17641.2112719671520998171751302625340,17639.6,1.6112719671520998171751302625340
211,17809.6122286576807361005771660376330,17808.0,1.6122286576807361005771660376330
212,17978.8131808238234307344312528994317,17977.2,1.6131808238234307344312528994317
213,18148.8141285081918699469602023681324,18147.2,1.6141285081918699469602023681324
214,18319.6150717527986110290655490439282,18318.0,1.6150717527986110290655490439282
215,18491.2160105990682620109030986051899,18489.6,1.6160105990682620109030986051899
216,18663.6169450878484040304244712082895,18662.0,1.6169450878484040304244712082895
217,18836.8178752594202603529238501975011,18835.2,1.6178752594202603529238501975011
218,19010.8188011535091210140365669126022,19009.2,1.6188011535091210140365669126022
219,19185.6197228092945263591225247468329,19184.0,1.6197228092945263591225247468329
220,19361.2206402654202219871586413810797,19359.6,1.6206402654202219871586413810797
221,19537.6215535600038830014270844026575,19536.0,1.6215535600038830014270844026575
222,19714.8224627306466247643613321445101,19713.2,1.6224627306466247643613321445101
223,19892.8233678144422937173776768902440,19891.2,1.6233678144422937173776768902440
224,20071.6242688479865533249869652113543,20070.0,1.6242688479865533249869652113543
225,20251.2251658673857676997256337897925,20249.6,1.6251658673857676997256337897925
226,20431.6260589082656864458431632057616,20430.0,1.6260589082656864458431632057616
227,20612.8269480057799393645886771610012,20611.2,1.6269480057799393645886771610012
228,20794.8278331946183428312927279930304,20793.2,1.6278331946183428312927279930304
229,20977.6287145090150249963836256085653,20976.0,1.6287145090150249963836256085653
230,21161.2295919827563744965712930414328,21159.6,1.6295919827563744965712930414328
231,21345.6304656491888144654574056366928,21344.0,1.6304656491888144654574056366928
232,21530.8313355412264122524810291168647,21529.2,1.6313355412264122524810291168647
233,21716.8322016913583198356923411702756,21715.2,1.6322016913583198356923411702756
234,21903.6330641316560610744087626849024,21902.0,1.6330641316560610744087626849024
235,22091.2339228937806589728412633461740,22089.6,1.6339228937806589728412633461740
236,22279.6347780089896126534473449777142,22278.0,1.6347780089896126534473449777142
237,22468.8356295081437276601252664426938,22467.2,1.6356295081437276601252664426938
238,22658.8364774217138013222481357363870,22657.2,1.6364774217138013222481357363870
