Eigenstate,Energy,Kinetic Energy,Potential Energy
1,0.500000000319258895623711369481250333,0.0,0.500000000319258895623711369481250333
2,1.84623093973509345522316323192704462,1.2,0.64623093973509345522316323192704462
3,3.93633761582660070238736601548771828,3.2,0.73633761582660070238736601548771828
4,6.79966529056518573988963777362661793,6.0,0.79966529056518573988963777362661793
5,10.4480465973735995276797560511138546,9.6,0.8480465973735995276797560511138546
6,14.8870660310505906836645288276538968,14.0,0.8870660310505906836645288276538968
7,20.1197208730553433751365124045900528,19.2,0.9197208730553433751365124045900528
8,26.1477839097762620446174988891695368,25.2,0.9477839097762620446174988891695368
9,32.9723836402266976565731977248290907,32.0,0.9723836402266976565731977248290907
10,40.5942803185601185532452120127070830,39.6,0.9942803185601185532452120127070830
11,49.0140095149213261813975347949732340,48.0,1.0140095149213261813975347949732340
12,58.2319623246181099720990335924210202,57.2,1.0319623246181099720990335924210202
13,68.2484328777191241014019098872246470,67.2,1.0484328777191241014019098872246470
14,79.0636478719102131205810496289946618,78.0,1.0636478719102131205810496289946618
15,90.6777856883086959479355586884923609,89.6,1.0777856883086959479355586884923609
16,103.090989196333873364145286044655960,102.0,1.090989196333873364145286044655960
17,116.303374587168573167798639867550354,115.2,1.103374587168573167798639867550354
18,130.315037624765377212848377430092107,129.2,1.115037624765377212848377430092107
19,145.126058168950618201795439109799304,144.0,1.126058168950618201795439109799304
20,160.736503513058329815212705692910886,159.6,1.136503513058329815212705692910886
21,177.146430890011953897255588306168114,176.0,1.146430890011953897255588306168114
22,194.355889383483088074053884395992654,193.2,1.155889383483088074053884395992654
23,212.364921405828016132058378394808657,211.2,1.164921405828016132058378394808657
24,231.173563855488134648383125265582266,230.0,1.173563855488134648383125265582266
25,250.781849033785882950877415064290361,249.6,1.181849033785882950877415064290361
26,271.189805378732333777872437684992340,270.0,1.189805378732333777872437684992340
27,292.397458057989771535898335329624964,291.2,1.197458057989771535898335329624964
28,314.404829452230734196590148273082276,313.2,1.204829452230734196590148273082276
29,337.211939552339967019316667748654488,336.0,1.211939552339967019316667748654488
30,360.818806288256248693458979661621602,359.6,1.218806288256248693458979661621602
31,385.225445803105111977581310027764505,384.0,1.225445803105111977581310027764505
32,410.431872683195581316030176703608086,409.2,1.231872683195581316030176703608086
33,436.438100152144402100623080102810567,435.2,1.238100152144402100623080102810567
34,463.244140235640689972481392028020286,462.0,1.244140235640689972481392028020286
35,490.850003902024733488560552928635278,489.6,1.250003902024733488560552928635278
36,519.255701182821204595271307808762371,518.0,1.255701182821204595271307808762371
37,548.461241276562946800333955691696321,547.2,1.261241276562946800333955691696321
38,578.466632638611092188772314625935392,577.2,1.266632638611092188772314625935392
39,609.271883059179409777821879962126057,608.0,1.271883059179409777821879962126057
40,640.876999731374966920726266093423825,639.6,1.276999731374966920726266093423825
41,673.281989310750435194691783662185219,672.0,1.281989310750435194691783662185219
42,706.486857967608379605990465778699985,705.2,1.286857967608379605990465778699985
43,740.491611433091383599671571517535869,739.2,1.291611433091383599671571517535869
44,775.296255039923768345347452165570433,774.0,1.296255039923768345347452165570433
45,810.900793758533095201131166728394560,809.6,1.300793758533095201131166728394560
46,847.305232229166503974894245153053080,846.0,1.305232229166503974894245153053080
47,884.509574790523462989426034502376932,883.2,1.309574790523462989426034502376932
48,922.513825505348920593621705320463326,921.2,1.313825505348920593621705320463326
49,961.317988183366185217760567821080017,960.0,1.317988183366185217760567821080017
50,1000.92206640187473835714529491177996,999.6,1.32206640187473835714529491177996
51,1041.32606352429271790578842428469548,1040.0,1.32606352429271790578842428469548
52,1082.52998271688546404743955100687539,1081.2,1.32998271688546404743955100687539
53,1124.53382696388906979262527852494240,1123.2,1.33382696388906979262527852494240
54,1167.33759908121031711885583026178711,1166.0,1.33759908121031711885583026178711
55,1210.94130172886090417858876176116203,1209.6,1.34130172886090417858876176116203
56,1255.34493742226379446937386605095353,1254.0,1.34493742226379446937386605095353
57,1300.54850854255231989544945418039114,1299.2,1.34850854255231989544945418039114
58,1346.55201734596787246374348648448144,1345.2,1.35201734596787246374348648448144
59,1393.35546597244926540993336150124056,1392.0,1.35546597244926540993336150124056
60,1440.95885645349582004250040351716376,1439.6,1.35885645349582004250040351716376
61,1489.36219071937667036519618712072533,1488.0,1.36219071937667036519618712072533
62,1538.56547060575047653321436002290794,1537.2,1.36547060575047653321436002290794
63,1588.56869785975249630933292289949017,1587.2,1.36869785975249630933292289949017
64,1639.37187414559965120636547578088609,1638.0,1.37187414559965120636547578088609
65,1690.97500104975868916228488743269886,1689.6,1.37500104975868916228488743269886
66,1743.37808008571769825532609849714690,1742.0,1.37808008571769825532609849714690
67,1796.58111269839696367505105278224762,1795.2,1.38111269839696367505105278224762
68,1850.58410026823140400455073401686404,1849.2,1.38410026823140400455073401686404
69,1905.38704411495351019823839409229667,1904.0,1.38704411495351019823839409229667
70,1960.98994550110278237142372702830086,1959.6,1.38994550110278237142372702830086
71,2017.39280563528506081413787359697195,2016.0,1.39280563528506081413787359697195
72,2074.59562567520284939929929473178312,2073.2,1.39562567520284939929929473178312
73,2132.59840673047567654892002244624930,2131.2,1.39840673047567654892002244624930
74,2191.40114986526772007350188456991884,2190.0,1.40114986526772007350188456991884
75,2251.00385610073829109868131499454019,2249.6,1.40385610073829109868131499454019
76,2311.40652641732932273643236152702516,2310.0,1.40652641732932273643236152702516
77,2372.60916175690270675973132251264293,2371.2,1.40916175690270675973132251264293
78,2434.61176302473915574141563533043375,2433.2,1.41176302473915574141563533043375
79,2497.41433109140922129798804000856533,2496.0,1.41433109140922129798804000856533
80,2561.01686679452616095348308634203652,2559.6,1.41686679452616095348308634203652
81,2625.41937094038949679705059979112045,2624.0,1.41937094038949679705059979112045
82,2690.62184430552734765736681021884908,2689.2,1.42184430552734765736681021884908
83,2756.62428763814492778320818010536140,2755.2,1.42428763814492778320818010536140
84,2823.42670165948598072782015426517655,2822.0,1.42670165948598072782015426517655
85,2891.02908706511335785855229149182368,2889.6,1.42908706511335785855229149182368
86,2959.43144452611443504785570798724390,2958.0,1.43144452611443504785570798724390
87,3028.63377469023660363095505300954932,3027.2,1.43377469023660363095505300954932
88,3098.63607818295764833778398541448181,3097.2,1.43607818295764833778398541448181
89,3169.43835560849544140462881610026433,3168.0,1.43835560849544140462881610026433
90,3241.04060755076103885420995039702853,3239.6,1.44060755076103885420995039702853
91,3313.44283457425894348089831433065782,3312.0,1.44283457425894348089831433065782
92,3386.64503722493801078023858528202058,3385.2,1.44503722493801078023858528202058
93,3460.64721603099621180691513481176523,3459.2,1.44721603099621180691513481176523
94,3535.44937150364222401657409897438005,3534.0,1.44937150364222401657409897438005
95,3611.05150413781659999290516112709213,3609.6,1.45150413781659999290516112709213
96,3687.45361441287506213928703285312644,3686.0,1.45361441287506213928703285312644
97,3764.65570279323628707221264595047831,3763.2,1.45570279323628707221264595047831
98,3842.65776972899637057943053914786712,3841.2,1.45776972899637057943053914786712
99,3921.45981565651201053357433316720479,3920.0,1.45981565651201053357433316720479
100,4001.06184099895429881165209320115683,3999.6,1.46184099895429881165209320115683
101,4081.46384616683488396663699775982055,4080.0,1.46384616683488396663699775982055
102,4162.66583155850614082269898753157871,4161.2,1.46583155850614082269898753157871
103,4244.66779756063687525202600841675993,4243.2,1.46779756063687525202600841675993
104,4327.46974454866498512649799010576310,4326.0,1.46974454866498512649799010576310
105,4411.07167288722840536373873806538948,4409.6,1.47167288722840536373873806538948
106,4495.47358293057557422285371668032643,4494.0,1.47358293057557422285371668032643
107,4580.67547502295657992322945228381760,4579.2,1.47547502295657992322945228381760
108,4666.67734949899606742023981401159742,4665.2,1.47734949899606742023981401159742
109,4753.47920668404891657819713570309389,4752.0,1.47920668404891657819713570309389
110,4841.08104689453964056078493045212706,4839.6,1.48104689453964056078493045212706
111,4929.48287043828638739803892700068178,4928.0,1.48287043828638739803892700068178
112,5018.68467761481037825533567925791366,5017.2,1.48467761481037825533567925791366
113,5108.68646871563156039408146028199484,5107.2,1.48646871563156039408146028199484
114,5199.48824402455120405606780287880321,5198.0,1.48824402455120405606780287880321
115,5291.09000381792213205498553197980244,5289.6,1.49000381792213205498553197980244
116,5383.49174836490722252697073619122804,5382.0,1.49174836490722252697073619122804
117,5476.69347792772679357908149864108941,5475.2,1.49347792772679357908149864108941
118,5570.69519276189543754352821514099783,5569.2,1.49519276189543754352821514099783
119,5665.49689311644883883179820604385684,5664.0,1.49689311644883883179820604385684
120,5761.09857923416108354061119456553882,5759.6,1.49857923416108354061119456553882
121,5857.50025135175293069443500875139114,5856.0,1.50025135175293069443500875139114
122,5954.70190970009149609619003732300427,5953.2,1.50190970009149609619003732300427
123,6052.70355450438176756487605520184423,6051.2,1.50355450438176756487605520184423
124,6151.50518598435035265908187340972989,6150.0,1.50518598435035265908187340972989
125,6251.10680435442183041911473225409622,6249.6,1.50680435442183041911473225409622
126,6351.50840982388806346322549272344620,6350.0,1.50840982388806346322549272344620
127,6452.71000259707080619555889247988614,6451.2,1.51000259707080619555889247988614
128,6554.71158287347792229630944643608310,6553.2,1.51158287347792229630944643608310
129,6657.51315084795351259136726001551088,6656.0,1.51315084795351259136726001551088
130,6761.11470671082223601691111943954447,6759.6,1.51470671082223601691111943954447
131,6865.51625064802809099033531303360743,6864.0,1.51625064802809099033531303360743
132,6970.71778284126790952173934971251271,6969.2,1.51778284126790952173934971251271
133,7076.71930346811980461866797856019489,7075.2,1.51930346811980461866797856019489
134,7183.52081270216680026088585830884046,7182.0,1.52081270216680026088585830884046
135,7291.12231071311585511366823560431340,7289.6,1.52231071311585511366823560431340
136,7399.52379766691248746061372502489346,7398.0,1.52379766691248746061372502489346
137,7508.72527372585119552909226835737159,7507.2,1.52527372585119552909226835737159
138,7618.72673904868185376950114456419930,7617.2,1.52673904868185376950114456419930
139,7729.52819379071226354365203416480194,7728.0,1.52819379071226354365203416480194
140,7841.12963810390702123169995364707937,7839.6,1.52963810390702123169995364707937
141,7953.53107213698286220958687355847438,7952.0,1.53107213698286220958687355847438
142,8066.73249603550063107577208177614177,8065.2,1.53249603550063107577208177614177
143,8180.73390994195401985590474869678354,8179.2,1.53390994195401985590474869678354
144,8295.53531399585520873452265775644173,8294.0,1.53531399585520873452265775644173
145,8411.13670833381753967516336698133456,8409.6,1.53670833381753967516336698133456
146,8527.53809308963534542159056724708192,8526.0,1.53809308963534542159056724708192
147,8644.73946839436104816993596806558210,8643.2,1.53946839436104816993596806558210
148,8762.74083437637964324359386220852053,8761.2,1.54083437637964324359386220852053
149,8881.54219116148066957470441805984417,8880.0,1.54219116148066957470441805984417
150,9001.14353887292777063604908978720149,8999.6,1.54353887292777063604908978720149
151,9121.54487763152594174064417219453000,9120.0,1.54487763152594174064417219453000
152,9242.74620755568655401129867778577934,9241.2,1.54620755568655401129867778577934
153,9364.74752876149024397301207437673965,9363.2,1.54752876149024397301207437673965
154,9487.54884136274775267071377009009510,9486.0,1.54884136274775267071377009009510
155,9611.15014547105879255167997687760273,9609.6,1.55014547105879255167997687760273
156,9735.55144119586901998242058717858265,9734.0,1.55144119586901998242058717858265
157,9860.75272864452518445015211541150478,9859.2,1.55272864452518445015211541150478
158,9986.75400792232852627056797576681621,9985.2,1.55400792232852627056797576681621
159,10113.5552791325864864784343672568910,10112.0,1.5552791325864864784343672568910
160,10241.1565423766627952423478095299018,10239.6,1.5565423766627952423478095299018
161,10369.5577977540259973036637618978313,10368.0,1.5577977540259973036637618978313
162,10498.7590453622964739046928208328426,10497.2,1.5590453622964739046928208328426
163,10628.7602852972920160635572763081331,10627.2,1.5602852972920160635572763081331
164,10759.5615176530720038365108554247372,10758.0,1.5615176530720038365108554247372
165,10891.1627425219802401722528707179313,10889.6,1.5627425219802401722528707179313
166,11023.5639599946864898782521254391623,11022.0,1.5639599946864898782521254391623
167,11156.7651701602267709359476044618933,11155.2,1.5651701602267709359476044618933
168,11290.7663731060424408584062177314354,11289.2,1.5663731060424408584062177314354
169,11425.5675689180181231573149261070301,11424.0,1.5675689180181231573149261070301
170,11561.1687576805185136673455773939475,11559.6,1.5687576805185136673455773939475
171,11697.5699394764241069273981967629627,11696.0,1.5699394764241069273981967629627
172,11834.7711143871658804905692208921441,11833.2,1.5711143871658804905692208921441
173,11972.7722824927589725704973618029265,11971.2,1.5722824927589725704973618029265
174,12111.5734438718353888730720029579277,12110.0,1.5734438718353888730720029579277
175,12251.1745986016757726040518507346729,12249.6,1.5745986016757726040518507346729
176,12391.5757467582402673647167306097185,12390.0,1.5757467582402673647167306097185
177,12532.7768884161985062020164484025217,12531.2,1.5768884161985062020164484025217
178,12674.7780236489587559737011198007455,12673.2,1.5780236489587559737011198007455
179,12817.5791525286962434796346588941715,12816.0,1.5791525286962434796346588941715
180,12961.1802751263806943121193773511487,12959.6,1.5802751263806943121193773511487
181,13105.5813915118031070804208522759913,13104.0,1.5813915118031070804208522759913
182,13250.7825017536017907116689791053008,13249.2,1.5825017536017907116689791053008
183,13396.7836059192876878843849887535241,13395.2,1.5836059192876878843849887535241
184,13543.5847040752690088433431339175744,13542.0,1.5847040752690088433431339175744
185,13691.1857962868751974112637731092595,13689.6,1.5857962868751974112637731092595
186,13839.5868826183802501735321681039095,13838.0,1.5868826183802501735321681039095
187,13988.7879631330254126442391502434659,13987.2,1.5879631330254126442391502434659
188,14138.7890378930412678578676085868784,14137.2,1.5890378930412678578676085868784
189,14289.5901069596692411259530673860122,14288.0,1.5901069596692411259530673860122
190,14441.1911703931825366182704700533166,14439.6,1.5911703931825366182704700533166
191,14593.5922282529065249998093612376226,14592.0,1.5922282529065249998093612376226
192,14746.7932805972385985147063192898485,14745.2,1.5932805972385985147063192898485
193,14900.7943274836675118302015691068602,14899.2,1.5943274836675118302015691068602
194,15055.5953689687922219908886553529892,15054.0,1.5953689687922219908886553529892
195,15211.1964051083402454253771257659614,15209.6,1.5964051083402454253771257659614
196,15367.5974359571855457073115417403039,15366.0,1.5974359571855457073115417403039
197,15524.7984615693659664564066921368006,15523.2,1.5984615693659664564066921368006
198,15682.7994819981002235521135694924502,15681.2,1.5994819981002235521135694924502
199,15841.6004972958044695047286986081191,15840.0,1.6004972958044695047286986081191
200,16001.2015075141084439354166761258968,15999.6,1.6015075141084439354166761258968
201,16161.6025127038712211531724042449255,16160.0,1.6025127038712211531724042449255
202,16322.8035129151965682168339548435533,16321.2,1.6035129151965682168339548435533
203,16484.8045081974479241491713877206460,16483.2,1.6045081974479241491713877206460
204,16647.6054985992630119306365693697919,16646.0,1.6054985992630119306365693697919
205,16811.2064841685680932511836804750355,16809.6,1.6064841685680932511836804750355
206,16975.6074649525918790523549067084626,16974.0,1.6074649525918790523549067084626
207,17140.8084409978791017441570150208970,17139.2,1.6084409978791017441570150208970
208,17306.8094123503037633324584696636032,17305.2,1.6094123503037633324584696636032
209,17473.6103790550820652144950928077462,17472.0,1.6103790550820652144950928077462
210,17641.2113411567850311532948327009842,17639.6,1.6113411567850311532948327009842
211,17809.6122986993508308056540826674969,17808.0,1.6122986993508308056540826674969
212,17978.8132517260968140469512232373637,17977.2,1.6132517260968140469512232373637
213,18148.8142002797312604873450318759615,18147.2,1.6142002797312604873450318759615
214,18319.6151444023648591722189276413922,18318.0,1.6151444023648591722189276413922
215,18491.2160841355219176908125058729037,18489.6,1.6160841355219176908125058729037
216,18663.6170195201513146657541802208698,18662.0,1.6170195201513146657541802208698
217,18836.8179505966371996013748932261712,18835.2,1.6179505966371996013748932261712
218,19010.8188774048094490826813243659040,19009.2,1.6188774048094490826813243659040
219,19185.6197999839538826179738644106898,19184.0,1.6197999839538826179738644106898
220,19361.2207183728222506539130064588171,19359.6,1.6207183728222506539130064588171
221,19537.6216326096419926866736502033247,19536.0,1.6216326096419926866736502033247
222,19714.8225427321257826885726395518081,19713.2,1.6225427321257826885726395518081
223,19892.8234487774808554337521400174697,19891.2,1.6234487774808554337521400174697
224,20071.6243507824181288056734863199104,20070.0,1.6243507824181288056734863199104
225,20251.2252487831611246672125395141379,20249.6,1.6252487831611246672125395141379
226,20431.6261428154546918563157929734439,20430.0,1.6261428154546918563157929734439
227,20612.8270329145735399759112590173192,20611.2,1.6270329145735399759112590173192
228,20794.8279191153305858149641588907092,20793.2,1.6279191153305858149641588907092
229,20977.6288014520851195804067944398233,20976.0,1.6288014520851195804067944398233
230,21161.2296799587507956546625575607102,21159.6,1.6296799587507956546625575607102
231,21345.6305546688034496974654318915436,21344.0,1.6305546688034496974654318915436
232,21530.8314256152887525313258500931350,21529.2,1.6314256152887525313258500931350
233,21716.8322928308296958275697504092255,21715.2,1.6322928308296958275697504092255
234,21903.6331563476339257715310078292891,21902.0,1.6331563476339257715310078292891
235,22091.2340161975009179115909427041764,22089.6,1.6340161975009179115909427041764
236,22279.6348724118290029255877995952841,22278.0,1.6348724118290029255877995952841
237,22468.8357250216222469606471069331760,22467.2,1.6357250216222469606471069331760
238,22658.8365740574971883146227094994979,22657.2,1.6365740574971883146227094994979
