Eigenstate,Energy,Kinetic Energy,Potential Energy
1,0.500000000014170701380792517512371190,0.0,0.500000000014170701380792517512371190
2,1.84623093774361355665791119033449227,1.2,0.64623093774361355665791119033449227
3,3.93633760997668356348408210151696962,3.2,0.73633760997668356348408210151696962
4,6.79966527838017487132768440925161840,6.0,0.79966527838017487132768440925161840
5,10.4480465762660018310052574669778173,9.6,0.8480465762660018310052574669778173
6,14.8870659983872069364592022200835816,14.0,0.8870659983872069364592022200835816
7,20.1197208261811998425469382301087693,19.2,0.9197208261811998425469382301087693
8,26.1477838460245299880073800661240420,25.2,0.9477838460245299880073800661240420
9,32.9723835569232498652045833990350042,32.0,0.9723835569232498652045833990350042
10,40.5942802130257902934577461602554457,39.6,0.9942802130257902934577461602554457
11,49.0140093844730953892069116525108296,48.0,1.0140093844730953892069116525108296
12,58.2319621665697266062958557692440375,57.2,1.0319621665697266062958557692440375
13,68.2484326893814395135670061086622999,67.2,1.0484326893814395135670061086622999
14,79.0636476505913366786021829142975848,78.0,1.0636476505913366786021829142975848
15,90.6777854313140473373314794481817309,89.6,1.0777854313140473373314794481817309
16,103.090988900966169250178374892348166,102.0,1.090988900966169250178374892348166
17,116.303374250727771049450260419987798,115.2,1.103374250727771049450260419987798
18,130.315037244548590456556990358921490,129.2,1.115037244548590456556990358921490
19,145.126057742252011108961907564519621,144.0,1.126057742252011108961907564519621
20,160.736503037168998490542860198665743,159.6,1.136503037168998490542860198665743
21,177.146430362219796770244791929651873,176.0,1.146430362219796770244791929651873
22,194.355888801072668704825208484381377,193.2,1.155888801072668704825208484381377
23,212.364920766080420134433806697721372,211.2,1.164920766080420134433806697721372
24,231.173563155680822029295919160934315,230.0,1.173563155680822029295919160934315
25,250.781848271192536801027266223047590,249.6,1.181848271192536801027266223047590
26,271.189804550622705995382291682200061,270.0,1.189804550622705995382291682200061
27,292.397457161629526085786601519842261,291.2,1.197457161629526085786601519842261
28,314.404828484881288280400523023643264,313.2,1.204828484881288280400523023643264
29,337.211938511258330435686178744863643,336.0,1.211938511258330435686178744863643
30,360.818805170694861601360147260676980,359.6,1.218805170694861601360147260676980
31,385.225444606311681222391989887345169,384.0,1.225444606311681222391989887345169
32,410.431871404412915439604152724562411,409.2,1.231871404412915439604152724562411
33,436.438098788610245126758092202778238,435.2,1.238098788610245126758092202778238
34,463.244138784587554036204687051041861,462.0,1.244138784587554036204687051041861
35,490.850002360679730359750277043971849,489.6,1.250002360679730359750277043971849
36,519.255699548405876133057398257339380,518.0,1.255699548405876133057398257339380
37,548.461239546293094363556934077632056,547.2,1.261239546293094363556934077632056
38,578.466630809696605018847273107917033,577.2,1.266630809696605018847273107917033
39,609.271881128824092363150550210233742,608.0,1.271881128824092363150550210233742
40,640.876997696776365345941298055909566,639.6,1.276997696776365345941298055909566
41,673.281987169099662473214988491643721,672.0,1.281987169099662473214988491643721
42,706.486855716089939990417917469150093,705.2,1.286855716089939990417917469150093
43,740.491609068882995861192125620409853,739.2,1.291609068882995861192125620409853
44,775.296252560196188010624920876156075,774.0,1.296252560196188010624920876156075
45,810.900791160449935732728696589625906,809.6,1.300791160449935732728696589625906
46,847.305229509884056879310905872105303,846.0,1.305229509884056879310905872105303
47,884.509571947190516835085729968749373,883.2,1.309571947190516835085729968749373
48,922.513822535106578919650217703565078,921.2,1.313822535106578919650217703565078
49,961.317985083347683313067443708389163,960.0,1.317985083347683313067443708389163
50,1000.92206316920525888815960538308871,999.6,1.32206316920525888815960538308871
51,1041.32606015608920537015293207188507,1040.0,1.32606015608920537015293207188507
52,1082.52997921025643803002652548796937,1081.2,1.32997921025643803002652548796937
53,1124.53382331593443699937936038203534,1123.2,1.33382331593443699937936038203534
54,1167.33759528902118216318039141280850,1166.0,1.33759528902118216318039141280850
55,1210.94129778951937909426070279919864,1209.6,1.34129778951937909426070279919864
56,1255.34493333284280692328642490019205,1254.0,1.34493333284280692328642490019205
57,1300.54850430011542007283636370867776,1299.2,1.34850430011542007283636370867776
58,1346.55201294756903859792094492883313,1345.2,1.35201294756903859792094492883313
59,1393.35546141513270792800706691772014,1392.0,1.35546141513270792800706691772014
60,1440.95885173429578429791383433795804,1439.6,1.35885173429578429791383433795804
61,1489.36218583531723792744188693346976,1488.0,1.36218583531723792744188693346976
62,1538.56546555384536500448753749103064,1537.2,1.36546555384536500448753749103064
63,1588.56869263700485763737410917464326,1587.2,1.36869263700485763737410917464326
64,1639.37186874900186846221226652086751,1638.0,1.37186874900186846221226652086751
65,1690.97499547629217175112955376204130,1689.6,1.37499547629217175112955376204130
66,1743.37807433235267552815644957061337,1742.0,1.37807433235267552815644957061337
67,1796.58110676209227690823136407143287,1795.2,1.38110676209227690823136407143287
68,1850.58409414593429671397931010604997,1849.2,1.38409414593429671397931010604997
69,1905.38703780359941675419288250205532,1904.0,1.38703780359941675419288250205532
70,1960.98993899761511487968088451574717,1959.6,1.38993899761511487968088451574717
71,2017.39279893657499422841921043138748,2016.0,1.39279893657499422841921043138748
72,2074.59561877816910482955939637926785,2073.2,1.39561877816910482955939637926785
73,2132.59839963200430272944704177533208,2131.2,1.39839963200430272944704177533208
74,2191.40114256223187295424997292230692,2190.0,1.40114256223187295424997292230692
75,2251.00384858999801152269326669007724,2249.6,1.40384858999801152269326669007724
76,2311.40651869573131216564329931892724,2310.0,1.40651869573131216564329931892724
77,2372.60915382128010101086508035260142,2371.2,1.40915382128010101086508035260142
78,2434.61175487191129669309713949229144,2433.2,1.41175487191129669309713949229144
79,2497.41432271818142652959614119417484,2496.0,1.41432271818142652959614119417484
80,2561.01685819768949127565913135554612,2559.6,1.41685819768949127565913135554612
81,2625.41936211672052163315478697971956,2624.0,1.41936211672052163315478697971956
82,2690.62183525178790823454164880823292,2689.2,1.42183525178790823454164880823292
83,2756.62427835108189809106175564057336,2755.2,1.42427835108189809106175564057336
84,2823.42669213583102620208202071308175,2822.0,1.42669213583102620208202071308175
85,2891.02907730158269174638205782393845,2889.6,1.42907730158269174638205782393845
86,2959.43143451940857241079795148711945,2958.0,1.43143451940857241079795148711945
87,3028.63376443704011294083157177410402,3027.2,1.43376443704011294083157177410402
88,3098.63606767993890062009942458511001,3097.2,1.43606767993890062009942458511001
89,3169.43834485230635688333354908460219,3168.0,1.43834485230635688333354908460219
90,3241.04059653803683105091772268939705,3239.6,1.44059653803683105091772268939705
91,3313.44282330161786072089155663795703,3312.0,1.44282330161786072089155663795703
92,3386.64502568898107505681597729777873,3385.2,1.44502568898107505681597729777873
93,3460.64720422830695495483796190490612,3459.2,1.44720422830695495483796190490612
94,3535.44935943078642114455431308082060,3534.0,1.44935943078642114455431308082060
95,3611.05149179134200012424525558248460,3609.6,1.45149179134200012424525558248460
96,3687.45360178931111600893224105649440,3686.0,1.45360178931111600893224105649440
97,3764.65568988909387202760471179182620,3763.2,1.45568988909387202760471179182620
98,3842.65775654076751253166593440009782,3841.2,1.45775654076751253166593440009782
99,3921.45980218066960290445882330794387,3920.0,1.45980218066960290445882330794387
100,4001.06182723195181842131668770533823,3999.6,1.46182723195181842131668770533823
101,4081.46383210510610380542929473036857,4080.0,1.46383210510610380542929473036857
102,4162.66581719846483965009361377117017,4161.2,1.46581719846483965009361377117017
103,4244.66778289867654396430571856039229,4243.2,1.46778289867654396430571856039229
104,4327.46972958115852983393987865316666,4326.0,1.46972958115852983393987865316666
105,4411.07165761052784711700404602448247,4409.6,1.47165761052784711700404602448247
106,4495.47356734101174532721717534531262,4494.0,1.47356734101174532721717534531262
107,4580.67545911683881677819842191789578,4579.2,1.47545911683881677819842191789578
108,4666.67733327261189982100389264117425,4665.2,1.47733327261189982100389264117425
109,4753.47919013366375341421243554209910,4752.0,1.47919013366375341421243554209910
110,4841.08103001639645184563692547695805,4839.6,1.48103001639645184563692547695805
111,4929.48285322860538256353896095805675,4928.0,1.48285322860538256353896095805675
112,5018.68466006978868064159142561671197,5017.2,1.48466006978868064159142561671197
113,5108.68645083144287786603929012315617,5107.2,1.48645083144287786603929012315617
114,5199.48822579734549567575268461107746,5198.0,1.48822579734549567575268461107746
115,5291.08998524382527073736370974985465,5289.6,1.48998524382527073736370974985465
116,5383.49172944002065360603023620379245,5382.0,1.49172944002065360603023620379245
117,5476.69345864812718920936316102102732,5475.2,1.49345864812718920936316102102732
118,5570.69517312363434686094803430678783,5569.2,1.49517312363434686094803430678783
119,5665.49687311555233379617568163224532,5664.0,1.49687311555233379617568163224532
120,5761.09855886662940038086142843343803,5759.6,1.49855886662940038086142843343803
121,5857.50023061356010687588835694370003,5856.0,1.50023061356010687588835694370003
122,5954.70188858718500272797719092080087,5953.2,1.50188858718500272797719092080087
123,6052.70353301268213716375343602570193,6051.2,1.50353301268213716375343602570193
124,6151.50516410975080218447373833415290,6150.0,1.50516410975080218447373833415290
125,6251.10678209278787949251030042536381,6249.6,1.50678209278787949251030042536381
126,6351.50838717105714768339465177795142,6350.0,1.50838717105714768339465177795142
127,6452.70997954885188545933566768033327,6451.2,1.50997954885188545933566768033327
128,6554.71155942565108403293683452238713,6553.2,1.51155942565108403293683452238713
129,6657.51312699626956981659966242164499,6656.0,1.51312699626956981659966242164499
130,6761.11468245100232011123287833525014,6759.6,1.51468245100232011123287833525014
131,6865.51622597576323910376894935032183,6864.0,1.51622597576323910376894935032183
132,6970.71775775221864650578866791567379,6969.2,1.51775775221864650578866791567379
133,7076.71927795791571938397066115905932,7075.2,1.51927795791571938397066115905932
134,7183.52078676640611645712368825262900,7182.0,1.52078676640611645712368825262900
135,7291.12228434736499602621721407840974,7289.6,1.52228434736499602621721407840974
136,7399.52377086670563501629537961741274,7398.0,1.52377086670563501629537961741274
137,7508.72524648668984330121580358425747,7507.2,1.52524648668984330121580358425747
138,7618.72671136603435387016416403322963,7617.2,1.52671136603435387016416403322963
139,7729.52816566001336728898982915266059,7728.0,1.52816566001336728898982915266059
140,7841.12960952055741346343954141917792,7839.6,1.52960952055741346343954141917792
141,7953.53104309634868915387625028168837,7952.0,1.53104309634868915387625028168837
142,8066.73246653291302161780301290478798,8065.2,1.53246653291302161780301290478798
143,8180.73387997270860010634271035659136,8179.2,1.53387997270860010634271035659136
144,8295.53528355521160976118721043496356,8294.0,1.53528355521160976118721043496356
145,8411.13667741699889827077065649171642,8409.6,1.53667741699889827077065649171642
146,8527.53806169182779777567050161909495,8526.0,1.53806169182779777567050161909495
147,8644.73943651071321631027397665940082,8643.2,1.53943651071321631027397665940082
148,8762.74080200200211410971435199795183,8761.2,1.54080200200211410971435199795183
149,8881.54215829144546658300699591655039,8880.0,1.54215829144546658300699591655039
150,9001.14350550226781759323815285385301,8999.6,1.54350550226781759323815285385301
151,9121.54484375523451895903544344443186,9120.0,1.54484375523451895903544344443186
152,9242.74617316871674647646458452407978,9241.2,1.54617316871674647646458452407978
153,9364.74749385875438141102003943304502,9363.2,1.54749385875438141102003943304502
154,9487.54880593911684135892543051212826,9486.0,1.54880593911684135892543051212826
155,9611.15010952136193871370962535375395,9609.6,1.55010952136193871370962535375395
156,9735.55140471489284460439445400880200,9734.0,1.55140471489284460439445400880200
157,9860.75269162701322935186995206326882,9859.2,1.55269162701322935186995206326882
158,9986.75397036298065126153050085603873,9985.2,1.55397036298065126153050085603873
159,10113.5552410260582574249772959496507,10112.0,1.5552410260582574249772959496507
160,10241.1565037175648628682968298734492,10239.6,1.5565037175648628682968298734492
161,10369.5577585369234665430063101456162,10368.0,1.5577585369234665430063101456162
162,10498.7590055817082636207373260241239,10497.2,1.5590055817082636207373260241239
163,10628.7602449476902089449271323344649,10627.2,1.5602449476902089449271323344649
164,10759.5614767288811862760823771411909,10758.0,1.5614767288811862760823771411909
165,10891.1627010175768319308028982266571,10889.6,1.5627010175768319308028982266571
166,11023.5639179043980633301242929057599,11022.0,1.5639179043980633301242929057599
167,11156.7651274783313596894685886911019,11155.2,1.5651274783313596894685886911019
168,11290.7663298267678375390864474649088,11289.2,1.5663298267678375390864474649088
169,11425.5675250355411661370514363378969,11424.0,1.5675250355411661370514363378969
170,11561.1687131889643625178919152807366,11559.6,1.5687131889643625178919152807366
171,11697.5698943698655063712912561033352,11696.0,1.5698943698655063712912561033352
172,11834.7710686596224126174841385981179,11833.2,1.5710686596224126174841385981179
173,11972.7722361381962970816495587071136,11971.2,1.5722361381962970816495587071136
174,12111.5733968841644711107843689387318,12110.0,1.5733968841644711107843689387318
175,12251.1745509747520991179601559701880,12249.6,1.5745509747520991179601559701880
176,12391.5756984858630487602860673585512,12390.0,1.5756984858630487602860673585512
177,12532.7768394921098670110848517261987,12531.2,1.5768394921098670110848517261987
178,12674.7779740668429112806480154631831,12673.2,1.5779740668429112806480154631831
179,12817.5791022821786620304856570588284,12816.0,1.5791022821786620304856570588284
180,12961.1802242090272478274395520261314,12959.6,1.5802242090272478274395520261314
181,13105.5813399171192054862153291553390,13104.0,1.5813399171192054862153291553390
182,13250.7824494750315029956887021768722,13249.2,1.5824494750315029956887021768722
183,13396.7835529502128482782292793575354,13395.2,1.5835529502128482782292793575354
184,13543.5846504090083080235475025385050,13542.0,1.5846504090083080235475025385050
185,13691.1857419166832584051574504764526,13689.6,1.5857419166832584051574504764526
186,13839.5868275374466886480442422605288,13838.0,1.5868275374466886480442422605288
187,13988.7879073344738812480026107342897,13987.2,1.5879073344738812480026107342897
188,14138.7889813699284842789302678222409,14137.2,1.5889813699284842789302678222409
189,14289.5900497049839995191326416161767,14288.0,1.5900497049839995191326416161767
190,14441.1911123998447020476826002899710,14439.6,1.5911123998447020476826002899710
191,14593.5921695137660105333524362519513,14592.0,1.5921695137660105333524362519513
192,14746.7932211050743245982858906653185,14745.2,1.5932211050743245982858906653185
193,14900.7942672311863475602223591510178,14899.2,1.5942672311863475602223591510178
194,15055.5953079486279078940194852109639,15054.0,1.5953079486279078940194852109639
195,15211.1963433130522973447958279919531,15209.6,1.5963433130522973447958279919531
196,15367.5973733792581393845559832426384,15366.0,1.5973733792581393845559832426384
197,15524.7983982012068023875810561489066,15523.2,1.5983982012068023875810561489066
198,15682.7994178320393716865252943480067,15681.2,1.5994178320393716865252943480067
199,15841.6004323240931933430339863004930,15840.0,1.6004323240931933430339863004930
200,16001.2014417289180035730432855088574,15999.6,1.6014417289180035730432855088574
201,16161.6024460972916548031403898215103,16160.0,1.6024460972916548031403898215103
202,16322.8034454792354517340950077141067,16321.2,1.6034454792354517340950077141067
203,16484.8044399240291080662437816791466,16483.2,1.6044399240291080662437816791466
204,16647.6054294802253355015887993232641,16646.0,1.6054294802253355015887993232641
205,16811.2064141956640749879218502302212,16809.6,1.6064141956640749879218502302212
206,16975.6073941174863832236709169203621,16974.0,1.6073941174863832236709169203621
207,17140.8083692921479802940940316410986,17139.2,1.6083692921479802940940316410986
208,17306.8093397654324726602247233074220,17305.2,1.6093397654324726602247233074220
209,17473.6103055824642572433962227256445,17472.0,1.6103055824642572433962227256445
210,17641.2112667877211181009430768273599,17639.6,1.6112667877211181009430768273599
211,17809.6122234250465230520361690084557,17808.0,1.6122234250465230520361690084557
212,17978.8131755376616304807728179798787,17977.2,1.6131755376616304807728179798787
213,18148.8141231681770106944094499551501,18147.2,1.6141231681770106944094499551501
214,18319.6150663586040968124199921192715,18318.0,1.6150663586040968124199921192715
215,18491.2160051503663643926042008604418,18489.6,1.6160051503663643926042008604418
216,18663.6169395843102537486960067980080,18662.0,1.6169395843102537486960067980080
217,18836.8178697007158389185068399943007,18835.2,1.6178697007158389185068399943007
218,19010.8187955393072522550464063470718,19009.2,1.6187955393072522550464063470718
219,19185.6197171392628679135492652774938,19184.0,1.6197171392628679135492652774938
220,19361.2206345392252567425274190557555,19359.6,1.6206345392252567425274190557555
221,19537.6215477773109104811309017611022,19536.0,1.6215477773109104811309017611022
222,19714.8224568911197524601740545568025,19713.2,1.6224568911197524601740545568025
223,19892.8233619177444283676506147787281,19891.2,1.6233619177444283676506147787281
224,20071.6242628937793921380277994069662,20070.0,1.6242628937793921380277994069662
225,20251.2251598553297895218536299242354,20249.6,1.6251598553297895218536299242354
226,20431.6260528380201428736101070060048,20430.0,1.6260528380201428736101070060048
227,20612.8269418770028458006503081489042,20611.2,1.6269418770028458006503081489042
228,20794.8278270069664694834102737658779,20793.2,1.6278270069664694834102737658779
229,20977.6287082621438878190305509401614,20976.0,1.6287082621438878190305509401614
230,21161.2295856763202260746152103003882,21159.6,1.6295856763202260746152103003882
231,21345.6304592828406348393822794387208,21344.0,1.6304592828406348393822794387208
232,21530.8313291146178996846096610246343,21529.2,1.6313291146178996846096610246343
233,21716.8321952041398815168641641582596,21715.2,1.6321952041398815168641641582596
234,21903.6330575834768037705625521716800,21902.0,1.6330575834768037705625521716800
235,22091.2339162842883796109475297071805,22089.6,1.6339162842883796109475297071805
236,22279.6347713378307888462296108409038,22278.0,1.6347713378307888462296108409038
237,22468.8356227749635081690042369390114,22467.2,1.6356227749635081690042369390114
238,22658.8364706261559964579373325301217,22657.2,1.6364706261559964579373325301217
