Eigenstate,Energy,Kinetic Energy,Potential Energy
1,0.500000000054070859315493069155016665,0.0,0.500000000054070859315493069155016665
2,1.84623093800406122641435849894033478,1.2,0.64623093800406122641435849894033478
3,3.93633761074172863701261681750232990,3.2,0.73633761074172863701261681750232990
4,6.79966527997367942613002838541221374,6.0,0.79966527997367942613002838541221374
5,10.4480465790262844813514739597955621,9.6,0.8480465790262844813514739597955621
6,14.8870660026585115005866781343065848,14.0,0.8870660026585115005866781343065848
7,20.1197208323105520782416120409386065,19.2,0.9197208323105520782416120409386065
8,26.1477838543604268444873613835347671,25.2,0.9477838543604268444873613835347671
9,32.9723835678150500971135228183532870,32.0,0.9723835678150500971135228183532870
10,40.5942802268234052748340539065452163,39.6,0.9942802268234052748340539065452163
11,49.0140094015268212482523588893950660,48.0,1.0140094015268212482523588893950660
12,58.2319621872301483754398008871111528,57.2,1.0319621872301483754398008871111528
13,68.2484327139993744852935495184321859,67.2,1.0484327139993744852935495184321859
14,79.0636476795178003246308785422969765,78.0,1.0636476795178003246308785422969765
15,90.6777854649002328402318065833053820,89.6,1.0777854649002328402318065833053820
16,103.090988939563435586053847259217812,102.0,1.090988939563435586053847259217812
17,116.303374294687636633415439693447591,115.2,1.103374294687636633415439693447591
18,130.315037294222730519214285499166765,129.2,1.115037294222730519214285499166765
19,145.126057797992257643470364573663776,144.0,1.126057797992257643470364573663776
20,160.736503099327342013556632846841747,159.6,1.136503099327342013556632846841747
21,177.146430431148389390389872102600478,176.0,1.146430431148389390389872102600478
22,194.355888877123828152056726807829966,193.2,1.155888877123828152056726807829966
23,212.364920849606634508002218085024903,211.2,1.164920849606634508002218085024903
24,231.173563247034755091837694412200307,230.0,1.173563247034755091837694412200307
25,250.781848370727033693907674817082444,249.6,1.181848370727033693907674817082444
26,271.189804658690799283504988358777625,270.0,1.189804658690799283504988358777625
27,292.397457278584442063468230504016616,291.2,1.197457278584442063468230504016616
28,314.404828611076453486690874696419624,313.2,1.204828611076453486690874696419624
29,337.211938647047378339730911295576767,336.0,1.211938647047378339730911295576767
30,360.818805316431639427412822997568510,359.6,1.218805316431639427412822997568510
31,385.225444762350256890807681293651362,384.0,1.225444762350256890807681293651362
32,410.431871571107584605223761145384760,409.2,1.231871571107584605223761145384760
33,436.438098966315538299965089023082499,435.2,1.238098966315538299965089023082499
34,463.244138973658243774918653238149144,462.0,1.244138973658243774918653238149144
35,490.850002561470838522939871678050882,489.6,1.250002561470838522939871678050882
36,519.255699761272681188172483723682146,518.0,1.255699761272681188172483723682146
37,548.461239771591138741715405616222196,547.2,1.261239771591138741715405616222196
38,578.466631047781702512755058065743794,577.2,1.266631047781702512755058065743794
39,609.271881380052335563649515197593862,608.0,1.271881380052335563649515197593862
40,640.876997961504133113819353160700629,639.6,1.276997961504133113819353160700629
41,673.281987447683627443513190266351642,672.0,1.281987447683627443513190266351642
42,706.486856008887076106960080641016686,705.2,1.286856008887076106960080641016686
43,740.491609376250585939465652779236976,739.2,1.291609376250585939465652779236976
44,775.296252882491831327474573227341683,774.0,1.296252882491831327474573227341683
45,810.900791498031555641601599572222818,809.6,1.300791498031555641601599572222818
46,847.305229863109908450021918380274888,846.0,1.305229863109908450021918380274888
47,884.509572316419194517265715898820956,883.2,1.309572316419194517265715898820956
48,922.513822920697024229202802181223921,921.2,1.313822920697024229202802181223921
49,961.317985485659192541097625289239228,960.0,1.317985485659192541097625289239228
50,1000.92206358859749083195468735450496,999.6,1.32206358859749083195468735450496
51,1041.32606059292218908589616012479952,1040.0,1.32606059292218908589616012479952
52,1082.52997966489058060700930429091624,1081.2,1.32997966489058060700930429091624
53,1124.53382378873053135555142369046712,1123.2,1.33382378873053135555142369046712
54,1167.33759578034041486194076461510156,1166.0,1.33759578034041486194076461510156
55,1210.94129829972333818244723186757106,1209.6,1.34129829972333818244723186757106
56,1255.34493386229348979036937798581248,1254.0,1.34493386229348979036937798581248
57,1300.54850484917524133136323285456273,1299.2,1.34850484917524133136323285456273
58,1346.55201351660083798529615964533409,1345.2,1.35201351660083798529615964533409
59,1393.35546200449975822972221888601955,1392.0,1.35546200449975822972221888601955
60,1440.95885234436179929237233666300840,1439.6,1.35885234436179929237233666300840
61,1489.36218646644638035254694061170173,1488.0,1.36218646644638035254694061170173
62,1538.56546620640225454618453551968438,1537.2,1.36546620640225454618453551968438
63,1588.56869331135457894035829941760360,1587.2,1.36869331135457894035829941760360
64,1639.37186944550997916303015888597690,1638.0,1.37186944550997916303015888597690
65,1690.97499619532471053391851861450698,1689.6,1.37499619532471053391851861450698
66,1743.37807507427617020328116819013800,1742.0,1.37807507427617020328116819013800
67,1796.58110752727375251408872894200720,1795.2,1.38110752727375251408872894200720
68,1850.58409493474128364225509059427921,1849.2,1.38409493474128364225509059427921
69,1905.38703861639995889886427913426672,1904.0,1.38703861639995889886427913426672
70,1960.98993983477777781006860571656669,1959.6,1.38993983477777781006860571656669
71,2017.39279979846887338660202480009333,2016.0,1.39279979846887338660202480009333
72,2074.59561966516383375247205526418113,2073.2,1.39561966516383375247205526418113
73,2132.59840054447006129599039687719219,2131.2,1.39840054447006129599039687719219
74,2191.40114350053939565774904806166168,2190.0,1.40114350053939565774904806166168
75,2251.00384955451859576904583906219851,2249.6,1.40384955451859576904583906219851
76,2311.40651968683682659750760778056443,2310.0,1.40651968683682659750760778056443
77,2372.60915483934299385824126296222157,2371.2,1.40915483934299385824126296222157
78,2434.61175591730460415066249034507399,2433.2,1.41175591730460415066249034507399
79,2497.41432379127878116115955394891484,2496.0,1.41432379127878116115955394891484
80,2561.01685929886513044610497248740812,2559.6,1.41685929886513044610497248740812
81,2625.41936324634929596825138538531058,2624.0,1.41936324634929596825138538531058
82,2690.62183641024529010899404831279788,2689.2,1.42183641024529010899404831279788
83,2756.62427953874399014519280923037740,2755.2,1.42427953874399014519280923037740
84,2823.42669335307456988753013975075907,2822.0,1.42669335307456988753013975075907
85,2891.02907854878507590120814567495097,2889.6,1.42907854878507590120814567495097
86,2959.43143579694784186439786494774491,2958.0,1.43143579694784186439786494774491
87,3028.63376574529497714905458848454263,3027.2,1.43376574529497714905458848454263
88,3098.63606901928874233097686594278677,3097.2,1.43606901928874233097686594278677
89,3169.43834622313124083382548589010648,3168.0,1.43834622313124083382548589010648
90,3241.04059794071751269508936526590474,3239.6,1.44059794071751269508936526590474
91,3313.44282473653579498993461719675856,3312.0,1.44282473653579498993461719675856
92,3386.64502715651842515133376731958672,3385.2,1.44502715651842515133376731958672
93,3460.64720572884660116981663936553577,3459.2,1.44720572884660116981663936553577
94,3535.44936096471196972744613006382559,3534.0,1.44936096471196972744613006382559
95,3611.05149335903779216659321378074312,3609.6,1.45149335903779216659321378074312
96,3687.45360339116223637196891316098254,3686.0,1.45360339116223637196891316098254
97,3764.65569152548615830226166195327860,3763.2,1.45569152548615830226166195327860
98,3842.65775821208756403343331639918570,3841.2,1.45775821208756403343331639918570
99,3921.45980388730478970353853511443950,3920.0,1.45980388730478970353853511443950
100,4001.06182897429029040851558642866366,3999.6,1.46182897429029040851558642866366
101,4081.46383388353679979424265887460342,4080.0,1.46383388353679979424265887460342
102,4162.66581901337749651543240832375766,4161.2,1.46581901337749651543240832375766
103,4244.66778475046170581832458318499516,4243.2,1.46778475046170581832458318499516
104,4327.46973147020755723942657231722399,4326.0,1.46973147020755723942657231722399
105,4411.07165953723292633879417794460597,4409.6,1.47165953723292633879417794460597
106,4495.47356930576589762210190742322510,4494.0,1.47356930576589762210190742322510
107,4580.67546112003590772379611448962438,4579.2,1.47546112003590772379611448962438
108,4666.67733531464664868407047912751574,4665.2,1.47733531464664868407047912751574
109,4753.47919221493174255886868830399273,4752.0,1.47919221493174255886868830399273
110,4841.08103213729413618199457189946543,4839.6,1.48103213729413618199457189946543
111,4929.48285538953009903721112509591125,4928.0,1.48285538953009903721112509591125
112,5018.68466227113865776457662785971000,5017.2,1.48466227113865776457662785971000
113,5108.68645307361724528947198349886147,5107.2,1.48645307361724528947198349886147
114,5199.48822808074429380501695256852299,5198.0,1.48822808074429380501695256852299
115,5291.08998756884946039007063588725587,5289.6,1.48998756884946039007063588725587
116,5383.49173180707212571336322335527105,5382.0,1.49173180707212571336322335527105
117,5476.69346105760877456129944238880957,5475.2,1.49346105760877456129944238880957
118,5570.69517557594982589586832271274379,5569.2,1.49517557594982589586832271274379
119,5665.49687561110644643537801582009771,5664.0,1.49687561110644643537801582009771
120,5761.09856140582785590849929121788436,5759.6,1.49856140582785590849929121788436
121,5857.50023319680959386485700470808486,5856.0,1.50023319680959386485700470808486
122,5954.70189121489319901227635876568565,5953.2,1.50189121489319901227635876568565
123,6052.70353568525771985785859666069753,6051.2,1.50353568525771985785859666069753
124,6151.50516682760345775025233543933544,6150.0,1.50516682760345775025233543933544
125,6251.10678485632831385422356523666590,6249.6,1.50678485632831385422356523666590
126,6351.50838998069709639132986623691278,6350.0,1.50838998069709639132986623691278
127,6452.70998240500412390261807376719467,6451.2,1.50998240500412390261807376719467
128,6554.71156232872943770207472281463595,6553.2,1.51156232872943770207472281463595
129,6657.51312994668892461632063443956417,6656.0,1.51312994668892461632063443956417
130,6761.11468544917863272417366399600871,6759.6,1.51468544917863272417366399600871
131,6865.51622902211354740558571000606567,6864.0,1.51622902211354740558571000606567
132,6970.71776084716108003225950164558282,6969.2,1.51776084716108003225950164558282
133,7076.71928110186950985066613042084381,7075.2,1.51928110186950985066613042084381
134,7183.52078995979160833222650548951044,7182.0,1.52078995979160833222650548951044
135,7291.12228759060365715707658073969160,7289.6,1.52228759060365715707658073969160
136,7399.52377416022006731030621663079850,7398.0,1.52377416022006731030621663079850
137,7508.72524983090379346161829462042760,7507.2,1.52524983090379346161829462042760
138,7618.72671476137272418736367782915173,7617.2,1.52671476137272418736367782915173
139,7729.52816910690222648800234328549837,7728.0,1.52816910690222648800234328549837
140,7841.12961301942400760807283501887486,7839.6,1.52961301942400760807283501887486
141,7953.53104664762145260826191458106259,7952.0,1.53104664762145260826191458106259
142,8066.73247013702158806589995833139438,8065.2,1.53247013702158806589995833139438
143,8180.73388363008381363003762373846569,8179.2,1.53388363008381363003762373846569
144,8295.53528726628553597762309335814944,8294.0,1.53528726628553597762309335814944
145,8411.13668118220483552953953932806560,8409.6,1.53668118220483552953953932806560
146,8527.53806551160028841651221337377984,8526.0,1.53806551160028841651221337377984
147,8644.73944038548805798192816358775114,8643.2,1.53944038548805798192816358775114
148,8762.74080593221637115057837939029602,8761.2,1.54080593221637115057837939029602
149,8881.54216227753748146425833963904320,8880.0,1.54216227753748146425833963904320
150,9001.14350954467722242508507776141142,8999.6,1.54350954467722242508507776141142
151,9121.54484785440224706076615713936119,9120.0,1.54484785440224706076615713936119
152,9242.74617732508504401097030034399619,9241.2,1.54617732508504401097030034399619
153,9364.74749807276681908447371365775832,9363.2,1.54749807276681908447371365775832
154,9487.54881021121832618630361555297184,9486.0,1.54881021121832618630361555297184
155,9611.15011385199872585085105053321471,9609.6,1.55011385199872585085105053321471
156,9735.55140910451254924729545803882700,9734.0,1.55140910451254924729545803882700
157,9860.75269607606483870392226375129461,9859.2,1.55269607606483870392226375129461
158,9986.75397487191453656941401398318049,9985.2,1.55397487191453656941401398318049
159,10113.5552455953261860839262361519220,10112.0,1.5552455953261860839262361519220
160,10241.1565083476200105974645353750584,10239.6,1.5565083476200105974645353750584
161,10369.5577632282204296316601635271151,10368.0,1.5577632282204296316601635271151
162,10498.7590103347030712460221261315993,10497.2,1.5590103347030712460221261315993
163,10628.7602497628403355619416380197240,10627.2,1.5602497628403355619416380197240
164,10759.5614816066455640810208108158533,10758.0,1.5614816066455640810208108158533
165,10891.1627059584158633979200468300271,10889.6,1.5627059584158633979200468300271
166,11023.5639229087736338232894519347875,11022.0,1.5639229087736338232894519347875
167,11156.7651325467068501490808923312068,11155.2,1.5651325467068501490808923312068
168,11290.7663349596081372451314089462576,11289.2,1.5663349596081372451314089462576
169,11425.5675302333126855490851550491837,11424.0,1.5675302333126855490851550491837
170,11561.1687184521350461927474324176239,11559.6,1.5687184521350461927474324176239
171,11697.5698996989048459593083179272624,11696.0,1.5698996989048459593083179272624
172,11834.7710740550014599380714915646148,11833.2,1.5710740550014599380714915646148
173,11972.7722416003876772789961868463204,11971.2,1.5722416003876772789961868463204
174,12111.5734024136423958905439623232110,12110.0,1.5734024136423958905439623232110
175,12251.1745565719923800657408319973339,12249.6,1.5745565719923800657408319973339
176,12391.5757041513431107427851677416120,12390.0,1.5757041513431107427851677416120
177,12532.7768452263087616607165805408653,12531.2,1.5768452263087616607165805408653
178,12674.7779798702413305645198236334316,12673.2,1.5779798702413305645198236334316
179,12817.5791081552589519045873345402477,12816.0,1.5791081552589519045873345402477
180,12961.1802301522734219769173782128422,12959.6,1.5802301522734219769173782128422
181,13105.5813459310169591526119308726817,13104.0,1.5813459310169591526119308726817
182,13250.7824555600682268920376816826450,13249.2,1.5824555600682268920376816826450
183,13396.7835591068776425929023809667444,13395.2,1.5835591068776425929023809667444
184,13543.5846566377919965137606157043815,13542.0,1.5846566377919965137606157043815
185,13691.1857482180784025810508457181541,13689.6,1.5857482180784025810508457181541
186,13839.5868339119476020482607992039300,13838.0,1.5868339119476020482607992039300
187,13988.7879137825766438076974068294127,13987.2,1.5879137825766438076974068294127
188,14138.7889878921309567911536391640440,14137.2,1.5889878921309567911536391640440
189,14289.5900563017858381905382253071069,14288.0,1.5900563017858381905382253071069
190,14441.1911190717473731495213156466189,14439.6,1.5911190717473731495213156466189
191,14593.5921762612728051487224900511021,14592.0,1.5921762612728051487224900511021
192,14746.7932279286903734666189930430633,14745.2,1.5932279286903734666189930430633
193,14900.7942741314186360199956557772359,14899.2,1.5942741314186360199956557772359
194,15055.5953149259852909246927605166152,15054.0,1.5953149259852909246927605166152
195,15211.1963503680455147089834270556580,15209.6,1.5963503680455147089834270556580
196,15367.5973805123998308714530121343459,15366.0,1.5973805123998308714530121343459
197,15524.7984054130115231586737458913110,15523.2,1.5984054130115231586737458913110
198,15682.7994251230236077246254584266894,15681.2,1.5994251230236077246254584266894
199,15841.6004396947753770056885275847703,15840.0,1.6004396947753770056885275847703
200,16001.2014491798185292513797298143167,15999.6,1.6014491798185292513797298143167
201,16161.6024536289328946872204678628797,16160.0,1.6024536289328946872204678628797
202,16322.8034530921417716858594609260181,16321.2,1.6034530921417716858594609260181
203,16484.8044476187268836011419716711812,16483.2,1.6044476187268836011419716711812
204,16647.6054372572429678799986130422776,16646.0,1.6054372572429678799986130422776
205,16811.2064220555320074174757406486479,16809.6,1.6064220555320074174757406486479
206,16975.6074020607371171736165598237137,16974.0,1.6074020607371171736165598237137
207,17140.8083773193160919228287331803908,17139.2,1.6083773193160919228287331803908
208,17306.8093478770546293571548627489264,17305.2,1.6093478770546293571548627489264
209,17473.6103137790792342862849463748266,17472.0,1.6103137790792342862849463748266
210,17641.2112750698698154299214219992923,17639.6,1.6112750698698154299214219992923
211,17809.6122317932719821614648562302348,17808.0,1.6122317932719821614648562302348
212,17978.8131839925090514301545276354052,17977.2,1.6131839925090514301545276354052
213,18148.8141317101937692395642015075657,18147.2,1.6141317101937692395642015075657
214,18319.6150749883397616581480565792050,18318.0,1.6150749883397616581480565792050
215,18491.2160138683727145680748638541771,18489.6,1.6160138683727145680748638541771
216,18663.6169483911412961068127808808224,18662.0,1.6169483911412961068127808808224
217,18836.8178785969278257605132071773714,18835.2,1.6178785969278257605132071773714
218,19010.8188045254586990816493771688667,19009.2,1.6188045254586990816493771688667
219,19185.6197262159145713038520436087213,19184.0,1.6197262159145713038520436087213
220,19361.2206437069403123620751547567503,19359.6,1.6206437069403123620751547567503
221,19537.6215570366547312203888018868798,19536.0,1.6215570366547312203888018868798
222,19714.8224662426600867047697650810780,19713.2,1.6224662426600867047697650810780
223,19892.8233713620513784017279243998240,19891.2,1.6233713620513784017279243998240
224,20071.6242724314254326820728565987125,20070.0,1.6242724314254326820728565987125
225,20251.2251694868897864063697314266260,20249.6,1.6251694868897864063697314266260
226,20431.6260625640713718500314151961297,20430.0,1.6260625640713718500314151961297
227,20612.8269516981250114909002064178125,20611.2,1.6269516981250114909002064178125
228,20794.8278369237417244695253448968494,20793.2,1.6278369237417244695253448968494
229,20977.6287182751568518742863150320073,20976.0,1.6287182751568518742863150320073
230,21161.2295957861580055376053567475802,21159.6,1.6295957861580055376053567475802
231,21345.6304694900928421325194580035056,21344.0,1.6304694900928421325194580035056
232,21530.8313394198766729785308496887430,21529.2,1.6313394198766729785308496887430
233,21716.8322056079999045422409184461126,21715.2,1.6322056079999045422409184461126
234,21903.6330680865353257788323898651173,21902.0,1.6330680865353257788323898651173
235,22091.2339268871452354854991819882544,22089.6,1.6339268871452354854991819882544
236,22279.6347820410884193655921341405703,22278.0,1.6347820410884193655921341405703
237,22468.8356335792269804236068228465443,22467.2,1.6356335792269804236068228465443
238,22658.8364815320330244220241123051702,22657.2,1.6364815320330244220241123051702
