Eigenstate,Energy,Kinetic Energy,Potential Energy
1,0.500000000046936754120007030643823724,0.0,0.500000000046936754120007030643823724
2,1.84623093795749337666242466354669659,1.2,0.64623093795749337666242466354669659
3,3.93633761060493874810729977705113442,3.2,0.73633761060493874810729977705113442
4,6.79966527968876002934077235444074984,6.0,0.79966527968876002934077235444074984
5,10.4480465785327420786374018799143933,9.6,0.8480465785327420786374018799143933
6,14.8870660018947915389598285155452072,14.0,0.8870660018947915389598285155452072
7,20.1197208312146005429138730412040198,19.2,0.9197208312146005429138730412040198
8,26.1477838528699241996645006380596144,25.2,0.9477838528699241996645006380596144
9,32.9723835658675198235950656299769118,32.0,0.9723835658675198235950656299769118
10,40.5942802243562687317845024981939195,39.6,0.9942802243562687317845024981939195
11,49.0140093984774272665668843374365289,48.0,1.0140093984774272665668843374365289
12,58.2319621835357899744412806709573720,57.2,1.0319621835357899744412806709573720
13,68.2484327095972985790500620745057570,67.2,1.0484327095972985790500620745057570
14,79.0636476743452133935133614774284322,78.0,1.0636476743452133935133614774284322
15,90.6777854588943041680979873263732252,89.6,1.0777854588943041680979873263732252
16,103.090988932661298967993731231464788,102.0,1.090988932661298967993731231464788
17,116.303374286826391088326114672983148,115.2,1.103374286826391088326114672983148
18,130.315037285339440334692526228627407,129.2,1.115037285339440334692526228627407
19,145.126057788023951960467625177144262,144.0,1.126057788023951960467625177144262
20,160.736503088211014086061784321100520,159.6,1.136503088211014086061784321100520
21,177.146430418820995610634879879758406,176.0,1.146430418820995610634879879758406
22,194.355888863522286903190535934936059,193.2,1.155888863522286903190535934936059
23,212.364920834667824887513654354793720,211.2,1.164920834667824887513654354793720
24,231.173563230695515536529996411229044,230.0,1.173563230695515536529996411229044
25,250.781848352924160528714041649171703,249.6,1.181848352924160528714041649171703
26,271.189804639361045210518360761100532,270.0,1.189804639361045210518360761100532
27,292.397457257664514603377368652038078,291.2,1.197457257664514603377368652038078
28,314.404828588503013381813939232305185,313.2,1.204828588503013381813939232305185
29,337.211938622757037925653289039360715,336.0,1.211938622757037925653289039360715
30,360.818805290360960978624822708164836,359.6,1.218805290360960978624822708164836
31,385.225444734435750944535055167559787,384.0,1.225444734435750944535055167559787
32,410.431871541285708266736090920205587,409.2,1.231871541285708266736090920205587
33,436.438098934522693531954508489896164,435.2,1.238098934522693531954508489896164
34,463.244138939830775673007911665021241,462.0,1.244138939830775673007911665021241
35,490.850002525545033578964086144134158,489.6,1.250002525545033578964086144134158
36,519.255699723184765542553859007586940,518.0,1.255699723184765542553859007586940
37,548.461239731277276425993319754353791,547.2,1.261239731277276425993319754353791
38,578.466631005177993683129381028196857,577.2,1.266631005177993683129381028196857
39,609.271881335094814726231037218700236,608.0,1.271881335094814726231037218700236
40,640.876997914128767342148786461001218,639.6,1.276997914128767342148786461001218
41,673.281987397826314588802655886428438,672.0,1.281987397826314588802655886428438
42,706.486855956483643001423086569797342,705.2,1.286855956483643001423086569797342
43,740.491609321236786593029269316122138,739.2,1.291609321236786593029269316122138
44,775.296252824803345118107798285923851,774.0,1.296252824803345118107798285923851
45,810.900791437603985499444253877417107,809.6,1.300791437603985499444253877417107
46,847.305229799878779035456936424921813,846.0,1.305229799878779035456936424921813
47,884.509572250319950393042916760134571,883.2,1.309572250319950393042916760134571
48,922.513822851665028026692865850149752,921.2,1.313822851665028026692865850149752
49,961.317985413629723120730147736812365,960.0,1.317985413629723120730147736812365
50,1000.92206351350574143787303687831069,999.6,1.32206351350574143787303687831069
51,1041.32606051470326549484376598147938,1040.0,1.32606051470326549484376598147938
52,1082.52997958347949927144650394909782,1081.2,1.32997958347949927144650394909782
53,1124.53382370406221754098860492199691,1123.2,1.33382370406221754098860492199691
54,1167.33759569234970077846198099646615,1166.0,1.33759569234970077846198099646615
55,1210.94129820834496111038837441181122,1209.6,1.34129820834496111038837441181122
56,1255.34493376746209020010622577253637,1254.0,1.34493376746209020010622577253637
57,1300.54850475082536099715700383941989,1299.2,1.34850475082536099715700383941989
58,1346.55201341466691809313738364366595,1345.2,1.35201341466691809313738364366595
59,1393.35546189891613747910778437477933,1392.0,1.35546189891613747910778437477933
60,1440.95885223506271199194524518792440,1439.6,1.35885223506271199194524518792440
61,1489.36218635336595450952354991160469,1488.0,1.36218635336595450952354991160469
62,1538.56546608947450994948981557440018,1537.2,1.36546608947450994948981557440018
63,1588.56869319051342523738583899920106,1587.2,1.36869319051342523738583899920106
64,1639.37186932068921392994017700771003,1638.0,1.37186932068921392994017700771003
65,1690.97499606645801733938402158458852,1689.6,1.37499606645801733938402158458852
66,1743.37807494129711666558951487568046,1742.0,1.37807494129711666558951487568046
67,1796.58110739011578835150326486873744,1795.2,1.38110739011578835150326486873744
68,1850.58409479333773871653910684567813,1849.2,1.38409479333773871653910684567813
69,1905.38703847068404125186727416248527,1904.0,1.38703847068404125186727416248527
70,1960.98993968468257169327283419797048,1959.6,1.38993968468257169327283419797048
71,2017.39279964392733728352528436459979,2016.0,1.39279964392733728352528436459979
72,2074.59561950610879839382093795042283,2073.2,1.39561950610879839382093795042283
73,2132.59840038083422766745643665402100,2131.2,1.39840038083422766745643665402100
74,2191.40114333225533300033863429243259,2190.0,1.40114333225533300033863429243259
75,2251.00384938151873957183317445146592,2249.6,1.40384938151873957183317445146592
76,2311.40651950905347658269854610006215,2310.0,1.40651950905347658269854610006215
77,2372.60915465670831195843442190051789,2371.2,1.40915465670831195843442190051789
78,2434.61175572975061247819268296842063,2433.2,1.41175572975061247819268296842063
79,2497.41432359873735996940724383108487,2496.0,1.41432359873735996940724383108487
80,2561.01685910126801608265421172786127,2559.6,1.41685910126801608265421172786127
81,2625.41936304362807881977739509595398,2624.0,1.41936304362807881977739509595398
82,2690.62183620233141253776042104526925,2689.2,1.42183620233141253776042104526925
83,2756.62427932556874441703708655491274,2755.2,1.42427932556874441703708655491274
84,2823.42669313456909609121538115830503,2822.0,1.42669313456909609121538115830503
85,2891.02907832488035985901686603955151,2889.6,1.42907832488035985901686603955151
86,2959.43143556757471303384368388078102,2958.0,1.43143556757471303384368388078102
87,3028.63376551038410651558568046962518,3027.2,1.43376551038410651558568046962518
88,3098.63606877877064029154426054443307,3097.2,1.43606877877064029154426054443307
89,3169.43834597693625507118809537916096,3168.0,1.43834597693625507118809537916096
90,3241.04059768877582604272652345136626,3239.6,1.44059768877582604272652345136626
91,3313.44282447877742328743577175638057,3312.0,1.44282447877742328743577175638057
92,3386.64502689287321509013390330556640,3385.2,1.44502689287321509013390330556640
93,3460.64720545924422812914482121971028,3459.2,1.44720545924422812914482121971028
94,3535.44936068908193560035349084582043,3534.0,1.44936068908193560035349084582043
95,3611.05149307730942317592558022596386,3609.6,1.45149307730942317592558022596386
96,3687.45360310326468087614812573731357,3686.0,1.45360310326468087614812573731357
97,3764.65569123134838459073849938736545,3763.2,1.45569123134838459073849938736545
98,3842.65775791163835811167385178753750,3841.2,1.45775791163835811167385178753750
99,3921.45980358047275306740451568512544,3920.0,1.45980358047275306740451568512544
100,4001.06182866100383780789836742277406,3999.6,1.46182866100383780789836742277406
101,4081.46383356372415698580898361077263,4080.0,1.46383356372415698580898361077263
102,4162.66581868696669800433919448975938,4161.2,1.46581868696669800433919448975938
103,4244.66778441738059258875869068004975,4243.2,1.46778441738059258875869068004975
104,4327.46973113038377447382428457068571,4326.0,1.46973113038377447382428457068571
105,4411.07165919059392112559401123843651,4409.6,1.47165919059392112559401123843651
106,4495.47356895223891665188300436899584,4494.0,1.47356895223891665188300436899584
107,4580.67546075954799497365346732382635,4579.2,1.47546075954799497365346732382635
108,4666.67733494712464309007666111045348,4665.2,1.47733494712464309007666111045348
109,4753.47919184030227567647087256383188,4752.0,1.47919184030227567647087256383188
110,4841.08103175548362983419401754872140,4839.6,1.48103175548362983419401754872140
111,4929.48285500046476295037125925928256,4928.0,1.48285500046476295037125925928256
112,5018.68466187474448719170445440836915,5017.2,1.48466187474448719170445440836915
113,5108.68645266982001862081615092065019,5107.2,1.48645266982001862081615092065019
114,5199.48822766946957016582468436399555,5198.0,1.48822766946957016582468436399555
115,5291.08998715002257722534413630591079,5289.6,1.48998715002257722534413630591079
116,5383.49173138061819635945500019298392,5382.0,1.49173138061819635945500019298392
117,5476.69346062345268580418443827369844,5475.2,1.49346062345268580418443827369844
118,5570.69517513401623551592950784939472,5569.2,1.49517513401623551592950784939472
119,5665.49687516131978073854053849029402,5664.0,1.49687516131978073854053849029402
120,5761.09856094811230724354690584209880,5759.6,1.49856094811230724354690584209880
121,5857.50023273108911812676305040697229,5856.0,1.50023273108911812676305040697229
122,5954.70189074109151313138001094513631,5953.2,1.50189074109151313138001094513631
123,6052.70353520329829927471578669995483,6051.2,1.50353520329829927471578669995483
124,6151.50516633740953387598895649305216,6150.0,1.50516633740953387598895649305216
125,6251.10678435782287151621731944688317,6249.6,1.50678435782287151621731944688317
126,6351.50838947380287126404537737868345,6350.0,1.50838947380287126404537737868345
127,6452.70998188964359992341838002764775,6451.2,1.50998188964359992341838002764775
128,6554.71156180482484447183066381155603,6553.2,1.51156180482484447183066381155603
129,6657.51312941416223478463803110052061,6656.0,1.51312941416223478463803110052061
130,6761.11468490795155935905654341614779,6759.6,1.51468490795155935905654341614779
131,6865.51622847210754134735218043479403,6864.0,1.51622847210754134735218043479403
132,6970.71776028829732723152516600646514,6969.2,1.51776028829732723152516600646514
133,7076.71928053406892869020832205289963,7075.2,1.51928053406892869020832205289963
134,7183.52078938297484693254073124110946,7182.0,1.52078938297484693254073124110946
135,7291.12228700469109066543500198834772,7289.6,1.52228700469109066543500198834772
136,7399.52377356513179517312613082669590,7398.0,1.52377356513179517312613082669590
137,7508.72524922655963667994675023649536,7507.2,1.52524922655963667994675023649536
138,7618.72671414769222255528255631940091,7617.2,1.52671414769222255528255631940091
139,7729.52816848380463581375652539300802,7728.0,1.52816848380463581375652539300802
140,7841.12961238682829691772195474212462,7839.6,1.52961238682829691772195474212462
141,7953.53104600544630133165461822220939,7952.0,1.53104600544630133165461822220939
142,8066.73246948518538320476732009576441,8065.2,1.53246948518538320476732009576441
143,8180.73388296850464690800073137511581,8179.2,1.53388296850464690800073137511581
144,8295.53528659488120097190771298103798,8294.0,1.53528659488120097190771298103798
145,8411.13668050089282478418872028244123,8409.6,1.53668050089282478418872028244123
146,8527.53806482029779053688579078778736,8526.0,1.53806482029779053688579078778736
147,8644.73943968411195471027596440149041,8643.2,1.53943968411195471027596440149041
148,8762.74080522068323442247202322162904,8761.2,1.54080522068323442247202322162904
149,8881.54216155576357044566413289548663,8880.0,1.54216155576357044566413289548663
150,9001.14350881257848052985868334172425,8999.6,1.54350881257848052985868334172425
151,9121.54484711189429894834733493611568,9120.0,1.54484711189429894834733493611568
152,9242.74617657208319256405394005468393,9241.2,1.54617657208319256405394005468393
153,9364.74749730918604236643114738574033,9363.2,1.54749730918604236643114738574033
154,9487.54880943697327437812585569170911,9486.0,1.54880943697327437812585569170911
155,9611.15011306700371816738356555676435,9609.6,1.55011306700371816738356555676435
156,9735.55140830868157083253131323001402,9734.0,1.55140830868157083253131323001402
157,9860.75269526931153750511880396604972,9859.2,1.55269526931153750511880396604972
158,9986.75397405415222018979515917785169,9985.2,1.55397405415222018979515917785169
159,10113.5552447664678186137306574069943,10112.0,1.5552447664678186137306574069943
160,10241.1565075075782094230971323746405,10239.6,1.5565075075782094230971323746405
161,10369.5577623769074622227020407713218,10368.0,1.5577623769074622227020407713218
162,10498.7590094720308519198516732205815,10497.2,1.5590094720308519198516732205815
163,10628.7602488887204222257167488037860,10627.2,1.5602488887204222257167488037860
164,10759.5614807209891549507698013422938,10758.0,1.5614807209891549507698013422938
165,10891.1627050611337936944861540424339,10889.6,1.5627050611337936944861540424339
166,11023.5639219997763724448711490497344,11022.0,1.5639219997763724448711490497344
167,11156.7651316259044963201077320040883,11155.2,1.5651316259044963201077320040883
168,11290.7663340269104171412120901800827,11289.2,1.5663340269104171412120901800827
169,11425.5675292886289488977621490225661,11424.0,1.5675292886289488977621490225661
170,11561.1687174953742628497894155496070,11559.6,1.5687174953742628497894155496070
171,11697.5698987299756024602689549727063,11696.0,1.5698987299756024602689549727063
172,11834.7710730738119560248402714864986,11833.2,1.5710730738119560248402714864986
173,11972.7722406068457224010640791776497,11971.2,1.5722406068457224010640791776497
174,12111.5734014076554056807038339641281,12110.0,1.5734014076554056807038339641281
175,12251.1745555534673727899393276576898,12249.6,1.5745555534673727899393276576898
176,12391.5757031201867037238400396558751,12390.0,1.5757031201867037238400396558751
177,12532.7768441824271676756102232958827,12531.2,1.5768441824271676756102232958827
178,12674.7779788135403542149767732709580,12673.2,1.5779788135403542149767732709580
179,12817.5791070856439859606402334582111,12816.0,1.5791070856439859606402334582111
180,12961.1802290696494436931628919713471,12959.6,1.5802290696494436931628919713471
181,13105.5813448352885265568546033973162,13104.0,1.5813448352885265568546033973162
182,13250.7824544511394750460168630511195,13249.2,1.5824544511394750460168630511195
183,13396.7835579846522798247936076545069,13395.2,1.5835579846522798247936076545069
184,13543.5846555021733006221398221652401,13542.0,1.5846555021733006221398221652401
185,13691.1857470689692170100061220639008,13689.6,1.5857470689692170100061220639008
186,13839.5868327492503320333331801164098,13838.0,1.5868327492503320333331801164098
187,13988.7879126061932524923285459783585,13987.2,1.5879126061932524923285459783585
188,14138.7889867019629613133146380080852,14137.2,1.5889867019629613133146380080852
189,14289.5900550977343057392105116175546,14288.0,1.5900550977343057392105116175546
190,14441.1911178537129169906965155655753,14439.6,1.5911178537129169906965155655753
191,14593.5921750291555806205849449346906,14592.0,1.5921750291555806205849449346906
192,14746.7932266823900739435704084721802,14745.2,1.5932266823900739435704084721802
193,14900.7942728708344888451778982241614,14899.2,1.5942728708344888451778982241614
194,15055.5953136510160533106608630332317,15054.0,1.5953136510160533106608630332317
195,15211.1963490785894696061768471859932,15209.6,1.5963490785894696061768471859932
196,15367.5973792083547828041096033617609,15366.0,1.5973792083547828041096033617609
197,15524.7984040942747940278263655033171,15523.2,1.5984040942747940278263655033171
198,15682.7994237894920325778176822627636,15681.2,1.5994237894920325778176822627636
199,15841.6004383463452997730412582620029,15840.0,1.6004383463452997730412582620029
200,16001.2014478163857984476368297177127,15999.6,1.6014478163857984476368297177127
201,16161.6024522503928590793969117535397,16160.0,1.6024522503928590793969117535397
202,16322.8034516983892759261114057859990,16321.2,1.6034516983892759261114057859990
203,16484.8044462096562638244739403632495,16483.2,1.6044462096562638244739403632495
204,16647.6054358327480472664181514398449,16646.0,1.6054358327480472664181514398449
205,16811.2064206155060917182021345875197,16809.6,1.6064206155060917182021345875197
206,16975.6074006050729902009448819994377,16974.0,1.6074006050729902009448819994377
207,17140.8083758479060110032464514368314,17139.2,1.6083758479060110032464514368314
208,17306.8093463897903207473035215470199,17305.2,1.6093463897903207473035215470199
209,17473.6103122758518885513544681454856,17472.0,1.6103122758518885513544681454856
210,17641.2112735505700827840600371191669,17639.6,1.6112735505700827840600371191669
211,17809.6122302577899677697828862141009,17808.0,1.6122302577899677697828862141009
212,17978.8131824407343106718950685791820,17977.2,1.6131824407343106718950685791820
213,18148.8141301420153029320088022110492,18147.2,1.6141301420153029320088022110492
214,18319.6150734036460112408208288136082,18318.0,1.6150734036460112408208288136082
215,18491.2160122670515572468027745690555,18489.6,1.6160122670515572468027745690555
216,18663.6169467730800399571952383294687,18662.0,1.6169467730800399571952383294687
217,18836.8178769620132047903482619254086,18835.2,1.6178769620132047903482619254086
218,19010.8188028735768682518590053367463,19009.2,1.6188028735768682518590053367463
219,19185.6197245469511015074431826346165,19184.0,1.6197245469511015074431826346165
220,19361.2206420207801853606680332585711,19359.6,1.6206420207801853606680332585711
221,19537.6215553331823345378381160282631,19536.0,1.6215553331823345378381160282631
222,19714.8224645217592084773990471757874,19713.2,1.6224645217592084773990471757874
223,19892.8233696236052021846915372615656,19891.2,1.6233696236052021846915372615656
224,20071.6242706753165322113541062437911,20070.0,1.6242706753165322113541062437911
225,20251.2251677130001203159178375785313,20249.6,1.6251677130001203159178375785313
226,20431.6260607722822783435343319548834,20430.0,1.6260607722822783435343319548834
227,20612.8269498883172029676837371531885,20611.2,1.6269498883172029676837371531885
228,20794.8278350957952821040634627988148,20793.2,1.6278350957952821040634627988148
229,20977.6287164289512201488007826577003,20976.0,1.6287164289512201488007826577003
230,21161.2295939215719867272270302210699,21159.6,1.6295939215719867272270302210699
231,21345.6304676070045907424764547736557,21344.0,1.6304676070045907424764547736557
232,21530.8313375181636901328233410114703,21529.2,1.6313375181636901328233410114703
233,21716.8322036875390323232546711157298,21715.2,1.6322036875390323232546711157298
234,21903.6330661472027415173372388656540,21902.0,1.6330661472027415173372388656540
235,22091.2339249288164460004715336842400,22089.6,1.6339249288164460004715336842400
236,22279.6347800636382551532937488914790,22278.0,1.6347800636382551532937488914790
237,22468.8356315825295897953452288758154,22467.2,1.6356315825295897953452288758154
238,22658.8364795159618675900128092725744,22657.2,1.6364795159618675900128092725744
