Eigenstate,Energy,Kinetic Energy,Potential Energy
1,0.500000000181419966634897896878241200,0.0,0.500000000181419966634897896878241200
2,1.84623093883533692686121082521744817,1.2,0.64623093883533692686121082521744817
3,3.93633761318356628752715717420891085,3.2,0.73633761318356628752715717420891085
4,6.79966528505984076643045637923144297,6.0,0.79966528505984076643045637923144297
5,10.4480465878367605446756907262419628,9.6,0.8480465878367605446756907262419628
6,14.8870660162923236694891501571234228,14.0,0.8870660162923236694891501571234228
7,20.1197208518757502434882492615348136,19.2,0.9197208518757502434882492615348136
8,26.1477838809699364342507563315953672,25.2,0.9477838809699364342507563315953672
9,32.9723836025847576790169884650701526,32.0,0.9723836025847576790169884650701526
10,40.5942802708712023449466034233660870,39.6,0.9942802708712023449466034233660870
11,49.0140094559720991150730111505910068,48.0,1.0140094559720991150730111505910068
12,58.2319622531935229394376350800499912,57.2,1.0319622531935229394376350800499912
13,68.2484327926025361991038680018316225,67.2,1.0484327926025361991038680018316225
14,79.0636477718834362199065355959491737,78.0,1.0636477718834362199065355959491737
15,90.6777855721519920562972219969066653,89.6,1.0777855721519920562972219969066653
16,103.090989062825922249967842754992105,102.0,1.090989062825922249967842754992105
17,116.303374435086420557843867463911421,115.2,1.103374435086420557843867463911421
18,130.315037452884369875754519160295437,129.2,1.115037452884369875754519160295437
19,145.126057976044329912002051965695380,144.0,1.126057976044329912002051965695380
20,160.736503297898480796693715104235900,159.6,1.136503297898480796693715104235900
21,177.146430651368325481329092943766258,176.0,1.146430651368325481329092943766258
22,194.355889120123433753789357478357824,193.2,1.155889120123433753789357478357824
23,212.364921116517969835060461200351288,211.2,1.164921116517969835060461200351288
24,231.173563538991116808520085508221431,230.0,1.173563538991116808520085508221431
25,250.781848688863004794921339629761922,249.6,1.181848688863004794921339629761922
26,271.189805004142300128595750390642083,270.0,1.189805004142300128595750390642083
27,292.397457652488782352270733466436340,291.2,1.197457652488782352270733466436340
28,314.404829014572385013622564150687192,313.2,1.204829014572385013622564150687192
29,337.211939081275148407772495355507893,336.0,1.211939081275148407772495355507893
30,360.818805782533044828401621680112353,359.6,1.218805782533044828401621680112353
31,385.225445261468698381363833938244067,384.0,1.225445261468698381363833938244067
32,410.431872104388121823661288409744874,409.2,1.231872104388121823661288409744874
33,436.438099534904945081928486612938322,435.2,1.238099534904945081928486612938322
34,463.244139578705063835034794334137780,462.0,1.244139578705063835034794334137780
35,490.850003204125441477204046148946968,489.6,1.250003204125441477204046148946968
36,519.255700442687318897617784660234144,518.0,1.255700442687318897617784660234144
37,548.461240492920001962528845677239865,547.2,1.261240492920001962528845677239865
38,578.466631810180977841683898996171275,577.2,1.266631810180977841683898996171275
39,609.271882184680262670499184309713177,608.0,1.271882184680262670499184309713177
40,640.876998809521062255238604655777792,639.6,1.276998809521062255238604655777792
41,673.281988340252077254214061186225534,672.0,1.281988340252077254214061186225534
42,706.486856947171791666122404555496928,705.2,1.286856947171791666122404555496928
43,740.491610361418597111399714722786974,739.2,1.291610361418597111399714722786974
44,775.296253915712511376716416415754354,774.0,1.296253915712511376716416415754354
45,810.900792580476680123537383567514894,809.6,1.300792580476680123537383567514894
46,847.305230995953714378914462312936878,846.0,1.305230995953714378914462312936878
47,884.509573500838439814214918913443838,883.2,1.309573500838439814214918913443838
48,922.513824157871047453134237777528800,921.2,1.313824157871047453134237777528800
49,961.317986776769972906356808203736999,960.0,1.317986776769972906356808203736999
50,1000.92206493482970851650264231632865,999.6,1.32206493482970851650264231632865
51,1041.32606199546328583446657487501426,1040.0,1.32606199546328583446657487501426
52,1082.52998112493082063390706765385985,1081.2,1.32998112493082063390706765385985
53,1124.53382530746306255205492566975237,1123.2,1.33382530746306255205492566975237
54,1167.33759735896133031352212357076421,1166.0,1.33759735896133031352212357076421
55,1210.94129993943173800125011274851842,1209.6,1.34129993943173800125011274851842
56,1255.34493556429154326858815160106165,1254.0,1.34493556429154326858815160106165
57,1300.54850661466824942135273456196322,1299.2,1.34850661466824942135273456196322
58,1346.55201534679729611241225948500581,1345.2,1.35201534679729611241225948500581
59,1393.35546390061141944405036519200735,1392.0,1.35546390061141944405036519200735
60,1440.95885430760373776564843190595628,1439.6,1.35885430760373776564843190595628
61,1489.36218849803705522671236610785432,1488.0,1.36218849803705522671236610785432
62,1538.56546830756357414014745783034433,1537.2,1.36546830756357414014745783034433
63,1588.56869548331196532165687416255262,1587.2,1.36869548331196532165687416255262
64,1639.37187168949243309121160893863653,1638.0,1.37187168949243309121160893863653
65,1690.97499851256487678256242621823507,1689.6,1.37499851256487678256242621823507
66,1743.37807746601040326770534497399963,1742.0,1.37807746601040326770534497399963
67,1796.58110999474218271188363221878885,1795.2,1.38110999474218271188363221878885
68,1850.58409747918788361389780952345601,1849.2,1.38409747918788361389780952345601
69,1905.38704123907261051576666469181864,1904.0,1.38704123907261051576666469181864
70,1960.98994253692833949751526356688909,1959.6,1.38994253692833949751526356688909
71,2017.39280258135324786913557815819520,2016.0,1.39280258135324786913557815819520
72,2074.59562253004203622938217728293685,2073.2,1.39562253004203622938217728293685
73,2132.59840349260628805466382730264584,2131.2,1.39840349260628805466382730264584
74,2191.40114653320209313273665504916722,2190.0,1.40114653320209313273665504916722
75,2251.00385267298053005480293756567869,2249.6,1.40385267298053005480293756567869
76,2311.40652289237515342286311674621571,2310.0,1.40652289237515342286311674621571
77,2372.60915813323932903075234365389891,2371.2,1.40915813323932903075234365389891
78,2434.61175930084509447911204063681429,2433.2,1.41175930084509447911204063681429
79,2497.41432726575417586455620603245082,2496.0,1.41432726575417586455620603245082
80,2561.01686286557085305764751089086711,2559.6,1.41686286557085305764751089086711
81,2625.41936690658551674282413157617338,2624.0,1.41936690658551674282413157617338
82,2690.62184016531699894286421403086621,2689.2,1.42184016531699894286421403086621
83,2756.62428338996107001668772919450252,2755.2,1.42428338996107001668772919450252
84,2823.42669730175187082757970552280941,2822.0,1.42669730175187082757970552280941
85,2891.02908259624248950274725803087097,2889.6,1.42908259624248950274725803087097
86,2959.43143994451037633973427291699805,2958.0,1.43143994451037633973427291699805
87,3028.63376999429283294442028302969210,3027.2,1.43376999429283294442028302969210
88,3098.63607337105738830759518850734471,3097.2,1.43607337105738830759518850734471
89,3169.43835067901149102494192250211326,3168.0,1.43835067901149102494192250211326
90,3241.04060250205560364853190834507738,3239.6,1.44060250205560364853190834507738
91,3313.44282940468346370588970606764043,3312.0,1.44282940468346370588970606764043
92,3386.64503193283298762514483222583120,3385.2,1.44503193283298762514483222583120
93,3460.64721061469103154973675997865624,3459.2,1.44721061469103154973675997865624
94,3535.44936596145498009740175063905702,3534.0,1.44936596145498009740175063905702
95,3611.05149846805391296414425503975732,3609.6,1.45149846805391296414425503975732
96,3687.45360861383189745178058018663915,3686.0,1.45360861383189745178058018663915
97,3764.65569686319577065553632651206077,3763.2,1.45569686319577065553632651206077
98,3842.65776366622960217388523835652408,3841.2,1.45776366622960217388523835652408
99,3921.45980945927787473063216803229712,3920.0,1.45980945927787473063216803229712
100,4001.06183466549927375882748046243732,3999.6,1.46183466549927375882748046243732
101,4081.46383969539284769194964073358096,4080.0,1.46383969539284769194964073358096
102,4162.66582494729817513307356620676172,4161.2,1.46582494729817513307356620676172
103,4244.66779080787106715913180444718078,4243.2,1.46779080787106715913180444718078
104,4327.46973765253622575266945776919282,4326.0,1.46973765253622575266945776919282
105,4411.07166584591818627973717294300702,4409.6,1.47166584591818627973717294300702
106,4495.47357574225178116832783148287366,4494.0,1.47357574225178116832783148287366
107,4580.67546768577328385980906145399159,4579.2,1.47546768577328385980906145399159
108,4666.67734201109331286625178597768651,4665.2,1.47734201109331286625178597768651
109,4753.47919904355250717302553801655719,4752.0,1.47919904355250717302553801655719
110,4841.08103909956092180590730316464982,4839.6,1.48103909956092180590730316464982
111,4929.48286248692202652075638556514363,4928.0,1.48286248692202652075638556514363
112,5018.68466950514214114017784667193977,5017.2,1.48466950514214114017784667193977
113,5108.68646044572608552580495081131960,5107.2,1.48646044572608552580495081131960
114,5199.48823559245977341707925281779684,5198.0,1.48823559245977341707925281779684
115,5291.08999522168043891890748976045407,5289.6,1.48999522168043891890748976045407
116,5383.49173960253513608892928411271739,5382.0,1.49173960253513608892928411271739
117,5476.69346899722812036212663538195055,5475.2,1.49346899722812036212663538195055
118,5570.69518366125767951940480157099958,5569.2,1.49518366125767951940480157099958
119,5665.49688384364294819306024476162661,5664.0,1.49688384364294819306024476162661
120,5761.09856978714121405982179248823361,5759.6,1.49856978714121405982179248823361
121,5857.50024172845618560490932300693401,5856.0,1.50024172845618560490932300693401
122,5954.70189989843767242742597151063414,5953.2,1.50189989843767242742597151063414
123,6052.70354452227309686447212047216700,6051.2,1.50354452227309686447212047216700
124,6151.50517581967123803156402282600156,6150.0,1.50517581967123803156402282600156
125,6251.10679400503857981068208320064829,6249.6,1.50679400503857981068208320064829
126,6351.50839928764861911997952003860447,6350.0,1.50839928764861911997952003860447
127,6452.70999187180447022130024201343976,6451.2,1.50999187180447022130024201343976
128,6554.71157195699507823447001908755271,6553.2,1.51157195699507823447001908755271
129,6657.51313973804534295409023849455322,6656.0,1.51313973804534295409023849455322
130,6761.11469540526043568270152128544273,6759.6,1.51469540526043568270152128544273
131,6865.51623914456457639007126169059164,6864.0,1.51623914456457639007126169059164
132,6970.71777113763452353116326666578611,6969.2,1.51777113763452353116326666578611
133,7076.71929156202801707376641300621267,7075.2,1.51929156202801707376641300621267
134,7183.52080059130740401080938466354915,7182.0,1.52080059130740401080938466354915
135,7291.12229839515865752404739294964628,7289.6,1.52229839515865752404739294964628
136,7399.52378513950599727828279256694309,7398.0,1.52378513950599727828279256694309
137,7508.72526098662230501734475842534422,7507.2,1.52526098662230501734475842534422
138,7618.72672609523551602106540441437607,7617.2,1.52672609523551602106540441437607
139,7729.52818062063116487659112339738046,7728.0,1.52818062063116487659112339738046
140,7841.12962471475124857140569475643531,7839.6,1.52962471475124857140569475643531
141,7953.53105852628956535795525016895605,7952.0,1.53105852628956535795525016895605
142,8066.73248220078367976650639465180966,8065.2,1.53248220078367976650639465180966
143,8180.73389588070365549270484622528468,8179.2,1.53389588070365549270484622528468
144,8295.53529970553769070666987559261998,8294.0,1.53529970553769070666987559261998
145,8411.13669381187478614270706298996868,8409.6,1.53669381187478614270706298996868
146,8527.53807833348456845998022711918415,8526.0,1.53807833348456845998022711918415
147,8644.73945340139438316151941554686217,8643.2,1.53945340139438316151941554686217
148,8762.74081914396377240091768455584805,8761.2,1.54081914396377240091768455584805
149,8881.54217568695643947800287868530213,8880.0,1.54217568695643947800287868530213
150,9001.14352315360980366469658206215264,8999.6,1.54352315360980366469658206215264
151,9121.54486166470224127565993373662944,9120.0,1.54486166470224127565993373662944
152,9242.74619133861810328324538385992745,9241.2,1.54619133861810328324538385992745
153,9364.74751229141059842680577278250251,9363.2,1.54751229141059842680577278250251
154,9487.54882463686262571596703789143212,9486.0,1.54882463686262571596703789143212
155,9611.15012848654563456422832478052849,9609.6,1.55012848654563456422832478052849
156,9735.55142394987659041963306756612272,9734.0,1.55142394987659041963306756612272
157,9860.75271113417311693949846440680210,9859.2,1.55271113417311693949846440680210
158,9986.75399014470688652770179777592329,9985.2,1.55399014470688652770179777592329
159,10113.5552610847553229077568256634396,10112.0,1.5552610847553229077568256634396
160,10241.1565240556516820696313450106243,10239.6,1.5565240556516820696313450106243
161,10369.5577791568335700868429659917592,10368.0,1.5577791568335700868429659917592
162,10498.7590264858899572653622992730063,10497.2,1.5590264858899572653622992730063
163,10628.7602661386067434780569618595973,10627.2,1.5602661386067434780569618595973
164,10759.5614982090109293217180044066830,10758.0,1.5614982090109293217180044066830
165,10891.1627227894134416973402908498211,10889.6,1.5627227894134416973402908498211
166,11023.5639399704506643297090088173413,11022.0,1.5639399704506643297090088173413
167,11156.7651498411247204590859088588108,11155.2,1.5651498411247204590859088588108
168,11290.7663524888425503943941272063699,11289.2,1.5663524888425503943941272063699
169,11425.5675479994538289904846715475446,11424.0,1.5675479994538289904846715475446
170,11561.1687364572877627931072101748498,11559.6,1.5687364572877627931072101748498
171,11697.5699179451888070465603707622908,11696.0,1.5699179451888070465603707622908
172,11834.7710925445513404312068313775376,11833.2,1.5710925445513404312068313775376
173,11972.7722603353533329337219974565281,11971.2,1.5722603353533329337219974565281
174,12111.5734213961890426941403498802751,12110.0,1.5734213961890426941403498802751
175,12251.1745758043007758151933748168603,12249.6,1.5745758043007758151933748168603
176,12391.5757236356097388408659416590192,12390.0,1.5757236356097388408659416590192
177,12532.7768649647460171652943784969892,12531.2,1.5768649647460171652943784969892
178,12674.7779998650777085270004073865274,12673.2,1.5779998650777085270004073865274
179,12817.5791284087392380340190914837782,12816.0,1.5791284087392380340190914837782
180,12961.1802506666588856669441203903530,12959.6,1.5802506666588856669441203903530
181,13105.5813667085855489091143299742368,13104.0,1.5813667085855489091143299742368
182,13250.7824766031147681999788456686063,13249.2,1.5824766031147681999788456686063
183,13396.7835804177140382615813933060102,13395.2,1.5835804177140382615813933060102
184,13543.5846782187474295403796639562716,13542.0,1.5846782187474295403796639562716
185,13691.1857700714995415732197273724627,13689.6,1.5857700714995415732197273724627
186,13839.5868560401988092467924905681426,13838.0,1.5868560401988092467924905681426
187,13988.7879361880401857517986350976783,13987.2,1.5879361880401857517986350976783
188,14138.7890105772072176688756019565624,14137.2,1.5890105772072176688756019565624
189,14289.5900792688935359181332697301079,14288.0,1.5900792688935359181332697301079
190,14441.1911423233237782241469546755156,14439.6,1.5911423233237782241469546755156
191,14593.5921997997739623197474284295110,14592.0,1.5921997997739623197474284295110
192,14746.7932517565913262716157475672843,14745.2,1.5932517565913262716157475672843
193,14900.7942982512136542323529770430816,14899.2,1.5942982512136542323529770430816
194,15055.5953393401881009606462142771646,15054.0,1.5953393401881009606462142771646
195,15211.1963750791895330427490157365920,15209.6,1.5963750791895330427490157365920
196,15367.5974055230384005080505806447684,15366.0,1.5974055230384005080505806447684
197,15524.7984307257181532149523216734424,15523.2,1.5984307257181532149523216734424
198,15682.7994507403922161699445259220735,15681.2,1.5994507403922161699445259220735
199,15841.6004656194205366146742504075067,15840.0,1.6004656194205366146742504075067
200,16001.2014754143757168221594083960975,15999.6,1.6014754143757168221594083960975
201,16161.6024801760587435795440299049897,16160.0,1.6024801760587435795440299049897
202,16322.8034799545143277345476646156487,16321.2,1.6034799545143277345476646156487
203,16484.8044747990458644613489114212645,16483.2,1.6044747990458644613489114212645
204,16647.6054647582300258618518117352905,16646.0,1.6054647582300258618518117352905
205,16811.2064498799309958687545617495747,16809.6,1.6064498799309958687545617495747
206,16975.6074302113143604702514988846693,16974.0,1.6074302113143604702514988846693
207,17140.8084057988606591281504145013953,17139.2,1.6084057988606591281504145013953
208,17306.8093766883786116119946334162020,17305.2,1.6093766883786116119946334162020
209,17473.6103429250180259932271498633080,17472.0,1.6103429250180259932271498633080
210,17641.2113045532823992962323749763319,17639.6,1.6113045532823992962323749763319
211,17809.6122616170412181664758434489171,17808.0,1.6122616170412181664758434489171
212,17978.8132141595419697841573515541365,17977.2,1.6132141595419697841573515541365
213,18148.8141622234218674025874392583637,18147.2,1.6141622234218674025874392583637
214,18319.6151058507193054883210513030315,18318.0,1.6151058507193054883210513030315
215,18491.2160450828850436706554531937907,18489.6,1.6160450828850436706554531937907
216,18663.6169799607931334563570123071609,18662.0,1.6169799607931334563570123071609
217,18836.8179105247515916700953439467111,18835.2,1.6179105247515916700953439467111
218,19010.8188368145128295945070694963314,19009.2,1.6188368145128295945070694963314
219,19185.6197588692838410843309383651919,19184.0,1.6197588692838410843309383651919
220,19361.2206767277361621642782793118210,19359.6,1.6206767277361621642782793118210
221,19537.6215904280156000145060276699394,19536.0,1.6215904280156000145060276699394
222,19714.8225000077517485426672315355101,19713.2,1.6225000077517485426672315355101
223,19892.8234055040672841050177985909370,19891.2,1.6234055040672841050177985909370
224,20071.6243069535870564375650511290604,20070.0,1.6243069535870564375650511290604
225,20251.2252043924469773555259167867065,20249.6,1.6252043924469773555259167867065
226,20431.6260978563027107608006888295573,20430.0,1.6260978563027107608006888295573
227,20612.8269873803381726021153786947295,20611.2,1.6269873803381726021153786947295
228,20794.8278729992738425998829183426386,20793.2,1.6278729992738425998829183426386
229,20977.6287547473748948898188146280515,20976.0,1.6287547473748948898188146280515
230,21161.2296326584591522734843009164885,21159.6,1.6296326584591522734843009164885
231,21345.6305067659048658670050160356078,21344.0,1.6305067659048658670050160356078
232,21530.8313771026583305589072231687706,21529.2,1.6313771026583305589072231687706
233,21716.8322437012413312646474798862608,21715.2,1.6322437012413312646474798862608
234,21903.6331065937584361260229836215441,21902.0,1.6331065937584361260229836215441
235,22091.2339658119041298287326458635218,22089.6,1.6339658119041298287326458635218
236,22279.6348213869697967390813135376914,22278.0,1.6348213869697967390813135376914
237,22468.8356733498505574822336501792305,22467.2,1.6356733498505574822336501792305
238,22658.8365217310519606953581006894034,22657.2,1.6365217310519606953581006894034
