Eigenstate,Energy,Kinetic Energy,Potential Energy
1,0.500000000252916115794165671816703256,0.0,0.500000000252916115794165671816703256
2,1.84623093930203380432622474980635175,1.2,0.64623093930203380432622474980635175
3,3.93633761455448388872832483041441681,3.2,0.73633761455448388872832483041441681
4,6.79966528791540028292574345001346544,6.0,0.79966528791540028292574345001346544
5,10.4480465927833829934428912777098761,9.6,0.8480465927833829934428912777098761
6,14.8870660239471756974918271861893683,14.0,0.8870660239471756974918271861893683
7,20.1197208628611447290654919346171691,19.2,0.9197208628611447290654919346171691
8,26.1477838959110167798757141945017464,25.2,0.9477838959110167798757141945017464
9,32.9723836221084389094570548768490226,32.0,0.9723836221084389094570548768490226
10,40.5942802956056501804150755755515106,39.6,0.9942802956056501804150755755515106
11,49.0140094865464623309275094990251462,48.0,1.0140094865464623309275094990251462
12,58.2319622902377948297361571120097122,57.2,1.0319622902377948297361571120097122
13,68.2484328367474863581968867561922616,67.2,1.0484328367474863581968867561922616
14,79.0636478237605828261498076871002627,78.0,1.0636478237605828261498076871002627
15,90.6777856323935986244618075654563415,89.6,1.0777856323935986244618075654563415
16,103.090989132065009788735672626511258,102.0,1.090989132065009788735672626511258
17,116.303374513956789783646782025465970,115.2,1.103374513956789783646782025465970
18,130.315037542020630206606940922032962,129.2,1.115037542020630206606940922032962
19,145.126058076081933168109118404537641,144.0,1.126058076081933168109118404537641
20,160.736503409473758258047120064038158,159.6,1.136503409473758258047120064038158
21,177.146430775118527401237411594025122,176.0,1.146430775118527401237411594025122
22,194.355889256686770713462958732355542,193.2,1.155889256686770713462958732355542
23,212.364921266533655511470898027317656,211.2,1.164921266533655511470898027317656
24,231.173563703099411852854052784498697,230.0,1.173563703099411852854052784498697
25,250.781848867705261604312137380776980,249.6,1.181848867705261604312137380776980
26,271.189805198361008353150493076666119,270.0,1.189805198361008353150493076666119
27,292.397457862727615021358831622912030,291.2,1.197457862727615021358831622912030
28,314.404829241476245195510034990309184,313.2,1.204829241476245195510034990309184
29,337.211939325490216338624816731263648,336.0,1.211939325490216338624816731263648
30,360.818806044706825462870818640553790,359.6,1.218806044706825462870818640553790
31,385.225445542250069329076450289127536,384.0,1.225445542250069329076450289127536
32,410.431872404427381645071980603384516,409.2,1.231872404427381645071980603384516
33,436.438099854853861923995472773091079,435.2,1.238099854853861923995472773091079
34,463.244139919216924392571777821241236,462.0,1.244139919216924392571777821241236
35,490.850003565855100269972706129343376,489.6,1.250003565855100269972706129343376
36,519.255700826291247856537987090918248,518.0,1.255700826291247856537987090918248
37,548.461240899056340321015386994666723,547.2,1.261240899056340321015386994666723
38,578.466632239509582330227209051725881,577.2,1.266632239509582330227209051725881
39,609.271882637862758014311721361969574,608.0,1.271882637862758014311721361969574
40,640.876999287220891976178283536926334,639.6,1.276999287220891976178283536926334
41,673.281988843134554779338408089954325,672.0,1.281988843134554779338408089954325
42,706.486857475904151746174774795991353,705.2,1.286857475904151746174774795991353
43,740.491610916670047553321757823255587,739.2,1.291610916670047553321757823255587
44,775.296254498154285094950154160316835,774.0,1.296254498154285094950154160316835
45,810.900793190782087515450409256681780,809.6,1.300793190782087515450409256681780
46,847.305231634798196030172065180499130,846.0,1.305231634798196030172065180499130
47,884.509574168899619540348493815627008,883.2,1.309574168899619540348493815627008
48,922.513824855828785683928536991047431,921.2,1.313824855828785683928536991047431
49,961.317987505306420420008947525157246,960.0,1.317987505306420420008947525157246
50,1000.92206569462936053080130234492841,999.6,1.32206569462936053080130234492841
51,1041.32606278721303646250686822780493,1040.0,1.32606278721303646250686822780493
52,1082.52998194932001771210022043632808,1081.2,1.32998194932001771210022043632808
53,1124.53382616518356284841648494658627,1123.2,1.33382616518356284841648494658627
54,1167.33759825070755512443137517529418,1166.0,1.33759825070755512443137517529418
55,1210.94130086590072914506969841219765,1209.6,1.34130086590072914506969841219765
56,1255.34493652618301948471880070414133,1254.0,1.34493652618301948471880070414133
57,1300.54850761268466318347544993869351,1299.2,1.34850761268466318347544993869351
58,1346.55201638164389086484162138046792,1345.2,1.35201638164389086484162138046792
59,1393.35546497299628727028790427908358,1392.0,1.35546497299628727028790427908358
60,1440.95885541823787749838678005055132,1439.6,1.35885541823787749838678005055132
61,1489.36218964763443100869942389097570,1488.0,1.36218964763443100869942389097570
62,1538.56546949684117444547633148411543,1537.2,1.36546949684117444547633148411543
63,1588.56869671298986244720197154518038,1587.2,1.36869671298986244720197154518038
64,1639.37187296029384312808537917119965,1638.0,1.37187296029384312808537917119965
65,1690.97499982521622007762139217955650,1689.6,1.37499982521622007762139217955650
66,1743.37807882124136538528764077411418,1742.0,1.37807882124136538528764077411418
67,1796.58111139328577590611523904087039,1795.2,1.38111139328577590611523904087039
68,1850.58409892178050882205984993409049,1849.2,1.38409892178050882205984993409049
69,1905.38704272645411988337408654369695,1904.0,1.38704272645411988337408654369695
70,1960.98994406984209944591459920811239,1959.6,1.38994406984209944591459920811239
71,2017.39280416054620271659108417515186,2016.0,1.39280416054620271659108417515186
72,2074.59562415626477237678151202677238,2073.2,1.39562415626477237678151202677238
73,2132.59840516661309874713998841458096,2131.2,1.39840516661309874713998841458096
74,2191.40114825575104380867000229843456,2190.0,1.40114825575104380867000229843456
75,2251.00385444483352429383779575020096,2249.6,1.40385444483352429383779575020096
76,2311.40652471429799950474627278180445,2310.0,1.40652471429799950474627278180445
77,2372.60916000600180711697708135050488,2371.2,1.40916000600180711697708135050488
78,2434.61176122522102442953111530820300,2433.2,1.41176122522102442953111530820300
79,2497.41432924252148570130977217616871,2496.0,1.41432924252148570130977217616871
80,2561.01686489551164808893812673666576,2559.6,1.41686489551164808893812673666576
81,2625.41936899048614935926138028326928,2624.0,1.41936899048614935926138028326928
82,2690.62184230396813909929500636750959,2689.2,1.42184230396813909929500636750959
83,2756.62428558415777641262577785032310,2755.2,1.42428558415777641262577785032310
84,2823.42669955229366279954977123606734,2822.0,1.42669955229366279954977123606734
85,2891.02908490393341964206518198184267,2889.6,1.42908490393341964206518198184267
86,2959.43144231015910384945382980193162,2958.0,1.43144231015910384945382980193162
87,3028.63377241871269774939267217245159,3027.2,1.43377241871269774939267217245159
88,3098.63607585506648593180546859909411,3097.2,1.43607585506648593180546859909411
89,3169.43835322343274825051064251463077,3168.0,1.43835322343274825051064251463077
90,3241.04060510771685497099796581319384,3239.6,1.44060510771685497099796581319384
91,3313.44283207241752860062416136390193,3312.0,1.44283207241752860062416136390193
92,3386.64503466347774863998299649488833,3385.2,1.44503466347774863998299649488833
93,3460.64721340908951323915943065832216,3459.2,1.44721340908951323915943065832216
94,3535.44936882045542881384478982898231,3534.0,1.44936882045542881384478982898231
95,3611.05150139250987752226940474200707,3609.6,1.45150139250987752226940474200707
96,3687.45361160460231068179972817059427,3686.0,1.45361160460231068179972817059427
97,3764.65569992114503186194660563322376,3763.2,1.45569992114503186194660563322376
98,3842.65776679222766051624232966876109,3841.2,1.45776679222766051624232966876109
99,3921.45981265420031354326626541258168,3920.0,1.45981265420031354326626541258168
100,4001.06183793022739582668839381059161,3999.6,1.46183793022739582668839381059161
101,4081.46384303081376150005684758875683,4080.0,1.46384303081376150005684758875683
102,4162.66582835430488210734117952983136,4161.2,1.46582835430488210734117952983136
103,4244.66779428736254991664016707445479,4243.2,1.46779428736254991664016707445479
104,4327.46974120541753737976340654994792,4326.0,1.46974120541753737976340654994792
105,4411.07166947310054065664528450140051,4409.6,1.47166947310054065664528450140051
106,4495.47357944465264435931857992650225,4494.0,1.47357944465264435931857992650225
107,4580.67547146431646658822883450653438,4579.2,1.47547146431646658822883450653438
108,4666.67734586670906409412577668279689,4665.2,1.47734586670906409412577668279689
109,4753.47920297717760880524507980351427,4752.0,1.47920297717760880524507980351427
110,4841.08104311213878453937879795972055,4839.6,1.48104311213878453937879795972055
111,4929.48286657940278685924566658435564,4928.0,1.48286657940278685924566658435564
112,5018.68467367848275959594976764488450,5017.2,1.48467367848275959594976764488450
113,5108.68646470089044602953325214174161,5107.2,1.48646470089044602953325214174161
114,5199.48823993041878395788447896707819,5198.0,1.48823993041878395788447896707819
115,5291.08999964341213343677211531768054,5289.6,1.48999964341213343677211531768054
116,5383.49174410902477764213972495176264,5382.0,1.49174410902477764213972495176264
117,5476.69347358946830559280033958028555,5475.2,1.49347358946830559280033958028555
118,5570.69518834024844444057941626806815,5569.2,1.49518834024844444057941626806815
119,5665.49688861039187532124910281846683,5664.0,1.49688861039187532124910281846683
120,5761.09857464266354091737652037460117,5759.6,1.49857464266354091737652037460117
121,5857.50024667377491461697844406436851,5856.0,1.50024667377491461697844406436851
122,5954.70190493458368223875381134354209,5953.2,1.50190493458368223875381134354209
123,6052.70354965028525510175077854073936,6051.2,1.50354965028525510175077854073936
124,6151.50518104059651553752757519371222,6150.0,1.50518104059651553752757519371222
125,6251.10679931993216637662155931323350,6249.6,1.50679931993216637662155931323350
126,6351.50840469757404074385596762773979,6350.0,1.50840469757404074385596762773979
127,6452.70999737783370791914417974713317,6451.2,1.50999737783370791914417974713317
128,6554.71157756020868843327769158616508,6553.2,1.51157756020868843327769158616508
129,6657.51314543953257949496144162278719,6656.0,1.51314543953257949496144162278719
130,6761.11470120611937346350927837132014,6759.6,1.51470120611937346350927837132014
131,6865.51624504590223667751290371607356,6864.0,1.51624504590223667751290371607356
132,6970.71777714056700097261437453865486,6969.2,1.51777714056700097261437453865486
133,7076.71929766768060843994191950163166,7075.2,1.51929766768060843994191950163166
134,7183.52080680081473870083529787633165,7182.0,1.52080680081473870083529787633165
135,7291.12230470966482986515795741293223,7289.6,1.52230470966482986515795741293223
136,7399.52379156016470065298267631980906,7398.0,1.52379156016470065298267631980906
137,7508.72526751459696785151724365100096,7507.2,1.52526751459696785151724365100096
138,7618.72673273169943966716008910667154,7617.2,1.52673273169943966716008910667154
139,7729.52818736676766342669711566812393,7728.0,1.52818736676766342669711566812393
140,7841.12963157175379063570017612378419,7839.6,1.52963157175379063570017612378419
141,7953.53106549536191784471811617140552,7952.0,1.53106549536191784471811617140552
142,8066.73248928314005370061091616470304,8065.2,1.53248928314005370061091616470304
143,8180.73390307756885391022728942912862,8179.2,1.53390307756885391022728942912862
144,8295.53530701814725866401282578988112,8294.0,1.53530701814725866401282578988112
145,8411.13670124147516287940092611375982,8409.6,1.53670124147516287940092611375982
146,8527.53808588133324175511316691761321,8526.0,1.53808588133324175511316691761321
147,8644.73946106876004592455348807099274,8643.2,1.53946106876004592455348807099274
148,8762.74082693212648153847216285828985,8761.2,1.54082693212648153847216285828985
149,8881.54218359720777707903007450410550,8880.0,1.54218359720777707903007450410550
150,9001.14353118725304054733969191515071,8999.6,1.54353118725304054733969191515071
151,9121.54486982305250293996803562713537,9120.0,1.54486982305250293996803562713537
152,9242.74619962300253831482472153918618,9241.2,1.54619962300253831482472153918618
153,9364.74752070316854939741505610514310,9363.2,1.54752070316854939741505610514310
154,9487.54883317734580262801300679556024,9486.0,1.54883317734580262801300679556024
155,9611.15013715711829088709064517205044,9609.6,1.55013715711829088709064517205044
156,9735.55143275191570176674320301551841,9734.0,1.55143275191570176674320301551841
157,9860.75272006906856243611604027348777,9859.2,1.55272006906856243611604027348777
158,9986.75399921386163292037702718753765,9985.2,1.55399921386163292037702718753765
159,10113.5552702895856114675357937314465,10112.0,1.5552702895856114675357937314465
160,10241.1565333975872183421574999222903,10239.6,1.5565333975872183421574999222903
161,10369.5577886373177165436295317159079,10368.0,1.5577886373177165436295317159079
162,10498.7590361063799289116594910246738,10497.2,1.5590361063799289116594910246738
163,10628.7602759005738064739159707922334,10627.2,1.5602759005738064739159707922334
164,10759.5615081139406026740594351167628,10758.0,1.5615081139406026740594351167628
165,10891.1627328388057020820708192130322,10889.6,1.5627328388057020820708192130322
166,11023.5639501658201541041967794813116,11022.0,1.5639501658201541041967794813116
167,11156.7651601840009589266024387153831,11155.2,1.5651601840009589266024387153831
168,11290.7663629807701483834606984599428,11289.2,1.5663629807701483834606984599428
169,11425.5675586419927068134234791206750,11424.0,1.5675586419927068134234791206750
170,11561.1687472520133716494949765817268,11559.6,1.5687472520133716494949765817268
171,11697.5699288936923539387136924685540,11696.0,1.5699288936923539387136924685540
172,11834.7711036484400166602955985212924,11833.2,1.5711036484400166602955985212924
173,11972.7722715962505462466119000116077,11971.2,1.5722715962505462466119000116077
174,12111.5734328157346531526078453215944,12110.0,1.5734328157346531526078453215944
175,12251.1745873841513354607374781460835,12249.6,1.5745873841513354607374781460835
176,12391.5757353774387352299625497496123,12390.0,1.5757353774387352299625497496123
177,12532.7768768702441208516007862093173,12531.2,1.5768768702441208516007862093173
178,12674.7780119359530245687225551340878,12673.2,1.5780119359530245687225551340878
179,12817.5791406467175616064029073771163,12816.0,1.5791406467175616064029073771163
180,12961.1802630734839618616443260222948,12959.6,1.5802630734839618616443260222948
181,13105.5813792860193368040328524590225,13104.0,1.5813792860193368040328524590225
182,13250.7824893529377092850527315839313,13249.2,1.5824893529377092850527315839313
183,13396.7835933417253293079338369454077,13395.2,1.5835933417253293079338369454077
184,13543.5846913187653000022329887342386,13542.0,1.5846913187653000022329887342386
185,13691.1857833493615356140067855168275,13689.6,1.5857833493615356140067855168275
186,13839.5868694977620724829915986105276,13838.0,1.5868694977620724829915986105276
187,13988.7879498271817568101614598908615,13987.2,1.5879498271817568101614598908615
188,14138.7890243998243246549193338721503,14137.2,1.5890243998243246549193338721503
189,14289.5900932769038978960253741995326,14288.0,1.5900932769038978960253741995326
190,14441.1911565186659118104285524787707,14439.6,1.5911565186659118104285524787707
191,14593.5922141844074934957213917907488,14592.0,1.5922141844074934957213917907488
192,14746.7932663324973075216676678140212,14745.2,1.5932663324973075216676678140212
193,14900.7943130203948871179790352441651,14899.2,1.5943130203948871179790352441651
194,15055.5953543046694642425378960325147,15054.0,1.5953543046694642425378960325147
195,15211.1963902410183164659259758675466,15209.6,1.5963902410183164659259758675466
196,15367.5974208842846443677477607975669,15366.0,1.5974208842846443677477607975669
197,15524.7984462884749938237535239021619,15523.2,1.5984462884749938237535239021619
198,15682.7994665067762373495168114524503,15681.2,1.5994665067762373495168114524503
199,15841.6004815915721273383986511478497,15840.0,1.6004815915721273383986511478497
200,16001.2014915944594351379705979339151,15999.6,1.6014915944594351379705979339151
201,16161.6024965662636869453948498950892,16160.0,1.6024965662636869453948498950892
202,16322.8034965570545099021016994912930,16321.2,1.6034965570545099021016994912930
203,16484.8044916161605990467755736059480,16483.2,1.6044916161605990467755736059480
204,16647.6054817921843167459664428736996,16646.0,1.6054817921843167459664428736996
205,16811.2064671330159345721989762899541,16809.6,1.6064671330159345721989762899541
206,16975.6074476858475306529656602437563,16974.0,1.6074476858475306529656602437563
207,17140.8084234971865483660371034957203,17139.2,1.6084234971865483660371034957203
208,17306.8093946128690306074303406055844,17305.2,1.6093946128690306074303406055844
209,17473.6103610780725353799324846183541,17472.0,1.6103610780725353799324846183541
210,17641.2113229373287442029800555767583,17639.6,1.6113229373287442029800555767583
211,17809.6122802345357707081929720815637,17808.0,1.6122802345357707081929720815637
212,17978.8132330129701796531708057908785,17977.2,1.6132330129701796531708057908785
213,18148.8141813152987207370741551087415,18147.2,1.6141813152987207370741551087415
214,18319.6151251835897921994574680558656,18318.0,1.6151251835897921994574680558656
215,18491.2160646593246334145225467138436,18489.6,1.6160646593246334145225467138436
216,18663.6169997834082604413474602364343,18662.0,1.6169997834082604413474602364343
217,18836.8179305961801484953956144758430,18835.2,1.6179305961801484953956144758430
218,19010.8188571374246703201909031807475,19009.2,1.6188571374246703201909031807475
219,19185.6197794463812937387106741550308,19184.0,1.6197794463812937387106741550308
220,19361.2206975617545508994143109785177,19359.6,1.6206975617545508994143109785177
221,19537.6216115217237771261852881442587,19536.0,1.6216115217237771261852881442587
222,19714.8225213639526365767280698575437,19713.2,1.6225213639526365767280698575437
223,19892.8234271255984282776286629771493,19891.2,1.6234271255984282776286629771493
224,20071.6243288433211876029621513427919,20070.0,1.6243288433211876029621513427919
225,20251.2252265532925857607888185809006,20249.6,1.6252265532925857607888185809006
226,20431.6261202912046308334938264877982,20430.0,1.6261202912046308334938264877982
227,20612.8270100922781790230648244465330,20611.2,1.6270100922781790230648244465330
228,20794.8278959912712579199841267637653,20793.2,1.6278959912712579199841267637653
229,20977.6287780224872089565994910629333,20976.0,1.6287780224872089565994910629333
230,21161.2296562197826537401796930736717,21159.6,1.6296562197826537401796930736717
231,21345.6305306165752860641464785566587,21344.0,1.6305306165752860641464785566587
232,21530.8314012458515000158876859765163,21529.2,1.6314012458515000158876859765163
233,21716.8322681401738491764166187709527,21715.2,1.6322681401738491764166187709527
234,21903.6331313316883530679907953983459,21902.0,1.6331313316883530679907953983459
235,22091.2339908521316440311211025056727,22089.6,1.6339908521316440311211025056727
236,22279.6348467328379642403826800817125,22278.0,1.6348467328379642403826800817125
237,22468.8356990047460164901102788288469,22467.2,1.6356990047460164901102788288469
238,22658.8365476984056704922533675292747,22657.2,1.6365476984056704922533675292747
