Eigenstate,Energy,Kinetic Energy,Potential Energy
1,0.500000000084313561958723282823960786,0.0,0.500000000084313561958723282823960786
2,1.84623093820147073198675771804276151,1.2,0.64623093820147073198675771804276151
3,3.93633761132160725054736298294159099,3.2,0.73633761132160725054736298294159099
4,6.79966528118151212186942417285062804,6.0,0.79966528118151212186942417285062804
5,10.4480465811185238272486381152579027,9.6,0.8480465811185238272486381152579027
6,14.8870660058961147402458955512570592,14.0,0.8870660058961147402458955512570592
7,20.1197208369566021539173984514425650,19.2,0.9197208369566021539173984514425650
8,26.1477838606791423969323432031589387,25.2,0.9477838606791423969323432031589387
9,32.9723835760713270732230612565755089,32.0,0.9723835760713270732230612565755089
10,40.5942802372825860784364307404122328,39.6,0.9942802372825860784364307404122328
11,49.0140094144545710101469778824093957,48.0,1.0140094144545710101469778824093957
12,58.2319622028923858120846099650663919,57.2,1.0319622028923858120846099650663919
13,68.2484327326622324780724762998006644,67.2,1.0484327326622324780724762998006644
14,79.0636477014476036056997286312628477,78.0,1.0636477014476036056997286312628477
15,90.6777854903634860008082614803048041,89.6,1.0777854903634860008082614803048041
16,103.090988968826817571163481894615132,102.0,1.090988968826817571163481894615132
17,116.303374328017999458436574764481933,115.2,1.103374328017999458436574764481933
18,130.315037331887100820142867863435794,129.2,1.115037331887100820142867863435794
19,145.126057840257840181716868047472300,144.0,1.126057840257840181716868047472300
20,160.736503146461524562070309139208875,159.6,1.136503146461524562070309139208875
21,177.146430483418748617696632582459345,176.0,1.146430483418748617696632582459345
22,194.355888934798136241827068665460406,193.2,1.155888934798136241827068665460406
23,212.364920912952866330889240620522055,211.2,1.164920912952866330889240620522055
24,231.173563316321095799224025926266853,230.0,1.173563316321095799224025926266853
25,250.781848446221886639290579733670990,249.6,1.181848446221886639290579733670990
26,271.189804740662794202329894168838957,270.0,1.189804740662794202329894168838957
27,292.397457367302443459946774538669991,291.2,1.197457367302443459946774538669991
28,314.404828706809569188861887695905983,313.2,1.204828706809569188861887695905983
29,337.211938750064968193284286461436138,336.0,1.211938750064968193284286461436138
30,360.818805427003324105627101431029270,359.6,1.218805427003324105627101431029270
31,385.225444880745926803051715605388662,384.0,1.225444880745926803051715605388662
32,410.431871697597408890322732823787129,409.2,1.231871697597408890322732823787129
33,436.438099101169973893668252076829658,435.2,1.238099101169973893668252076829658
34,463.244139117148044542968793469481999,462.0,1.244139117148044542968793469481999
35,490.850002713867064453003492751169999,489.6,1.250002713867064453003492751169999
36,519.255699922846707635268941894774248,518.0,1.255699922846707635268941894774248
37,548.461239942614665722873465358241920,547.2,1.261239942614665722873465358241920
38,578.466631228526764047493592824083223,577.2,1.266631228526764047493592824083223
39,609.271881570791309057575651181992542,608.0,1.271881570791309057575651181992542
40,640.876998162509748783199945232284407,639.6,1.276998162509748783199945232284407
41,673.281987659228977779132826445783993,672.0,1.281987659228977779132826445783993
42,706.486856231245625375952934090240150,705.2,1.286856231245625375952934090240150
43,740.491609609696179724116323649790683,739.2,1.291609609696179724116323649790683
44,775.296253127298706100237765081986517,774.0,1.296253127298706100237765081986517
45,810.900791754474348375802450063347684,809.6,1.300791754474348375802450063347684
46,847.305230131463666265876141990054941,846.0,1.305230131463666265876141990054941
47,884.509572596959384363007801640629693,883.2,1.309572596959384363007801640629693
48,922.513823213699542597236555901618755,921.2,1.313823213699542597236555901618755
49,961.317985791400375219190426867801218,960.0,1.317985791400375219190426867801218
50,1000.92206390735412268958812354416241,999.6,1.32206390735412268958812354416241
51,1041.32606092497151389596421535379697,1040.0,1.32606092497151389596421535379697
52,1082.52998001051031090312279679943065,1081.2,1.32998001051031090312279679943065
53,1124.53382414819885832526590995881295,1123.2,1.33382414819885832526590995881295
54,1167.33759615393601827627615533366928,1166.0,1.33759615393601827627615533366928
55,1210.94129868772539636211190354374951,1209.6,1.34129868772539636211190354374951
56,1255.34493426498168960914081770495687,1254.0,1.34493426498168960914081770495687
57,1300.54850526682978825711182836044594,1299.2,1.34850526682978825711182836044594
58,1346.55201394950246615916968752906364,1345.2,1.35201394950246615916968752906364
59,1393.35546245292974058403591550721849,1392.0,1.35546245292974058403591550721849
60,1440.95885280860195770777423711182283,1439.6,1.35885280860195770777423711182283
61,1489.36218694677909585505042561998806,1488.0,1.36218694677909585505042561998806
62,1538.56546670311047754468032315392628,1537.2,1.36546670311047754468032315392628
63,1588.56869382472183950523654285967312,1587.2,1.36869382472183950523654285967312
64,1639.37186997582039734656027994149411,1638.0,1.37186997582039734656027994149411
65,1690.97499674286300673305018107574676,1689.6,1.37499674286300673305018107574676
66,1743.37807563932767556554422205969817,1742.0,1.37807563932767556554422205969817
67,1796.58110811012441938728360864179269,1795.2,1.38110811012441938728360864179269
68,1850.58409553567769606863791282356672,1849.2,1.38409553567769606863791282356672
69,1905.38703923570934315454297234029381,1904.0,1.38703923570934315454297234029381
70,1960.98994047274801299033768757887890,1959.6,1.38994047274801299033768757887890
71,2017.39280045538850203795479244917028,2016.0,1.39280045538850203795479244917028
72,2074.59562034132207255203913636488063,2073.2,1.39562034132207255203913636488063
73,2132.59840124015681177916391963537966,2131.2,1.39840124015681177916391963537966
74,2191.40114421604525499476125144703569,2190.0,1.40114421604525499476125144703569
75,2251.00385029013486759128056233543029,2249.6,1.40385029013486759128056233543029
76,2311.40652044285553187433214662380356,2310.0,1.40652044285553187433214662380356
77,2372.60915561605688182515523623377198,2371.2,1.40915561605688182515523623377198
78,2434.61175671500716328956921249255164,2433.2,1.41175671500716328956921249255164
79,2497.41432461026425023357415331221422,2496.0,1.41432461026425023357415331221422
80,2561.01686013942850958012202937439840,2559.6,1.41686013942850958012202937439840
81,2625.41936410878635780010355471031557,2624.0,1.41936410878635780010355471031557
82,2690.62183729485259098004157391647390,2689.2,1.42183729485259098004157391647390
83,2756.62428044581888135519221411480665,2755.2,1.42428044581888135519221411480665
84,2823.42669428291520900503894473237425,2822.0,1.42669428291520900503894473237425
85,2891.02907950169043813199078512631147,2889.6,1.42907950169043813199078512631147
86,2959.43143677321773147870640668249214,2958.0,1.43143677321773147870640668249214
87,3028.63376674523003896866638246702651,3027.2,1.43376674523003896866638246702651
88,3098.63607004319047327687968681819729,3097.2,1.43607004319047327687968681819729
89,3169.43834727130200153544919659742505,3168.0,1.43834727130200153544919659742505
90,3241.04059901346053916199175607154773,3239.6,1.44059901346053916199175607154773
91,3313.44282583415521034685773663146017,3312.0,1.44282583415521034685773663146017
92,3386.64502827931925143755561980592188,3385.2,1.44502827931925143755561980592188
93,3460.64720687713477120373205421886003,3459.2,1.44720687713477120373205421886003
94,3535.44936213879433903731933771501897,3534.0,1.44936213879433903731933771501897
95,3611.05149455922215098843362753718349,3609.6,1.45149455922215098843362753718349
96,3687.45360461775732171549066298607192,3686.0,1.45360461775732171549066298607192
97,3764.65569277880166608589654522179308,3763.2,1.45569277880166608589654522179308
98,3842.65775949243416128937601062024290,3841.2,1.45775949243416128937601062024290
99,3921.45980519499412685381229671479175,3920.0,1.45980519499412685381229671479175
100,4001.06183030963501361305611683403988,3999.6,1.46183030963501361305611683403988
101,4081.46383524685056337200737776785510,4080.0,1.46383524685056337200737776785510
102,4162.66582040497497543955199078316337,4161.2,1.46582040497497543955199078316337
103,4244.66778617065860828632346863735233,4243.2,1.46778617065860828632346863735233
104,4327.46973291932063731954920091351501,4326.0,1.46973291932063731954920091351501
105,4411.07166101557999669348361758159478,4409.6,1.47166101557999669348361758159478
106,4495.47357081366584230968781629537757,4494.0,1.47357081366584230968781629537757
107,4580.67546265780869507945934127346208,4579.2,1.47546265780869507945934127346208
108,4666.67733688261334428116204012609009,4665.2,1.47733688261334428116204012609009
109,4753.47919381341452225167163916555593,4752.0,1.47919381341452225167163916555593
110,4841.08103376661629923102786131073558,4839.6,1.48103376661629923102786131073558
111,4929.48285705001608131818560801790716,4928.0,1.48285705001608131818560801790716
112,5018.68466396311404506212454143333591,5017.2,1.48466396311404506212454143333591
113,5108.68645479740878667678225754055773,5107.2,1.48645479740878667678225754055773
114,5199.48822983667991511052040702480002,5198.0,1.48822983667991511052040702480002
115,5291.08998935725827775233047394295564,5289.6,1.48998935725827775233047394295564
116,5383.49173362828445922533808333562269,5382.0,1.49173362828445922533808333562269
117,5476.69346291195616200515817428807022,5475.2,1.49346291195616200515817428807022
118,5570.69517746376503656954777055678336,5569.2,1.49517746376503656954777055678336
119,5665.49687753272349507208727131376263,5664.0,1.49687753272349507208727131376263
120,5761.09856336158201669038654546421676,5759.6,1.49856336158201669038654546421676
121,5857.50023518703741453206754393802139,5856.0,1.50023518703741453206754393802139
122,5954.70189323993251506864310703274142,5953.2,1.50189323993251506864310703274142
123,6052.70353774544766887447986421515854,6051.2,1.50353774544766887447986421515854
124,6151.50516892328449376822418947277760,6150.0,1.50516892328449376822418947277760
125,6251.10678698784222188780810875954209,6249.6,1.50678698784222188780810875954209
126,6351.50839214838700703285402476783991,6350.0,1.50839214838700703285402476783991
127,6452.70998460921452803041135253987970,6451.2,1.50998460921452803041135253987970
128,6554.71156456980620129276850204373530,6553.2,1.51156456980620129276850204373530
129,6657.51313222497930366284565261536159,6656.0,1.51313222497930366284565261536159
130,6761.11468776503128826080682609539827,6759.6,1.51468776503128826080682609539827
131,6865.51623137587856064141199220847592,6864.0,1.51623137587856064141199220847592
132,6970.71776323918996759442973798096981,6969.2,1.51776323918996759442973798096981
133,7076.71928353251523913884618287291537,7075.2,1.51928353251523913884618287291537
134,7183.52079242940861298564902006867404,7182.0,1.52079242940861298564902006867404
135,7291.12229009954785263562191228456766,7289.6,1.52229009954785263562191228456766
136,7399.52377670884886659105479679185268,7398.0,1.52377670884886659105479679185268
137,7508.72525241957612285233281380571075,7507.2,1.52525241957612285233281380571075
138,7618.72671739044903925837570393668800,7617.2,1.52671739044903925837570393668800
139,7729.52817177674452812399452220340284,7728.0,1.52817177674452812399452220340284
140,7841.12961573039585818126442144901702,7839.6,1.52961573039585818126442144901702
141,7953.53104940008799227452253200053736,7952.0,1.53104940008799227452253200053736
142,8066.73247293134955118533353214535063,8065.2,1.53247293134955118533353214535063
143,8180.73388646664154531359616115559419,8179.2,1.53388646664154531359616115559419
144,8295.53529014544300876132763206558236,8294.0,1.53529014544300876132763206558236
145,8411.13668410433366617790352084663758,8409.6,1.53668410433366617790352084663758
146,8527.53806847707375485678103440732305,8526.0,1.53806847707375485678103440732305
147,8644.73944339468111637076712628940049,8643.2,1.53944339468111637076712628940049
148,8762.74080898550567307486005936443437,8761.2,1.54080898550567307486005936443437
149,8881.54216537530139127761976147796414,8880.0,1.54216537530139127761976147796414
150,9001.14351268729583472194407732015568,8999.6,1.54351268729583472194407732015568
151,9121.54485104225740428950659352960459,9120.0,1.54485104225740428950659352960459
152,9242.74618055856035422802534942459206,9241.2,1.54618055856035422802534942459206
153,9364.74750135224767385105696244175295,9363.2,1.54750135224767385105696244175295
154,9487.54881353709191860955831861359625,9486.0,1.54881353709191860955831861359625
155,9611.15011722465406877120880080487193,9609.6,1.55011722465406877120880080487193
156,9735.55141252434049357385684223573586,9734.0,1.55141252434049357385684223573586
157,9860.75269954345809189969347173544455,9859.2,1.55269954345809189969347173544455
158,9986.75397838726768128825557694788961,9985.2,1.55397838726768128825557694788961
159,10113.5552491590356989610918751633126,10112.0,1.5552491590356989610918751633126
160,10241.1565119600842811956311436843543,10239.6,1.5565119600842811956311436843543
161,10369.5577668898397795443724845379774,10368.0,1.5577668898397795443724845379774
162,10498.7590140458797733604991814680698,10497.2,1.5590140458797733604991814680698
163,10628.7602535239786334832152743370615,10627.2,1.5602535239786334832152743370615
164,10759.5614854181516917194010828656245,10758.0,1.5614854181516917194010828656245
165,10891.1627098206980647218063051786810,10889.6,1.5627098206980647218063051786810
166,11023.5639268222421827793704978950150,11022.0,1.5639268222421827793704978950150
167,11156.7651365117740707519930512891806,11155.2,1.5651365117740707519930512891806
168,11290.7663389766884238386685571605448,11289.2,1.5663389766884238386685571605448
169,11425.5675343028225232410805047334785,11424.0,1.5675343028225232410805047334785
170,11561.1687225744930314657735311760310,11559.6,1.5687225744930314657735311760310
171,11697.5699038745317074593678596011134,11696.0,1.5699038745317074593678596011134
172,11834.7710782843200794434789506645607,11833.2,1.5710782843200794434789506645607
173,11972.7722458838231108516775752542819,11971.2,1.5722458838231108516775752542819
174,12111.5734067516218952120099157635372,12110.0,1.5734067516218952120099157635372
175,12251.1745609649454139600166358746948,12249.6,1.5745609649454139600166358746948
176,12391.5757085997013868886099210786435,12390.0,1.5757085997013868886099210786435
177,12532.7768497305062484953531603495857,12531.2,1.5768497305062484953531603495857
178,12674.7779844307142793815463356452579,12673.2,1.5779844307142793815463356452579
179,12817.5791127724459191480718519799344,12816.0,1.5791127724459191480718519799344
180,12961.1802348266152917344074898563908,12959.6,1.5802348266152917344074898563908
181,13105.5813506629569658494016344669276,13104.0,1.5813506629569658494016344669276
182,13250.7824603500519781892061881554586,13249.2,1.5824603500519781892061881554586
183,13396.7835639553531424916511175579768,13395.2,1.5835639553531424916511175579768
184,13543.5846615452096686686070330842960,13542.0,1.5846615452096686686070330842960
185,13691.1857531848911138244714433734720,13689.6,1.5857531848911138244714433734720
186,13839.5868389386106861294076407627077,13838.0,1.5868389386106861294076407627077
187,13988.7879188695479253478483923291538,13987.2,1.5879188695479253478483923291538
188,14138.7889930398707754585898772799897,14137.2,1.5889930398707754585898772799897
189,14289.5900615107570730975776279926540,14288.0,1.5900615107570730975776279926540
190,14441.1911243424154674744728550653713,14439.6,1.5911243424154674744728550653713
191,14593.5921815941057909855624513440556,14592.0,1.5921815941057909855624513440556
192,14746.7932333241588969052262207199134,14745.2,1.5932333241588969052262207199134
193,14900.7942795899959824598211736813399,14899.2,1.5942795899959824598211736813399
194,15055.5953204481474106247761223461478,15054.0,1.5953204481474106247761223461478
195,15211.1963559542710485772677230808073,15209.6,1.5963559542710485772677230808073
196,15367.5973861631701364963886458030100,15366.0,1.5973861631701364963886458030100
197,15524.7984111288107010861412724245859,15523.2,1.5984111288107010861412724245859
198,15682.7994309043385279832482462674462,15681.2,1.5994309043385279832482462674462
199,15841.6004455420957058836467982896852,15840.0,1.6004455420957058836467982896852
200,16001.2014550936367563278793574931156,15999.6,1.6014550936367563278793574931156
201,16161.6024596097443601218115140456125,16160.0,1.6024596097443601218115140456125
202,16322.8034591404446937688441408381085,16321.2,1.6034591404446937688441408381085
203,16484.8044537350223865683532188732037,16483.2,1.6044537350223865683532188732037
204,16647.6054434420351099952764603547288,16646.0,1.6054434420351099952764603547288
205,16811.2064283093278093262130124962420,16809.6,1.6064283093278093262130124962420
206,16975.6074083840465905307912887853964,16974.0,1.6074083840465905307912887853964
207,17140.8083837126522682989874515378628,17139.2,1.6083837126522682989874515378628
208,17306.8093543409335894258574961048967,17305.2,1.6093543409335894258574961048967
209,17473.6103203140201372965714269058287,17472.0,1.6103203140201372965714269058287
210,17641.2112816763949289674073326521271,17639.6,1.6112816763949289674073326521271
211,17809.6122384719067122017239241248074,17808.0,1.6122384719067122017239241248074
212,17978.8131907437819726880961455506895,17977.2,1.6131907437819726880961455506895
213,18148.8141385346366558185649121736475,18147.2,1.6141385346366558185649121736475
214,18319.6150818864876180027483075275922,18318.0,1.6150818864876180027483075275922
215,18491.2160208407638067241048602845219,18489.6,1.6160208407638067241048602845219
216,18663.6169554383171832928655306888537,18662.0,1.6169554383171832928655306888537
217,18836.8178857194333922547367334602055,18835.2,1.6178857194333922547367334602055
218,19010.8188117238421864278858584361727,19009.2,1.6188117238421864278858584361727
219,19185.6197334907276108412082336631771,19184.0,1.6197334907276108412082336631771
220,19361.2206510587379580820655312748058,19359.6,1.6206510587379580820655312748058
221,19537.6215644659954929558505712411817,19536.0,1.6215644659954929558505712411817
222,19714.8224737501059636548091018940550,19713.2,1.6224737501059636548091018940550
223,19892.8233789481678929970162512536442,19891.2,1.6233789481678929970162512536442
224,20071.6242800967816647948728486259380,20070.0,1.6242800967816647948728486259380
225,20251.2251772320584079097336829412290,20249.6,1.6251772320584079097336829412290
226,20431.6260703896286815306771661377309,20430.0,1.6260703896286815306771661377309
227,20612.8269596046509703203339080833053,20611.2,1.6269596046509703203339080833053
228,20794.8278449118199912380463244486771,20793.2,1.6278449118199912380463244486771
229,20977.6287263453748191925749718909416,20976.0,1.6287263453748191925749718909416
230,21161.2296039391068362106624488904956,21159.6,1.6296039391068362106624488904956
231,21345.6304777263675059107939006966609,21344.0,1.6304777263675059107939006966609
232,21530.8313477400759836911432998276045,21529.2,1.6313477400759836911432998276045
233,21716.8322140127265576172802537610096,21715.2,1.6322140127265576172802537610096
234,21903.6330765763959361557749993697955,21902.0,1.6330765763959361557749993697955
235,22091.2339354627503759248741305837286,22089.6,1.6339354627503759248741305837286
236,22279.6347907030526591610891950962279,22278.0,1.6347907030526591610891950962279
237,22468.8356423281689245219009906953848,22467.2,1.6356423281689245219009906953848
238,22658.8364903685753529556663818881253,22657.2,1.6364903685753529556663818881253
