Eigenstate,Energy,Kinetic Energy,Potential Energy
1,0.500000000043250153982718541772981933,0.0,0.500000000043250153982718541772981933
2,1.84623093793342911923958086847325511,1.2,0.64623093793342911923958086847325511
3,3.93633761053425169216963582255703476,3.2,0.73633761053425169216963582255703476
4,6.79966527954152627399106442335840793,6.0,0.79966527954152627399106442335840793
5,10.4480465782777015637693693644582693,9.6,0.8480465782777015637693693644582693
6,14.8870660015001361521559441077129190,14.0,0.8870660015001361521559441077129190
7,20.1197208306482643922424127337990558,19.2,0.9197208306482643922424127337990558
8,26.1477838520997045698384906345106058,25.2,0.9477838520997045698384906345106058
9,32.9723835648611333291992339187955374,32.0,0.9723835648611333291992339187955374
10,40.5942802230813797332016312501491568,39.6,0.9942802230813797332016312501491568
11,49.0140093969016632283450846075721706,48.0,1.0140093969016632283450846075721706
12,58.2319621816267501696243184397134699,57.2,1.0319621816267501696243184397134699
13,68.2484327073225591709220056095811949,67.2,1.0484327073225591709220056095811949
14,79.0636476716723304324354419860531713,78.0,1.0636476716723304324354419860531713
15,90.6777854557908153304542772073360605,89.6,1.0777854557908153304542772073360605
16,103.090988929094724504883421504890373,102.0,1.090988929094724504883421504890373
17,116.303374282764234260095337799621191,115.2,1.103374282764234260095337799621191
18,130.315037280749187500544195084120765,129.2,1.115037280749187500544195084120765
19,145.126057782873072430354359547775153,144.0,1.126057782873072430354359547775153
20,160.736503082466959804767974580455463,159.6,1.136503082466959804767974580455463
21,177.146430412451200720818723577174910,176.0,1.146430412451200720818723577174910
22,194.355888856494167219403574676748957,193.2,1.155888856494167219403574676748957
23,212.364920826948777303570406601763653,211.2,1.164920826948777303570406601763653
24,231.173563222252917382152135421373026,230.0,1.173563222252917382152135421373026
25,250.781848343725368886974344375838437,249.6,1.181848343725368886974344375838437
26,271.189804629373396204552468722024308,270.0,1.189804629373396204552468722024308
27,292.397457246855322658670801260152937,291.2,1.197457246855322658670801260152937
28,314.404828576839570468821124299552275,313.2,1.204828576839570468821124299552275
29,337.211938610206612786376563148631336,336.0,1.211938610206612786376563148631336
30,360.818805276890798339948845948884880,359.6,1.218805276890798339948845948884880
31,385.225444720013070720490616911559473,384.0,1.225444720013070720490616911559473
32,410.431871525877704751398150621487767,409.2,1.231871525877704751398150621487767
33,436.438098918096534584321455496532009,435.2,1.238098918096534584321455496532009
34,463.244138922353601894933399180598539,462.0,1.244138922353601894933399180598539
35,490.850002506983957486998530653717430,489.6,1.250002506983957486998530653717430
36,519.255699703506870734384774002736738,518.0,1.255699703506870734384774002736738
37,548.461239710449616742040918465830633,547.2,1.261239710449616742040918465830633
38,578.466630983167592363748249588681783,577.2,1.266630983167592363748249588681783
39,609.271881311868663564883946214547025,608.0,1.271881311868663564883946214547025
40,640.876997889653825834850342519834124,639.6,1.276997889653825834850342519834124
41,673.281987372069509080074948531000245,672.0,1.281987372069509080074948531000245
42,706.486855929411865826960082146766207,705.2,1.286855929411865826960082146766207
43,740.491609292816895219229412776487939,739.2,1.291609292816895219229412776487939
44,775.296252795002161278603437529315665,774.0,1.296252795002161278603437529315665
45,810.900791406388294328730902141224643,809.6,1.300791406388294328730902141224643
46,847.305229767215328199703988770030461,846.0,1.305229767215328199703988770030461
47,884.509572216175449218149514749421820,883.2,1.309572216175449218149514749421820
48,922.513822816006146623637470242513175,921.2,1.313822816006146623637470242513175
49,961.317985376423091508249587382455360,960.0,1.317985376423091508249587382455360
50,1000.92206347471794866249591678725531,999.6,1.32206347471794866249591678725531
51,1041.32606047430085874829381401971796,1040.0,1.32606047430085874829381401971796
52,1082.52997954142898300542347549903364,1081.2,1.32997954142898300542347549903364
53,1124.53382366033005257932749959514837,1123.2,1.33382366033005257932749959514837
54,1167.33759564690230342666538677276022,1166.0,1.33759564690230342666538677276022
55,1210.94129816114870226252161329334065,1209.6,1.34129816114870226252161329334065
56,1255.34493371848329444304048550381022,1254.0,1.34493371848329444304048550381022
57,1300.54850470003030571214171649628743,1299.2,1.34850470003030571214171649628743
58,1346.55201336202183255467966082327164,1345.2,1.35201336202183255467966082327164
59,1393.35546184438720195113368487645195,1392.0,1.35546184438720195113368487645195
60,1440.95885217861605682121496105460628,1439.6,1.35885217861605682121496105460628
61,1489.36218629496765921627020052341696,1488.0,1.36218629496765921627020052341696
62,1538.56546602909060231524940985071724,1537.2,1.36546602909060231524940985071724
63,1588.56869312810988038998404434207980,1587.2,1.36869312810988038998404434207980
64,1639.37186925623195342559984002013311,1638.0,1.37186925623195342559984002013311
65,1690.97499599991290824191577893878099,1689.6,1.37499599991290824191577893878099
66,1743.37807487262997062262648561945435,1742.0,1.37807487262997062262648561945435
67,1796.58110731929236066773947798864757,1795.2,1.38110731929236066773947798864757
68,1850.58409472032372742393015773504123,1849.2,1.38409472032372742393015773504123
69,1905.38703839544508617675062695860154,1904.0,1.38703839544508617675062695860154
70,1960.98993960718425352036417484336975,1959.6,1.38993960718425352036417484336975
71,2017.39279956413517661674640585195757,2016.0,1.39279956413517661674640585195757
72,2074.59561942398825481391377411009187,2073.2,1.39561942398825481391377411009187
73,2132.59840029635069878633703741217969,2131.2,1.39840029635069878633703741217969
74,2191.40114324537415351214414166801288,2190.0,1.40114324537415351214414166801288
75,2251.00384929220518030061409130961805,2249.6,1.40384929220518030061409130961805
76,2311.40651941727274352670795838821940,2310.0,1.40651941727274352670795838821940
77,2372.60915456242554533096514423951268,2371.2,1.40915456242554533096514423951268
78,2434.61175563293088574491268575643639,2433.2,1.41175563293088574491268575643639
79,2497.41432349934567888214312631852620,2496.0,1.41432349934567888214312631852620
80,2561.01685899926931770957190648876016,2559.6,1.41685899926931770957190648876016
81,2625.41936293898723057190871932247816,2624.0,1.41936293898723057190871932247816
82,2690.62183609501321119182356000549209,2689.2,1.42183609501321119182356000549209
83,2756.62427921553791513449855663672329,2755.2,1.42427921553791513449855663672329
84,2823.42669302179029143354050902673679,2822.0,1.42669302179029143354050902673679
85,2891.02907820931815879905530989524701,2889.6,1.42907820931815879905530989524701
86,2959.43143544919361996329601578884434,2958.0,1.43143544919361996329601578884434
87,3028.63376538914855024849658576032999,3027.2,1.43376538914855024849658576032999
88,3098.63606865464497306376737607004555,3097.2,1.43606865464497306376737607004555
89,3169.43834584988475153576708244959299,3168.0,1.43834584988475153576708244959299
90,3241.04059755876268226113644682066189,3239.6,1.44059755876268226113644682066189
91,3313.44282434576675571662841866014081,3312.0,1.44282434576675571662841866014081
92,3386.64502675682905956533018293243666,3385.2,1.44502675682905956533018293243666
93,3460.64720532013053884231691654328767,3459.2,1.44720532013053884231691654328767
94,3535.44936054686258407433898004557906,3534.0,1.44936054686258407433898004557906
95,3611.05149293194819723411523655710978,3609.6,1.45149293194819723411523655710978
96,3687.45360295472528360768869047871868,3686.0,1.45360295472528360768869047871868
97,3764.65569107959443331119119249864701,3763.2,1.45569107959443331119119249864701
98,3842.65775775663338331906896051054034,3841.2,1.45775775663338331906896051054034
99,3921.45980342218019739363188580799266,3920.0,1.45980342218019739363188580799266
100,4001.06182849938705496537317201738174,3999.6,1.46182849938705496537317201738174
101,4081.46383339874641070935164506819379,4080.0,1.46383339874641070935164506819379
102,4162.66581851859116098820786038115457,4161.2,1.46581851859116098820786038115457
103,4244.66778424557034541877218538620590,4243.2,1.46778424557034541877218538620590
104,4327.46973095510180455451292578385089,4326.0,1.46973095510180455451292578385089
105,4411.07165901180312160231525211305840,4409.6,1.47165901180312160231525211305840
106,4495.47356876990208532783829951763147,4494.0,1.47356876990208532783829951763147
107,4580.67546057362783322174229235673600,4579.2,1.47546057362783322174229235673600
108,4666.67733475758375475952310000454677,4665.2,1.47733475758375475952310000454677
109,4753.47919164710316599415765064039119,4752.0,1.47919164710316599415765064039119
110,4841.08103155858870430063838049420365,4839.6,1.48103155858870430063838049420365
111,4929.48285479983632623027653454802491,4928.0,1.48285479983632623027653454802491
112,5018.68466167034474199902061606142786,5017.2,1.48466167034474199902061606142786
113,5108.68645246161106459824218094923903,5107.2,1.48645246161106459824218094923903
114,5199.48822745741340275868496539767328,5198.0,1.48822745741340275868496539767328
115,5291.08998693408108654977056323484064,5289.6,1.48998693408108654977056323484064
116,5383.49173116075316606480597713759174,5382.0,1.49173116075316606480597713759174
117,5476.69346039962579192963130745545670,5475.2,1.49346039962579192963130745545670
118,5570.69517490618904534114042297689412,5569.2,1.49517490618904534114042297689412
119,5665.49687492945375162839125267831675,5664.0,1.49687492945375162839125267831675
120,5761.09856071216878548678729381172435,5759.6,1.49856071216878548678729381172435
121,5857.50023249102933776856763141364792,5856.0,1.50023249102933776856763141364792
122,5954.70189049687659479971016555246444,5953.2,1.50189049687659479971016555246444
123,6052.70353495488924900042071199790272,6051.2,1.50353495488924900042071199790272
124,6151.50516608476724190657185036191666,6150.0,1.50516608476724190657185036191666
125,6251.10678410090811112319257343849959,6249.6,1.50678410090811112319257343849959
126,6351.50838921257629754381206942571224,6350.0,1.50838921257629754381206942571224
127,6452.70998162406574859157455830598418,6451.2,1.50998162406574859157455830598418
128,6554.71156153485613065085247261537674,6553.2,1.51156153485613065085247261537674
129,6657.51312913976295178484686297255682,6656.0,1.51312913976295178484686297255682
130,6761.11468462908187745279690268524894,6759.6,1.51468462908187745279690268524894
131,6865.51622818872750653630222668250128,6864.0,1.51622818872750653630222668250128
132,6970.71776000036686000706121263081299,6969.2,1.51776000036686000706121263081299
133,7076.71928024154782278674392191561212,7075.2,1.51928024154782278674392191561212
134,7183.52078908582276807376024238076152,7182.0,1.52078908582276807376024238076152
135,7291.12228670286757530334087778742023,7289.6,1.52228670286757530334087778742023
136,7399.52377325859624921981841631596288,7398.0,1.52377325859624921981841631596288
137,7508.72524891527133423205261125018763,7507.2,1.52524891527133423205261125018763
138,7618.72671383161030461095287994260230,7617.2,1.52671383161030461095287994260230
139,7729.52816816288810898214592121919482,7728.0,1.52816816288810898214592121919482
140,7841.12961206103603212086774541005669,7839.6,1.52961206103603212086774541005669
141,7953.53104567473703249866964244150805,7952.0,1.53104567473703249866964244150805
142,8066.73246914951770595826062943325201,8065.2,1.53246914951770595826062943325201
143,8180.73388262783701724263943530975595,8179.2,1.53388262783701724263943530975595
144,8295.53528624917193392503244803105909,8294.0,1.53528624917193392503244803105909
145,8411.13668015010009309839457102807286,8409.6,1.53668015010009309839457102807286
146,8527.53806446437962331447940954064349,8526.0,1.53806446437962331447940954064349
147,8644.73943932302623605951909765793916,8643.2,1.53943932302623605951909765793916
148,8762.74080485438770209552059022239757,8761.2,1.54080485438770209552059022239757
149,8881.54216118421581446811138998118990,8880.0,1.54216118421581446811138998118990
150,9001.14350843573594182178998345951754,8999.6,1.54350843573594182178998345951754
151,9121.54484672971426793681321739967772,9120.0,1.54484672971426793681321739967772
152,9242.74617618452280778686739822398491,9241.2,1.54617618452280778686739822398491
153,9364.74749691620228906719400648075038,9363.2,1.54749691620228906719400648075038
154,9487.54880903852298309238841990881823,9486.0,1.54880903852298309238841990881823
155,9611.15011266304356329984061920479234,9609.6,1.55011266304356329984061920479234
156,9735.55140789916806922515679414073681,9734.0,1.55140789916806922515679414073681
157,9860.75269485420104699614041048363038,9859.2,1.55269485420104699614041048363038
158,9986.75397363340093816340937789237808,9985.2,1.55397363340093816340937789237808
159,10113.5552443400317805404575481463277,10112.0,1.5552443400317805404575481463277
160,10241.1565070754132873906734355509238,10239.6,1.5565070754132873906734355509238
161,10369.5577619389693634574100660249340,10368.0,1.5577619389693634574100660249340
162,10498.7590090282751172981804753112095,10497.2,1.5590090282751172981804753112095
163,10628.7602484391024247762511481583903,10627.2,1.5602484391024247762511481583903
164,10759.5614802654640983462017206910216,10758.0,1.5614802654640983462017206910216
165,10891.1627045996567107336417226043452,10889.6,1.5627045996567107336417226043452
166,11023.5639215323021235246460701087894,11022.0,1.5639215323021235246460701087894
167,11156.7651311523877678972022161150576,11155.2,1.5651311523877678972022161150576
168,11290.7663335473057201835557866746575,11289.2,1.5663335473057201835557866746575
169,11425.5675288028906173255181638026518,11424.0,1.5675288028906173255181638026518
170,11561.1687170034564519658256635508918,11559.6,1.5687170034564519658256635508918
171,11697.5698982318322873699838228283310,11696.0,1.5698982318322873699838228283310
172,11834.7710725693969300452285472718394,11833.2,1.5710725693969300452285472718394
173,11972.7722400961125954589078929166295,11971.2,1.5722400961125954589078929166295
174,12111.5734008905576026997721673524926,12110.0,1.5734008905576026997721673524926
175,12251.1745550299581320670786999507002,12249.6,1.5745550299581320670786999507002
176,12391.5757025902190752938374735062915,12390.0,1.5757025902190752938374735062915
177,12532.7768436459540116647087117555809,12531.2,1.5768436459540116647087117555809
178,12674.7779782705143391829219391304856,12673.2,1.5779782705143391829219391304856
179,12817.5791065360175872311360113598577,12816.0,1.5791065360175872311360113598577
180,12961.1802285133749416726124024854406,12959.6,1.5802285133749416726124024854406
181,13105.5813442723180050412616178700713,13104.0,1.5813442723180050412616178700713
182,13250.7824538814248195159214104885980,13249.2,1.5824538814248195159214104885980
183,13396.7835574081451757281145226689680,13395.2,1.5835574081451757281145226689680
184,13543.5846549188252316447953532337450,13542.0,1.5846549188252316447953532337450
185,13691.1857464787314633341825501412746,13689.6,1.5857464787314633341825501412746
186,13839.5868321520739685832700410469956,13838.0,1.5868321520739685832700410469956
187,13988.7879120020291471674876425777066,13987.2,1.5879120020291471674876425777066
188,14138.7889860907617732087987302925251,14137.2,1.5889860907617732087987302925251
189,14289.5900544794464833532960929105569,14288.0,1.5900544794464833532960929105569
190,14441.1911172282886964193436574753381,14439.6,1.5911172282886964193436574753381
191,14593.5921743965449837387858755989660,14592.0,1.5921743965449837387858755989660
192,14746.7932260425429065733968930350602,14745.2,1.5932260425429065733968930350602
193,14900.7942722237003389103861297840292,14899.2,1.5942722237003389103861297840292
194,15055.5953129965442889777110157851072,15054.0,1.5953129965442889777110157851072
195,15211.1963484167292374115230393552809,15209.6,1.5963484167292374115230393552809
196,15367.5973785390550057676142232259870,15366.0,1.5973785390550057676142232259870
197,15524.7984034174841697521515504598874,15523.2,1.5984034174841697521515504598874
198,15682.7994231051590313336448376590441,15681.2,1.5994231051590313336448376590441
199,15841.6004376544181625699680753675907,15840.0,1.6004376544181625699680753675907
200,16001.2014471168125350905995891698489,15999.6,1.6014471168125350905995891698489
201,16161.6024515431212462104643116963887,16160.0,1.6024515431212462104643116963887
202,16322.8034509833668550514944572192722,16321.2,1.6034509833668550514944572192722
203,16484.8044454868303393265946256738518,16483.2,1.6044454868303393265946256738518
204,16647.6054351020656844008782029618803,16646.0,1.6054351020656844008782029618803
205,16811.2064198769141145954911966180848,16809.6,1.6064198769141145954911966180848
206,16975.6073998585179797527258830551939,16974.0,1.6073998585179797527258830551939
207,17140.8083750933343029330540340766227,17139.2,1.6083750933343029330540340766227
208,17306.8093456271480034654896679717486,17305.2,1.6093456271480034654896679717486
209,17473.6103115050848010941136796867440,17472.0,1.6103115050848010941136796867440
210,17641.2112727716238127163645407893230,17639.6,1.6112727716238127163645407893230
211,17809.6122294706098490720564840025561,17808.0,1.6122294706098490720564840025561
212,17978.8131816452654216102523530458151,17977.2,1.6131816452654216102523530458151
213,18148.8141293382024639118845954175848,18147.2,1.6141293382024639118845954175848
214,18319.6150725914337826438128000539189,18318.0,1.6150725914337826438128000539189
215,18491.2160114463842372505480722457660,18489.6,1.6160114463842372505480722457660
216,18663.6169459439016623381000542753622,18662.0,1.6169459439016623381000542753622
217,18836.8178761242675367089874685691042,18835.2,1.6178761242675367089874685691042
218,19010.8188020272074080208606088106376,19009.2,1.6188020272074080208606088106376
219,19185.6197236919010763416702241680717,19184.0,1.6197236919010763416702241680717
220,19361.2206411569925491095091846466286,19359.6,1.6206411569925491095091846466286
221,19537.6215544605997653994149908883058,19536.0,1.6215544605997653994149908883058
222,19714.8224636403241066944971258413861,19713.2,1.6224636403241066944971258413861
223,19892.8233687332596877222187104495501,19891.2,1.6233687332596877222187104495501
224,20071.6242697760024424151291205902560,20070.0,1.6242697760024424151291205902560
225,20251.2251668046590075525882224732556,20249.6,1.6251668046590075525882224732556
226,20431.6260598548554076214215134667646,20430.0,1.6260598548554076214215134667646
227,20612.8269489617455495383507529618564,20611.2,1.6269489617455495383507529618564
228,20794.8278341600195290443978267688254,20793.2,1.6278341600195290443978267688254
229,20977.6287154839117559234034005637223,20976.0,1.6287154839117559234034005637223
230,21161.2295929672089027308950876930000,21159.6,1.6295929672089027308950876930000
231,21345.6304666432576788225662168310058,21344.0,1.6304666432576788225662168310058
232,21530.8313365449724400912760227417505,21529.2,1.6313365449724400912760227417505
233,21716.8322027048426293980663595457616,21715.2,1.6322027048426293980663595457616
234,21903.6330651549400638432507724634458,21902.0,1.6330651549400638432507724634458
235,22091.2339239269260620486664634046114,22089.6,1.6339239269260620486664634046114
236,22279.6347790520584211498472352916629,22278.0,1.6347790520584211498472352916629
237,22468.8356305611982471182343878950194,22467.2,1.6356305611982471182343878950194
238,22658.8364784848166401444263577411067,22657.2,1.6364784848166401444263577411067
