Eigenstate,Energy,Kinetic Energy,Potential Energy
1,0.500000000148639952806380319373210945,0.0,0.500000000148639952806380319373210945
2,1.84623093862136347978403489073944739,1.2,0.64623093862136347978403489073944739
3,3.93633761255502469523292696309444596,3.2,0.73633761255502469523292696309444596
4,6.79966528375062656298873413581144225,6.0,0.79966528375062656298873413581144225
5,10.4480465855688589440223106503303655,9.6,0.8480465855688589440223106503303655
6,14.8870660127828069382685418967180454,14.0,0.8870660127828069382685418967180454
7,20.1197208468393484865710776732841643,19.2,0.9197208468393484865710776732841643
8,26.1477838741201028590318570917071040,25.2,0.9477838741201028590318570917071040
9,32.9723835936341576387507399547327189,32.0,0.9723835936341576387507399547327189
10,40.5942802595319557356674044702620511,39.6,0.9942802595319557356674044702620511
11,49.0140094419559066525445513006058043,48.0,1.0140094419559066525445513006058043
12,58.2319622362117332529526465056514368,57.2,1.0319622362117332529526465056514368
13,68.2484327723661806954457742413082029,67.2,1.0484327723661806954457742413082029
14,79.0636477481032453885222830548196164,78.0,1.0636477481032453885222830548196164
15,90.6777855445384005676783635651026003,89.6,1.0777855445384005676783635651026003
16,103.090989031089067003697108132576606,102.0,1.090989031089067003697108132576606
17,116.303374398936134133565648311205280,115.2,1.103374398936134133565648311205280
18,130.315037412030170890178674054136803,129.2,1.115037412030170890178674054136803
19,145.126057930195411233443137670095477,144.0,1.126057930195411233443137670095477
20,160.736503246763696236975346761762806,159.6,1.136503246763696236975346761762806
21,177.146430594656175379154125626131370,176.0,1.146430594656175379154125626131370
22,194.355889057542049732478987806658593,193.2,1.155889057542049732478987806658593
23,212.364921047775098931791318018041480,211.2,1.164921047775098931791318018041480
24,231.173563463794105114840177779585678,230.0,1.173563463794105114840177779585678
25,250.781848606918780709196487898747671,249.6,1.181848606918780709196487898747671
26,271.189804915157357293842283494400086,270.0,1.189804915157357293842283494400086
27,292.397457556169162333606688665029809,291.2,1.197457556169162333606688665029809
28,314.404828910623659755769363236109377,313.2,1.204828910623659755769363236109377
29,337.211938969402402502989873960637269,336.0,1.211938969402402502989873960637269
30,360.818805662440857617823758575857203,359.6,1.218805662440857617823758575857203
31,385.225445132861125907166228159953011,384.0,1.225445132861125907166228159953011
32,410.431871966968678645303681262073245,409.2,1.231871966968678645303681262073245
33,436.438099388376585966524015337767059,435.2,1.238099388376585966524015337767059
34,463.244139422770165329431184150346458,462.0,1.244139422770165329431184150346458
35,490.850003038485783367443780920135596,489.6,1.250003038485783367443780920135596
36,519.255700267044065559936631830336586,518.0,1.255700267044065559936631830336586
37,548.461240306973683608857395708319110,547.2,1.261240306973683608857395708319110
38,578.466631613631471661662307413986500,577.2,1.266631613631471661662307413986500
39,609.271881977226773871246448892104590,608.0,1.271881977226773871246448892104590
40,640.876998590862104999493775402952310,639.6,1.276998590862104999493775402952310
41,673.281988110085455496956436081892940,672.0,1.281988110085455496956436081892940
42,706.486856705194579889357213624788968,705.2,1.286856705194579889357213624788968
43,740.491610107327120956446662584044559,739.2,1.291610107327120956446662584044559
44,775.296253649202328173046448878378278,774.0,1.296253649202328173046448878378278
45,810.900792301242559312956874779400809,809.6,1.300792301242559312956874779400809
46,847.305230703689617833686944913443149,846.0,1.305230703689617833686944913443149
47,884.509573195237502047531611799448763,883.2,1.309573195237502047531611799448763
48,922.513823838625555720190104390659855,921.2,1.313823838625555720190104390659855
49,961.317986443571347194154676081640256,960.0,1.317986443571347194154676081640256
50,1000.92206458736848142039003993276923,999.6,1.32206458736848142039003993276923
51,1041.32606163342908231930561353054685,1040.0,1.32606163342908231930561353054685
52,1082.52998074801233767768477626956905,1081.2,1.32998074801233767768477626956905
53,1124.53382491534804866965767033521933,1123.2,1.33382491534804866965767033521933
54,1167.33759695133656495832158508955791,1166.0,1.33759695133656495832158508955791
55,1210.94129951598301084207870105934039,1209.6,1.34129951598301084207870105934039
56,1255.34493512470363333961731009151729,1254.0,1.34493512470363333961731009151729
57,1300.54850615862490414232761119837728,1299.2,1.34850615862490414232761119837728
58,1346.55201487398121017663975031703390,1345.2,1.35201487398121017663975031703390
59,1393.35546341070421357148430066801562,1392.0,1.35546341070421357148430066801562
60,1440.95885380028593731836466355173744,1439.6,1.35885380028593731836466355173744
61,1489.36218797298806868401768336179719,1488.0,1.36218797298806868401768336179719
62,1538.56546776446167143051895307782163,1537.2,1.36546776446167143051895307782163
63,1588.56869492183425600866246477928258,1587.2,1.36869492183425600866246477928258
64,1639.37187110931484441051751023122399,1638.0,1.37187110931484441051751023122399
65,1690.97499791336213152708917347404410,1689.6,1.37499791336213152708917347404410
66,1743.37807684745599751795046406206496,1742.0,1.37807684745599751795046406206496
67,1796.58110935650836340838587334185132,1795.2,1.38110935650836340838587334185132
68,1850.58409682094562596877499908768261,1849.2,1.38409682094562596877499908768261
69,1905.38704056049159526021631180583174,1904.0,1.38704056049159526021631180583174
70,1960.98994183767692996212440458624400,1959.6,1.38994183767692996212440458624400
71,2017.39280186109846689380325473542350,2016.0,1.39280186109846689380325473542350
72,2074.59562178844954289961509091214044,2073.2,1.39562178844954289961509091214044
73,2132.59840272934035426096188871634208,2131.2,1.39840272934035426096188871634208
74,2191.40114574792557994974165938196358,2190.0,1.40114574792557994974165938196358
75,2251.00385186535486393683919149510579,2249.6,1.40385186535486393683919149510579
76,2311.40652206206030221245438496832498,2310.0,1.40652206206030221245438496832498
77,2372.60915727989377777665390404357621,2371.2,1.40915727989377777665390404357621
78,2434.61175842412582106035095708856553,2433.2,1.41175842412582106035095708856553
79,2497.41432636531662641692630928488384,2496.0,1.41432636531662641692630928488384
80,2561.01686194106891719905849370678166,2559.6,1.41686194106891719905849370678166
81,2625.41936595767150259385610279878956,2624.0,1.41936595767150259385610279878956
82,2690.62183919164160793883043327287510,2689.2,1.42183919164160793883043327287510
83,2756.62428239117337150745866314608034,2755.2,1.42428239117337150745866314608034
84,2823.42669627749927646137129447738709,2822.0,1.42669627749927646137129447738709
85,2891.02908154617072739002491879717450,2889.6,1.42908154617072739002491879717450
86,2959.43143886826346499333215318989482,2958.0,1.43143886826346499333215318989482
87,3028.63376889151305499192222897886168,3027.2,1.43376889151305499192222897886168
88,3098.63607224138526397196960167952095,3097.2,1.43607224138526397196960167952095
89,3169.43834952208575136936814431148508,3168.0,1.43834952208575136936814431148508
90,3241.04060131751316358129933102125283,3239.6,1.44060131751316358129933102125283
91,3313.44282819215939474119372361326802,3312.0,1.44282819215939474119372361326802
92,3386.64503069196049039554592818666131,3385.2,1.44503069196049039554592818666131
93,3460.64720934510140806598929346688119,3459.2,1.44720934510140806598929346688119
94,3535.44936466277760575129903915685207,3534.0,1.44936466277760575129903915685207
95,3611.05149713991620826996458343222467,3609.6,1.45149713991620826996458343222467
96,3687.45360725585929952185630712260738,3686.0,1.45360725585929952185630712260738
97,3764.65569547501170440540424888521583,3763.2,1.45569547501170440540424888521583
98,3842.65776224745545125241102409223258,3841.2,1.45776224745545125241102409223258
99,3921.45980800953295217043533244520794,3920.0,1.45980800953295217043533244520794
100,4001.06183318440079234226557747241934,3999.6,1.46183318440079234226557747241934
101,4081.46383818255589002785124364412982,4080.0,1.46383818255589002785124364412982
102,4162.66582340233566343933908468524021,4161.2,1.46582340233566343933908468524021
103,4244.66778923039373274624958587225631,4243.2,1.46778923039373274624958587225631
104,4327.46973604215257820312100617748078,4326.0,1.46973604215257820312100617748078
105,4411.07166420223448231819097714964723,4409.6,1.47166420223448231819097714964723
106,4495.47357406487199321744492538530461,4494.0,1.47357406487199321744492538530461
107,4580.67546597429906827640572958133814,4579.2,1.47546597429906827640572958133814
108,4666.67734026512397785248608358114967,4665.2,1.47734026512397785248608358114967
109,4753.47919726268498035719275570788047,4752.0,1.47919726268498035719275570788047
110,4841.08103728338971748734776844373423,4839.6,1.48103728338971748734776844373423
111,4929.48286063503921257329466927860912,4928.0,1.48286063503921257329466927860912
112,5018.68466761713730556842700330015833,5017.2,1.48466761713730556842700330015833
113,5108.68645852118630266858168249499112,5107.2,1.48645852118630266858168249499112
114,5199.48823363096956979208723406310326,5198.0,1.48823363096956979208723406310326
115,5291.08999322282175870275476572323798,5289.6,1.48999322282175870275476572323798
116,5383.49173756588730622645315715047901,5382.0,1.49173756588730622645315715047901
117,5476.69346692236781529890497143679020,5475.2,1.49346692236781529890497143679020
118,5570.69518154775888555123597159138391,5569.2,1.49518154775888555123597159138391
119,5665.49688169107692742609601671098020,5664.0,1.49688169107692742609601671098020
120,5761.09856759507646797493645528440399,5759.6,1.49856759507646797493645528440399
121,5857.50023949645841821978665889262706,5856.0,1.50023949645841821978665889262706
122,5954.70189762606975304974080431252041,5953.2,1.50189762606975304974080431252041
123,6052.70354220909502242943694156152668,6051.2,1.50354220909502242943694156152668
124,6151.50517346524009501700236517210958,6150.0,1.50517346524009501700236517210958
125,6251.10679160890850572267957091898955,6249.6,1.50679160890850572267957091898955
126,6351.50839684937076354205055315662269,6350.0,1.50839684937076354205055315662269
127,6452.70998939092695541989266317440060,6451.2,1.50998939092695541989266317440060
128,6554.71156943306295931351259378535749,6553.2,1.51156943306295931351259378535749
129,6657.51313717060056755116782376206745,6656.0,1.51313717060056755116782376206745
130,6761.11469279384180319932009446385979,6759.6,1.51469279384180319932009446385979
131,6865.51623648870769674835021583185952,6864.0,1.51623648870769674835021583185952
132,6970.71776843687177544916446463922453,6969.2,1.51776843687177544916446463922453
133,7076.71928881588850585154009447651907,7075.2,1.51928881588850585154009447651907
134,7183.52079779931691881910355954526656,7182.0,1.52079779931691881910355954526656
135,7291.12229555683962818749223428433943,7289.6,1.52229555683962818749223428433943
136,7399.52378225437745054472354538884632,7398.0,1.52378225437745054472354538884632
137,7508.72525805419982030485497896246529,7507.2,1.52525805419982030485497896246529
138,7618.72672311503118063402911926224144,7617.2,1.52672311503118063402911926224144
139,7729.52817759215352868209514250545195,7728.0,1.52817759215352868209514250545195
140,7841.12962163750527812703350486971787,7839.6,1.52962163750527812703350486971787
141,7953.53105539977659748192105487737929,7952.0,1.53105539977659748192105487737929
142,8066.73247902450137454091204166602807,8065.2,1.53247902450137454091204166602807
143,8180.73389265414594869054190842430453,8179.2,1.53389265414594869054190842430453
144,8295.53529642819474563302758669535130,8294.0,1.53529642819474563302758669535130
145,8411.13669048323294488048113576044975,8409.6,1.53669048323294488048113576044975
146,8527.53807495302630251020606006673619,8526.0,1.53807495302630251020606006673619
147,8644.73944996859824346828277203265768,8643.2,1.53944996859824346828277203265768
148,8762.74081565830433875061786837189435,8761.2,1.54081565830433875061786837189435
149,8881.54217214790426926256299885458098,8880.0,1.54217214790426926256299885458098
150,9001.14351956063137999813252126704399,8999.6,1.54351956063137999813252126704399
151,9121.54485801725992045323123022219811,9120.0,1.54485801725992045323123022219811
152,9242.74618763617006157221880974362949,9241.2,1.54618763617006157221880974362949
153,9364.74750853341077817766800226131074,9363.2,1.54750853341077817766800226131074
154,9487.54882082276068078272127087316725,9486.0,1.54882082276068078272127087316725
155,9611.15012461578687502220695024940679,9609.6,1.55012461578687502220695024940679
156,9735.55142002190192656904846080682871,9734.0,1.55142002190192656904846080682871
157,9860.75270714841900258274316597664840,9859.2,1.55270714841900258274316597664840
158,9986.75398610060526150818980776022344,9985.2,1.55398610060526150818980776022344
159,10113.5552569817335548978770850989969,10112.0,1.5552569817335548978770850989969
160,10241.1565198931325075951574001131031,10239.6,1.5565198931325075951574001131031
161,10369.5577749342350347749111545614075,10368.0,1.5577749342350347749111545614075
162,10498.7590222026253553028942397467715,10497.2,1.5590222026253553028942397467715
163,10628.7602617940845562672607118834666,10627.2,1.5602617940845562672607118834666
164,10759.5614938026347633190555270241514,10758.0,1.5614938026347633190555270241514
165,10891.1627183205819654220964539150013,10889.6,1.5627183205819654220964539150013
166,11023.5639354385575445280401653619348,11022.0,1.5639354385575445280401653619348
167,11156.7651452455585574091634708446960,11155.2,1.5651452455585574091634708446960
168,11290.7663478289868123379886129716586,11289.2,1.5663478289868123379886129716586
169,11425.5675432746867856760623151907193,11424.0,1.5675432746867856760623151907193
170,11561.1687316669824181152300295551258,11559.6,1.5687316669824181152300295551258
171,11697.5699130887128307660942060724655,11696.0,1.5699130887128307660942060724655
172,11834.7710876212669989605491772227577,11833.2,1.5710876212669989605491772227577
173,11972.7722553446174191709613830874906,11971.2,1.5722553446174191709613830874906
174,12111.5734163373528048897541123746255,12110.0,1.5734163373528048897541123746255
175,12251.1745706767098454545775408281073,12249.6,1.5745706767098454545775408281073
176,12391.5757184386040575256716796899112,12390.0,1.5757184386040575256716796899112
177,12532.7768596976597624762187227881273,12531.2,1.5768596976597624762187227881273
178,12674.7779945272392188503454702815532,12673.2,1.5779945272392188503454702815532
179,12817.5791229994709363339930946685857,12816.0,1.5791229994709363339930946685857
180,12961.1802451852772021853280096269997,12959.6,1.5802451852772021853280096269997
181,13105.5813611544008427735623941339756,13104.0,1.5813611544008427735623941339756
182,13250.7824709754312479218563954022361,13249.2,1.5824709754312479218563954022361
183,13396.7835747158296811038705409943627,13395.2,1.5835747158296811038705409943627
184,13543.5846724419538997358031981457998,13542.0,1.5846724419538997358031981457998
185,13691.1857642190821073723432587686214,13689.6,1.5857642190821073723432587686214
186,13839.5868501114362587754671147570052,13838.0,1.5868501114362587754671147570052
187,13988.7879301822047416568991252750550,13987.2,1.5879301822047416568991252750550
188,14138.7890044935644505308726025788867,14137.2,1.5890044935644505308726025788867
189,14289.5900731067022764086115634027270,14288.0,1.5900731067022764086115634027270
190,14441.1911360818360279859468295030485,14439.6,1.5911360818360279859468295030485
191,14593.5921934782348035469602509611849,14592.0,1.5921934782348035469602509611849
192,14746.7932453542388299662095736847733,14745.2,1.5932453542388299662095736847733
193,14900.7942917672787871137365210066956,14899.2,1.5942917672787871137365210066956
194,15055.5953327738946310040048717722258,15054.0,1.5953327738946310040048717722258
195,15211.1963684297539336214957831257768,15209.6,1.5963684297539336214957831257768
196,15367.5973987896697531152385517016744,15366.0,1.5973987896697531152385517016744
197,15524.7984239076180487379821950643772,15523.2,1.5984239076180487379821950643772
198,15682.7994438367546546923794778214551,15681.2,1.5994438367546546923794778214551
199,15841.6004586294318257184390539739608,15840.0,1.6004586294318257184390539739608
200,16001.2014683372143683628538556143028,15999.6,1.6014683372143683628538556143028
201,16161.6024730108953689070404216632784,16160.0,1.6024730108953689070404216632784
202,16322.8034727005115313304690062377426,16321.2,1.6034727005115313304690062377426
203,16484.8044674553581359644376708485562,16483.2,1.6044674553581359644376708485562
204,16647.6054573240036304516395158896734,16646.0,1.6054573240036304516395158896734
205,16811.2064423543038629773260392879573,16809.6,1.6064423543038629773260392879573
206,16975.6074225934159707912699050522466,16974.0,1.6074225934159707912699050522466
207,17140.8083980878119298916647844192140,17139.2,1.6083980878119298916647844192140
208,17306.8093688832917800928912241872461,17305.2,1.6093688832917800928912241872461
209,17473.6103350249965312205118194766916,17472.0,1.6103350249965312205118194766916
210,17641.2112965574207619296382798447106,17639.6,1.6112965574207619296382798447106
211,17809.6122535244249185061844848691549,17808.0,1.6122535244249185061844848691549
212,17978.8132059692473238786940886487338,17977.2,1.6132059692473238786940886487338
213,18148.8141539345159012192113473467505,18147.2,1.6141539345159012192113473467505
214,18319.6150974622596271094673336680375,18318.0,1.6150974622596271094673336680375
215,18491.2160365939197134792104183748438,18489.6,1.6160365939197134792104183748438
216,18663.6169713703605322717467030139242,18662.0,1.6169713703605322717467030139242
217,18836.8179018318802867963523097719438,18835.2,1.6179018318802867963523097719438
218,19010.8188280182214387406415975443162,19009.2,1.6188280182214387406415975443162
219,19185.6197499685808941164748754291527,19184.0,1.6197499685808941164748754291527
220,19361.2206677216199606481912233449659,19359.6,1.6206677216199606481912233449659
221,19537.6215813154740745061314116767147,19536.0,1.6215813154740745061314116767147
222,19714.8224907877623135835036763293837,19713.2,1.6224907877623135835036763293837
223,19892.8233961755966908781249183657438,19891.2,1.6233961755966908781249183657438
224,20071.6242975155912430390525153559200,20070.0,1.6242975155912430390525153559200
225,20251.2251948438709166353812122375591,20249.6,1.6251948438709166353812122375591
226,20431.6260881960802556858920977240833,20430.0,1.6260881960802556858920977240833
227,20612.8269776073918990931624564209139,20611.2,1.6269776073918990931624564209139
228,20794.8278631125148897931163743039836,20793.2,1.6278631125148897931163743039836
229,20977.6287447457028027729530686489715,20976.0,1.6287447457028027729530686489715
230,21161.2296225407616966445015840256698,21159.6,1.6296225407616966445015840256698
231,21345.6304965310578905630956345019915,21344.0,1.6304965310578905630956345019915
232,21530.8313667495255769017263788563624,21529.2,1.6313667495255769017263788563624
233,21716.8322332286742646668367705676355,21715.2,1.6322332286742646668367705676355
234,21903.6330960005960698026980448471347,21902.0,1.6330960005960698026980448471347
235,22091.2339550969728455563638387175592,22089.6,1.6339550969728455563638387175592
236,22279.6348105490831626028839004535430,22278.0,1.6348105490831626028839004535430
237,22468.8356623878091425518387898348719,22467.2,1.6356623878091425518387898348719
238,22658.8365106436431465671604416719316,22657.2,1.6365106436431465671604416719316
