Eigenstate,Energy,Kinetic Energy,Potential Energy
1,0.500000000138562118374239486351176685,0.0,0.500000000138562118374239486351176685
2,1.84623093855557992910211686297621851,1.2,0.64623093855557992910211686297621851
3,3.93633761236178763307554289360390409,3.2,0.73633761236178763307554289360390409
4,6.79966528334812672362011247513038910,6.0,0.79966528334812672362011247513038910
5,10.4480465848716267618428897924716030,9.6,0.8480465848716267618428897924716030
6,14.8870660117038642876411795320019777,14.0,0.8870660117038642876411795320019777
7,20.1197208452909995195379580585649489,19.2,0.9197208452909995195379580585649489
8,26.1477838720142619888442350250244449,25.2,0.9477838720142619888442350250244449
9,32.9723835908825003718377211505311547,32.0,0.9723835908825003718377211505311547
10,40.5942802560459936759686848468147122,39.6,0.9942802560459936759686848468147122
11,49.0140094376470268071175393377555531,48.0,1.0140094376470268071175393377555531
12,58.2319622309912191435018840089698874,57.2,1.0319622309912191435018840089698874
13,68.2484327661452235623494894082056995,67.2,1.0484327661452235623494894082056995
14,79.0636477407929496904599340199453949,78.0,1.0636477407929496904599340199453949
15,90.6777855360497860372482130847484399,89.6,1.0777855360497860372482130847484399
16,103.090989021333068536984431909366540,102.0,1.090989021333068536984431909366540
17,116.303374387823600267995846479772291,115.2,1.103374387823600267995846479772291
18,130.315037399471861332879110470603633,129.2,1.115037399471861332879110470603633
19,145.126057916101993732753759739025787,144.0,1.126057916101993732753759739025787
20,160.736503231045742987780575861341002,159.6,1.136503231045742987780575861341002
21,177.146430577224159089460629856020922,176.0,1.146430577224159089460629856020922
22,194.355889038306339438329769427193062,193.2,1.155889038306339438329769427193062
23,212.364921026645955621237298327509050,211.2,1.164921026645955621237298327509050
24,231.173563440681677204060335802990856,230.0,1.173563440681677204060335802990856
25,250.781848581733099401828681678183875,249.6,1.181848581733099401828681678183875
26,271.189804887808331846226755379443683,270.0,1.189804887808331846226755379443683
27,292.397457526566575242735082095316640,291.2,1.197457526566575242735082095316640
28,314.404828878677161882490312398599315,313.2,1.204828878677161882490312398599315
29,337.211938935021508139933621259263774,336.0,1.211938935021508139933621259263774
30,360.818805625534939509229654084138742,359.6,1.218805625534939509229654084138742
31,385.225445093339410226095211212313631,384.0,1.225445093339410226095211212313631
32,410.431871924740239932432490882287988,409.2,1.231871924740239932432490882287988
33,436.438099343350342033736614840668831,435.2,1.238099343350342033736614840668831
34,463.244139374854872130666340180487052,462.0,1.244139374854872130666340180487052
35,490.850002987590029838668912591207268,489.6,1.250002987590029838668912591207268
36,519.255700213076268429655737406989573,518.0,1.255700213076268429655737406989573
37,548.461240249842082180194739805104531,547.2,1.261240249842082180194739805104531
38,578.466631553244122566771350762733047,577.2,1.266631553244122566771350762733047
39,609.271881913491545798558392791375589,608.0,1.271881913491545798558392791375589
40,640.876998523686673394129593930370266,639.6,1.276998523686673394129593930370266
41,673.281988039377297234470729341054835,672.0,1.281988039377297234470729341054835
42,706.486856630860967922854288291681417,705.2,1.286856630860967922854288291681417
43,740.491610029275118937003370837770004,739.2,1.291610029275118937003370837770004
44,775.296253567338785043287998979549252,774.0,1.296253567338785043287998979549252
45,810.900792215474103873557702573580831,809.6,1.300792215474103873557702573580831
46,847.305230613922653282505999194054206,846.0,1.305230613922653282505999194054206
47,884.509573101378200491038022932202528,883.2,1.309573101378200491038022932202528
48,922.513823740579852656789414294838337,921.2,1.313823740579852656789414294838337
49,961.317986341244935968986167973161067,960.0,1.317986341244935968986167973161067
50,1000.92206448066680765113128480835199,999.6,1.32206448066680765113128480835199
51,1041.32606152225733829249008866611224,1040.0,1.32606152225733829249008866611224
52,1082.52998063227545671501164712589735,1081.2,1.32998063227545671501164712589735
53,1124.53382479495069946374898037976817,1123.2,1.33382479495069946374898037976817
54,1167.33759682618314587736069643187773,1166.0,1.33759682618314587736069643187773
55,1210.94129938597764420274436366845365,1209.6,1.34129938597764420274436366845365
56,1255.34493498975015964771003823904732,1254.0,1.34493498975015964771003823904732
57,1300.54850601862687630046868996438485,1299.2,1.34850601862687630046868996438485
58,1346.55201472884188765840802292058195,1345.2,1.35201472884188765840802292058195
59,1393.35546326032655656134173134319366,1392.0,1.35546326032655656134173134319366
60,1440.95885364457260081670824844054753,1439.6,1.35885364457260081670824844054753
61,1489.36218781184139657668266939784257,1488.0,1.36218781184139657668266939784257
62,1538.56546759778369052204607395107502,1537.2,1.36546759778369052204607395107502
63,1588.56869474952667001863033643121905,1587.2,1.36869474952667001863033643121905
64,1639.37187093127902793222998944837259,1638.0,1.37187093127902793222998944837259
65,1690.97499772949912394789646028448004,1689.6,1.37499772949912394789646028448004
66,1743.37807665766649690047204315205339,1742.0,1.37807665766649690047204315205339
67,1796.58110916069272033189279257367480,1795.2,1.38110916069272033189279257367480
68,1850.58409661900383732997852588164244,1849.2,1.38409661900383732997852588164244
69,1905.38704035232329803269973170264336,1904.0,1.38704035232329803269973170264336
70,1960.98994162318139491364449205467887,1959.6,1.38994162318139491364449205467887
71,2017.39280164017459226067763229396049,2016.0,1.39280164017459226067763229396049
72,2074.59562156099584801740157997496566,2073.2,1.39562156099584801740157997496566
73,2132.59840249525497315062562497367058,2131.2,1.39840249525497315062562497367058
74,2191.40114550710625485849554799418693,2190.0,1.40114550710625485849554799418693
75,2251.00385161769893883283289190763643,2249.6,1.40385161769893883283289190763643
76,2311.40652180746471623247663765887375,2310.0,1.40652180746471623247663765887375
77,2372.60915701825505862600247405406505,2371.2,1.40915701825505862600247405406505
78,2434.61175815534007836401390160093106,2433.2,1.41175815534007836401390160093106
79,2497.41432608927954502120755107200337,2496.0,1.41432608927954502120755107200337
80,2561.01686165767575042276978072525249,2559.6,1.41686165767575042276978072525249
81,2625.41936566681706542818648019121555,2624.0,1.41936566681706542818648019121555
82,2690.62183889322027019499320867480012,2689.2,1.42183889322027019499320867480012
83,2756.62428208507905091120452361775572,2755.2,1.42428208507905091120452361775572
84,2823.42669596362543169344470696289060,2822.0,1.42669596362543169344470696289060
85,2891.02908122441035107162944486039128,2889.6,1.42908122441035107162944486039128
86,2959.43143853850907661565834393627431,2958.0,1.43143853850907661565834393627431
87,3028.63376855365669378877968827028134,3027.2,1.43376855365669378877968827028134
88,3098.63607189531848173455279138371038,3097.2,1.43607189531848173455279138371038
89,3169.43834916769960520217278903049139,3168.0,1.43834916769960520217278903049139
90,3241.04060095469820859819387134566831,3239.6,1.44060095469820859819387134566831
91,3313.44282782080567670063734725168239,3312.0,1.44282782080567670063734725168239
92,3386.64503031195753827393141275209870,3385.2,1.44503031195753827393141275209870
93,3460.64720895633822656807587522528369,3459.2,1.44720895633822656807587522528369
94,3535.44936426514266775668674665884793,3534.0,1.44936426514266775668674665884793
95,3611.05149673329744721454776334141751,3609.6,1.45149673329744721454776334141751
96,3687.45360684014410171317998246690555,3686.0,1.45360684014410171317998246690555
97,3764.65569505008690127083261894385479,3763.2,1.45569505008690127083261894385479
98,3842.65776181320731151900292219851161,3841.2,1.45776181320731151900292219851161
99,3921.45980756584717397540644720461243,3920.0,1.45980756584717397540644720461243
100,4001.06183273116249527290231431749932,3999.6,1.46183273116249527290231431749932
101,4081.46383771964960708972569876865581,4080.0,1.46383771964960708972569876865581
102,4162.66582292964533295165868906157793,4161.2,1.46582292964533295165868906157793
103,4244.66778874780269016315936541228941,4243.2,1.46778874780269016315936541228941
104,4327.46973554954354785975980861689242,4326.0,1.46973554954354785975980861689242
105,4411.07166369948956910028659510959243,4409.6,1.47166369948956910028659510959243
106,4495.47357355187267415321627571685590,4494.0,1.47357355187267415321627571685590
107,4580.67546545092618404952278280058707,4579.2,1.47546545092618404952278280058707
108,4666.67733973125772423482091808826139,4665.2,1.47733973125772423482091808826139
109,4753.47919671820489956007722107593715,4752.0,1.47919671820489956007722107593715
110,4841.08103672817468943003498335437583,4839.6,1.48103672817468943003498335437583
111,4929.48286006896744606730323171948435,4928.0,1.48286006896744606730323171948435
112,5018.68466704008632941642759568185024,5017.2,1.48466704008632941642759568185024
113,5108.68645793303295667646697671396104,5107.2,1.48645793303295667646697671396104
114,5199.48823303158999569284593131448918,5198.0,1.48823303158999569284593131448918
115,5291.08999261209139099075090104424293,5289.6,1.48999261209139099075090104424293
116,5383.49173694368086290069152790303098,5382.0,1.49173694368086290069152790303098
117,5476.69346628855928851384261386211620,5475.2,1.49346628855928851384261386211620
118,5570.69518090222153217367855659816001,5569.2,1.49518090222153217367855659816001
119,5665.49688103368325949669659195694094,5664.0,1.49688103368325949669659195694094
120,5761.09856692569824307279201281068135,5759.6,1.49856692569824307279201281068135
121,5857.50023881496662972860545602600130,5856.0,1.50023881496662972860545602600130
122,5954.70189693233462032403102092186505,5953.2,1.50189693233462032403102092186505
123,6052.70354150298598085914356349644690,6051.2,1.50354150298598085914356349644690
124,6151.50517274662578598899591833518609,6150.0,1.50517274662578598899591833518609
125,6251.10679087765676647747595408095397,6249.6,1.50679087765676647747595408095397
126,6351.50839610534861692411695982724024,6350.0,1.50839610534861692411695982724024
127,6452.70998863400059951986918388585052,6451.2,1.50998863400059951986918388585052
128,6554.71156866309775700065399159012382,6553.2,1.51156866309775700065399159012382
129,6657.51313638746103589428365274381220,6656.0,1.51313638746103589428365274381220
130,6761.11469199739160277446500693109168,6759.6,1.51469199739160277446500693109168
131,6865.51623567880962083148919914111499,6864.0,1.51623567880962083148919914111499
132,6970.71776761338773909201046443617776,6969.2,1.51776761338773909201046443617776
133,7076.71928797867953483873316978083846,7075.2,1.51928797867953483873316978083846
134,7183.52079694824313850487210407003602,7182.0,1.52079694824313850487210407003602
135,7291.12229469176025220990815458596000,7289.6,1.52229469176025220990815458596000
136,7399.52378137515076941563283044525231,7398.0,1.52378137515076941563283044525231
137,7508.72525716068318987353546828985250,7507.2,1.52525716068318987353546828985250
138,7618.72672220708101042259607861767358,7617.2,1.52672220708101042259607861767358
139,7729.52817666962527009064405137415973,7728.0,1.52817666962527009064405137415973
140,7841.12962070025341250647702854811798,7839.6,1.52962070025341250647702854811798
141,7953.53105444765462407244492216301754,7952.0,1.53105444765462407244492216301754
142,8066.73247805736179827394091653508423,8065.2,1.53247805736179827394091653508423
143,8180.73389167184026785207253014864436,8179.2,1.53389167184026785207253014864436
144,8295.53529543057343938615172716328129,8294.0,1.53529543057343938615172716328129
145,8411.13668947014546064488575268857069,8409.6,1.53668947014546064488575268857069
146,8527.53807392432104319640203527749250,8526.0,1.53807392432104319640203527749250
147,8644.73944892412255456427660323232114,8643.2,1.53944892412255456427660323232114
148,8762.74081459790449525870378517725484,8761.2,1.54081459790449525870378517725484
149,8881.54217107142546248387445490139333,8880.0,1.54217107142546248387445490139333
150,9001.14351846791770416255314064085791,8999.6,1.54351846791770416255314064085791
151,9121.54485690815435919222578163842934,9120.0,1.54485690815435919222578163842934
152,9242.74618651051447423210447616943659,9241.2,1.54618651051447423210447616943659
153,9364.74750739104588597080434713147162,9363.2,1.54750739104588597080434713147162
154,9487.54881966352605277405587661640366,9486.0,1.54881966352605277405587661640366
155,9611.15012343952091394857069762476116,9609.6,1.55012343952091394857069762476116
156,9735.55141882844185448855039745297737,9734.0,1.55141882844185448855039745297737
157,9860.75270593760084635157050520015384,9859.2,1.55270593760084635157050520015384
158,9986.75398487226383808207309478895289,9985.2,1.55398487226383808207309478895289
159,10113.5552557357024564554344570469408,10112.0,1.5552557357024564554344570469408
160,10241.1565186292440864802834141126870,10239.6,1.5565186292440864802834141126870
161,10369.5577736523203882553291352406988,10368.0,1.5577736523203882553291352406988
162,10498.7590209025143101419402093299372,10497.2,1.5590209025143101419402093299372
163,10628.7602604756056531059177804655972,10627.2,1.5602604756056531059177804655972
164,10759.5614924656152408652059176026231,10758.0,1.5614924656152408652059176026231
165,10891.1627169648477444439062163412152,10889.6,1.5627169648477444439062163412152
166,11023.5639340639332116483380729596162,11022.0,1.5639340639332116483380729596162
167,11156.7651438518673486976216799309442,11155.2,1.5651438518673486976216799309442
168,11290.7663464160505966978564464502955,11289.2,1.5663464160505966978564464502955
169,11425.5675418423260480221486646063745,11424.0,1.5675418423260480221486646063745
170,11561.1687302150162423397713579772130,11559.6,1.5687302150162423397713579772130
171,11697.5699116169588824890867512739392,11696.0,1.5699116169588824890867512739392
172,11834.7710861295415080610632535804477,11833.2,1.5710861295415080610632535804477
173,11972.7722538327351620958948141853430,11971.2,1.5722538327351620958948141853430
174,12111.5734148051270867364189143585459,12110.0,1.5734148051270867364189143585459
175,12251.1745691239524818234497951239575,12249.6,1.5745691239524818234497951239575
176,12391.5757168651253561395696328341260,12390.0,1.5757168651253561395696328341260
177,12532.7768581032685045621071136988842,12531.2,1.5768581032685045621071136988842
178,12674.7779929117426402798969916461746,12673.2,1.5779929117426402798969916461746
179,12817.5791213626747085189671190306905,12816.0,1.5791213626747085189671190306905
180,12961.1802435269854127237573401570316,12959.6,1.5802435269854127237573401570316
181,13105.5813594744159758426651721082654,13104.0,1.5813594744159758426651721082654
182,13250.7824692735541644135175294128215,13249.2,1.5824692735541644135175294128215
183,13396.7835729918595984984610421571678,13395.2,1.5835729918595984984610421571678
184,13543.5846706956883717100290483665711,13542.0,1.5846706956883717100290483665711
185,13691.1857624503170031367369924327890,13689.6,1.5857624503170031367369924327890
186,13839.5868483199657421370552201161337,13838.0,1.5868483199657421370552201161337
187,13988.7879283678212498024955915477022,13987.2,1.5879283678212498024955915477022
188,14138.7890026560586725263664575979420,14137.2,1.5890026560586725263664575979420
189,14289.5900712458631314095306307155458,14288.0,1.5900712458631314095306307155458
190,14441.1911341974506431544920855684972,14439.6,1.5911341974506431544920855684972
191,14593.5921915700884916706170343933857,14592.0,1.5921915700884916706170343933857
192,14746.7932434221150667729495788200114,14745.2,1.5932434221150667729495788200114
193,14900.7942898109591882787338907982652,14899.2,1.5942898109591882787338907982652
194,15055.5953307931589288426917309916406,15054.0,1.5953307931589288426917309916406
195,15211.1963664243799534636892110608638,15209.6,1.5963664243799534636892110608638
196,15367.5973967594333893549688300957834,15366.0,1.5973967594333893549688300957834
197,15524.7984218522932405535528877975756,15523.2,1.5984218522932405535528877975756
198,15682.7994417561133614310861005316022,15681.2,1.5994417561133614310861005316022
199,15841.6004565232440019402676209084488,15840.0,1.6004565232440019402676209084488
200,16001.2014662052479385373723719419256,15999.6,1.6014662052479385373723719419256
201,16161.6024708529162017575870587999972,16160.0,1.6024708529162017575870587999972
202,16322.8034705162834138196274039538925,16321.2,1.6034705162834138196274039538925
203,16484.8044652446427469146747675021662,16483.2,1.6044652446427469146747675021662
204,16647.6054550865605137948643118682357,16646.0,1.6054550865605137948643118682357
205,16811.2064400898904006270072230048228,16809.6,1.6064400898904006270072230048228
206,16975.6074203017873551306276311857434,16974.0,1.6074203017873551306276311857434
207,17140.8083957687211358713259658525397,17139.2,1.6083957687211358713259658525397
208,17306.8093665364895369312705392677054,17305.2,1.6093665364895369312705392677054
209,17473.6103326502312937000479241802587,17472.0,1.6103326502312937000479241802587
210,17641.2112941544386812818825957576568,17639.6,1.6112941544386812818825957576568
211,17809.6122510929698128786012502897357,17808.0,1.6122510929698128786012502897357
212,17978.8132035090606483758917122314502,17977.2,1.6132035090606483758917122314502
213,18148.8141514453367175111808036254696,18147.2,1.6141514453367175111808036254696
214,18319.6150949438245725992577164734022,18318.0,1.6150949438245725992577164734022
215,18491.2160340459629700223219091377043,18489.6,1.6160340459629700223219091377043
216,18663.6169687926137944393678692076963,18662.0,1.6169687926137944393678692076963
217,18836.8178992240727296744127601039075,18835.2,1.6178992240727296744127601039075
218,19010.8188253800796852564903003729560,19009.2,1.6188253800796852564903003729560
219,19185.6197472998289818848311284700950,19184.0,1.6197472998289818848311284700950
220,19361.2206650219793083278479996378477,19359.6,1.6206650219793083278479996378477
221,19537.6215785846634476587192519366206,19536.0,1.6215785846634476587192519366206
222,19714.8224880254977900254484085664110,19713.2,1.6224880254977900254484085664110
223,19892.8233933815916255167532607371315,19891.2,1.6233933815916255167532607371315
224,20071.6242946895562321836160781094495,20070.0,1.6242946895562321836160781094495
225,20251.2251919855137617735825902711369,20249.6,1.6251919855137617735825902711369
226,20431.6260853051059267163040329910490,20430.0,1.6260853051059267163040329910490
227,20612.8269746835024970037355595188364,20611.2,1.6269746835024970037355595188364
228,20794.8278601554096087757694394553000,20793.2,1.6278601554096087757694394553000
229,20977.6287417550778917640349251485690,20976.0,1.6287417550778917640349251485690
230,21161.2296195163104202807031354833237,21159.6,1.6296195163104202807031354833237
231,21345.6304934724704895421746420426196,21344.0,1.6304934724704895421746420426196
232,21530.8313636564892277371889273835089,21529.2,1.6313636564892277371889273835089
233,21716.8322301008730388254918685633772,21715.2,1.6322301008730388254918685633772
234,21903.6330928377108922137729626883334,21902.0,1.6330928377108922137729626883334
235,22091.2339518986814524806298177430350,22089.6,1.6339518986814524806298177430350
236,22279.6348073150600588500009961383342,22278.0,1.6348073150600588500009961383342
237,22468.8356591177255580338809141432037,22467.2,1.6356591177255580338809141432037
238,22658.8365073371669921760277908446745,22657.2,1.6365073371669921760277908446745
