Eigenstate,Energy,Kinetic Energy,Potential Energy
1,0.500000000014403140274509112659941103,0.0,0.500000000014403140274509112659941103
2,1.84623093774513079408129708269889910,1.2,0.64623093774513079408129708269889910
3,3.93633760998114031439533140212064774,3.2,0.73633760998114031439533140212064774
4,6.79966527838945774150370130151293456,6.0,0.79966527838945774150370130151293456
5,10.4480465762820815887500488194937008,9.6,0.8480465762820815887500488194937008
6,14.8870659984120887945462660564667716,14.0,0.8870659984120887945462660564667716
7,20.1197208262169051284082498210784471,19.2,0.9197208262169051284082498210784471
8,26.1477838460730884892534547705490837,25.2,0.9477838460730884892534547705490837
9,32.9723835569866962609227967950866497,32.0,0.9723835569866962609227967950866497
10,40.5942802131061623343143816248536175,39.6,0.9942802131061623343143816248536175
11,49.0140093845724329008004661200933537,48.0,1.0140093845724329008004661200933537
12,58.2319621666900709120212857187098104,57.2,1.0319621666900709120212857187098104
13,68.2484326895248330858580198971026666,67.2,1.0484326895248330858580198971026666
14,79.0636476507598229216002438357948013,78.0,1.0636476507598229216002438357948013
15,90.6777854315096704488368994104124820,89.6,1.0777854315096704488368994104124820
16,103.090988901190974133397427253002066,102.0,1.090988901190974133397427253002066
17,116.303374250983803257128961554497749,115.2,1.103374250983803257128961554497749
18,130.315037244837896156829255550471015,129.2,1.115037244837896156829255550471015
19,145.126057742576637066150910199454000,144.0,1.126057742576637066150910199454000
20,160.736503037530992056506068910200094,159.6,1.136503037530992056506068910200094
21,177.146430362621205883311792093918985,176.0,1.146430362621205883311792093918985
22,194.355888801515541894307578248497301,193.2,1.155888801515541894307578248497301
23,212.364920766566806529294405333198033,211.2,1.164920766566806529294405333198033
24,231.173563156212771369971480139133119,230.0,1.173563156212771369971480139133119
25,250.781848271772099453675542028145835,249.6,1.181848271772099453675542028145835
26,271.189804551251932968017737725317407,270.0,1.189804551251932968017737725317407
27,292.397457162310469045904800478747039,291.2,1.197457162310469045904800478747039
28,314.404828485615999573789308967631406,313.2,1.204828485615999573789308967631406
29,337.211938512048863106192582319811451,336.0,1.211938512048863106192582319811451
30,360.818805171543269411434762993701653,359.6,1.218805171543269411434762993701653
31,385.225444607220018674271541081368429,384.0,1.225444607220018674271541081368429
32,410.431871405383237797022599289107843,409.2,1.231871405383237797022599289107843
33,436.438098789644608437099181864728772,435.2,1.238098789644608437099181864728772
34,463.244138785688015153026220153242984,462.0,1.244138785688015153026220153242984
35,490.850002361848346965623855890596948,489.6,1.250002361848346965623855890596948
36,519.255699549644706762678011926179815,518.0,1.255699549644706762678011926179815
37,548.461239547604198427085089347329261,547.2,1.261239547604198427085089347329261
38,578.466630811082042825453035364533987,577.2,1.266630811082042825453035364533987
39,609.271881130285925144734190644675144,608.0,1.271881130285925144734190644675144
40,640.876997698316655281009546321361105,639.6,1.276997698316655281009546321361105
41,673.281987170720472710895384195645458,672.0,1.281987170720472710895384195645458
42,706.486855717793334674596605948943920,705.2,1.286855717793334674596605948943920
43,740.491609070671040154762787412673448,739.2,1.291609070671040154762787412673448
44,775.296252562070948119838459855900711,774.0,1.296252562070948119838459855900711
45,810.900791162413478931634915177624710,809.6,1.300791162413478931634915177624710
46,847.305229511938451534284737504090427,846.0,1.305229511938451534284737504090427
47,884.509571949337832429431716613050257,883.2,1.309571949337832429431716613050257
48,922.513822537348886078279867245092477,921.2,1.313822537348886078279867245092477
49,961.317985085687053827244898006746885,960.0,1.317985085687053827244898006746885
50,1000.92206317164376574031172367631524,999.6,1.32206317164376574031172367631524
51,1041.32606015862892275874047273188448,1040.0,1.32606015862892275874047273188448
52,1082.52997921289944139447359990008515,1081.2,1.32997921289944139447359990008515
53,1124.53382331868280304505875307861197,1123.2,1.33382331868280304505875307861197
54,1167.33759529187698888645270632542129,1166.0,1.33759529187698888645270632542129
55,1210.94129779248470580756560732253022,1209.6,1.34129779248470580756560732253022
56,1255.34493333591973428028453178143991,1254.0,1.34493333591973428028453178143991
57,1300.54850430330603009360053219709571,1299.2,1.34850430330603009360053219709571
58,1346.55201295087541469417598325503710,1345.2,1.35201295087541469417598325503710
59,1393.35546141855693492841699825647357,1392.0,1.35546141855693492841699825647357
60,1440.95885173783994847341604761326066,1439.6,1.35885173783994847341604761326066
61,1489.36218583898342701662762802079591,1488.0,1.36218583898342701662762802079591
62,1538.56546555763566823902832133399769,1537.2,1.36546555763566823902832133399769
63,1588.56869264092136576749373921158647,1587.2,1.36869264092136576749373921158647
64,1639.37186875304667378220424124092586,1638.0,1.37186875304667378220424124092586
65,1690.97499548046736812491972535486519,1689.6,1.37499548046736812491972535486519
66,1743.37807433666035841491087782168957,1742.0,1.37807433666035841491087782168957
67,1796.58110676653454338800936798346936,1795.2,1.38110676653454338800936798346936
68,1850.58409415051324551343178695599164,1849.2,1.38409415051324551343178695599164
69,1905.38703780831714827230601239260612,1904.0,1.38703780831714827230601239260612
70,1960.98993900247373121356538785853140,1959.6,1.38993900247373121356538785853140
71,2017.39279894157659919914536984888902,2016.0,1.39279894157659919914536984888902
72,2074.59561878331580400803809267239289,2073.2,1.39561878331580400803809267239289
73,2132.59839963729820346235708682392511,2131.2,1.39839963729820346235708682392511
74,2191.40114256767508439001205872673324,2190.0,1.40114256767508439001205872673324
75,2251.00384859559264463749087264905608,2249.6,1.40384859559264463749087264905608
76,2311.40651870147947978949093050729020,2310.0,1.40651870147947978949093050729020
77,2372.60915382718391785372423227360323,2371.2,1.40915382718391785372423227360323
78,2434.61175487797287937104040553448100,2433.2,1.41175487797287937104040553448100
79,2497.41432272440289359101990124992112,2496.0,1.41432272440289359101990124992112
80,2561.01685820407296322754527495496030,2559.6,1.41685820407296322754527495496030
81,2625.41936212326812096738194447751125,2624.0,1.41936212326812096738194447751125
82,2690.62183525850175945424641714554162,2689.2,1.42183525850175945424641714554162
83,2756.62427835796412773705042570288954,2755.2,1.42427835796412773705042570288954
84,2823.42669214288376287929331266731522,2822.0,1.42669214288376287929331266731522
85,2891.02907730880806615040140159674270,2889.6,1.42907730880806615040140159674270
86,2959.43143452680871735442384571990206,2958.0,1.43143452680871735442384571990206
87,3028.63376444461716338069457190254022,3027.2,1.43376444461716338069457190254022
88,3098.63606768769499368333432340337481,3097.2,1.43606768769499368333432340337481
89,3169.43834486024363189430531774693720,3168.0,1.43834486024363189430531774693720
90,3241.04059654615742955800178794723007,3239.6,1.44059654615742955800178794723007
91,3313.44282330992392652330900549516503,3312.0,1.44282330992392652330900549516503
92,3386.64502569747475423152427849310283,3385.2,1.44502569747475423152427849310283
93,3460.64720423699039588347781061935555,3459.2,1.44720423699039588347781061935555
94,3535.44935943966177454045320619538645,3534.0,1.44935943966177454045320619538645
95,3611.05149180041141905947841211126696,3609.6,1.45149180041141905947841211126696
96,3687.45360179857675594144149545430123,3686.0,1.45360179857675594144149545430123
97,3764.65568989855789082837599952973279,3763.2,1.45568989855789082837599952973279
98,3842.65775655043207051196601092099397,3841.2,1.45775655043207051196601092099397
99,3921.45980219053686284313185528671054,3920.0,1.45980219053686284313185528671054
100,4001.06182724202394559214136031890304,3999.6,1.46182724202394559214136031890304
101,4081.46383211538526600453708791716435,4080.0,1.46383211538526600453708791716435
102,4162.66581720895320722344890110484295,4161.2,1.46581720895320722344890110484295
103,4244.66778290937628983524834744532789,4243.2,1.46778290937628983524834744532789
104,4327.46972959207182953079090461954614,4326.0,1.46972959207182953079090461954614
105,4411.07165762165687880073528672301894,4409.6,1.47165762165687880073528672301894
106,4495.47356735235868981918525905880892,4494.0,1.47356735235868981918525905880892
107,4580.67545912840585758794400888749200,4579.2,1.47545912840585758794400888749200
108,4666.67733328440122317411675488196674,4665.2,1.47733328440122317411675488196674
109,4753.47919014567754828026308564024688,4752.0,1.47919014567754828026308564024688
110,4841.08103002863690996617548049382233,4839.6,1.48103002863690996617548049382233
111,4929.48285324107469848016194376495782,4928.0,1.48285324107469848016194376495782
112,5018.68466008248905172407719912783186,5017.2,1.48466008248905172407719912783186
113,5108.68645084437650434055283134928730,5107.2,1.48645084437650434055283134928730
114,5199.48822581051458065312041090255332,5198.0,1.48822581051458065312041090255332
115,5291.08998525723202024141906445191311,5289.6,1.48998525723202024141906445191311
116,5383.49172945366727660203074857595136,5382.0,1.49172945366727660203074857595136
117,5476.69345866201589763247970944200459,5475.2,1.49345866201589763247970944200459
118,5570.69517313776735564482702888037825,5569.2,1.49517313776735564482702888037825
119,5665.49687312993186090157489764459850,5664.0,1.49687312993186090157489764459850
120,5761.09855888125766682436022457787796,5759.6,1.49855888125766682436022457787796
121,5857.50023062843933675867300934559389,5856.0,1.50023062843933675867300934559389
122,5954.70188860231742326470208643346095,5953.2,1.50188860231742326470208643346095
123,6052.70353302806997871147886914288778,6051.2,1.50353302806997871147886914288778
124,6151.50516412539629827168105587790957,6150.0,1.50516412539629827168105587790957
125,6251.10678210869326684819514724154314,6249.6,1.50678210869326684819514724154314
126,6351.50838718722466626623907228469483,6350.0,1.50838718722466626623907228469483
127,6452.70997956528377848695982063337371,6451.2,1.50997956528377848695982063337371
128,6554.71155944234959801123108505513849,6553.2,1.51155944234959801123108505513849
129,6657.51312701323695456913782010732741,6656.0,1.51312701323695456913782010732741
130,6761.11468246824082880876734737898979,6759.6,1.51468246824082880876734737898979
131,6865.51622599327512829380856688831982,6864.0,1.51622599327512829380856688831982
132,6970.71775777000617614226000945035084,6969.2,1.51775777000617614226000945035084
133,7076.71927797598115285696359395355831,7075.2,1.51927797598115285696359395355831
134,7183.52078678475172062272196158662425,7182.0,1.52078678475172062272196158662425
135,7291.12228436599304123641487365700030,7289.6,1.52228436599304123641487365700030
136,7399.52377088561839514899979736121388,7398.0,1.52377088561839514899979736121388
137,7508.72524650588959579033812607976512,7507.2,1.52524650588959579033812607976512
138,7618.72671138552337973579797811880939,7617.2,1.52671138552337973579797811880939
139,7729.52816567979395116767885242224486,7728.0,1.52816567979395116767885242224486
140,7841.12960954063184363853514900359556,7839.6,1.52960954063184363853514900359556
141,7953.53104311671925758598564306186695,7952.0,1.53104311671925758598564306186695
142,8066.73246655358202397532885590721619,8065.2,1.53246655358202397532885590721619
143,8180.73387999367833579611506120815898,8179.2,1.53387999367833579611506120815898
144,8295.53528357648438195918855911673474,8294.0,1.53528357648438195918855911673474
145,8411.13667743857701395295491211218665,8409.6,1.53667743857701395295491211218665
146,8527.53806171371356774887675883196940,8526.0,1.53806171371356774887675883196940
147,8644.73943653290895524323589754928564,8643.2,1.53943653290895524323589754928564
148,8762.74080202451014056416601786937928,8761.2,1.54080202451014056416601786937928
149,8881.54215831426810304488606324417088,8880.0,1.54215831426810304488606324417088
150,9001.14350552540739050398717184804780,8999.6,1.54350552540739050398717184804780
151,9121.54484377869335874700219677278377,9120.0,1.54484377869335874700219677278377
152,9242.74617319249718758840230299146414,9241.2,1.54617319249718758840230299146414
153,9364.74749388285876234368836507303018,9363.2,1.54749388285876234368836507303018
154,9487.54880596354750469079299199644769,9486.0,1.54880596354750469079299199644769
155,9611.15010954612123113675909864685503,9609.6,1.55010954612123113675909864685503
156,9735.55140473998311695603099655122395,9734.0,1.55140473998311695603099655122395
157,9860.75269165243683664693388033906212,9859.2,1.55269165243683664693388033906212
158,9986.75397038873995272441511141424514,9985.2,1.55397038873995272441511141424514
159,10113.5552410521556165218527161734076,10112.0,1.5552410521556165218527161734076
160,10241.1565037440026473394407956316336,10239.6,1.5565037440026473394407956316336
161,10369.5577585637040484352427754161011,10368.0,1.5577585637040484352427754161011
162,10498.7590056088340193199838128142892,10497.2,1.5590056088340193199838128142892
163,10628.7602449751635192088517237192844,10627.2,1.5602449751635192088517237192844
164,10759.5614767567044362668712826667459,10758.0,1.5614767567044362668712826667459
165,10891.1627010457524112480395073804746,10889.6,1.5627010457524112480395073804746
166,11023.5639179329283660437806336379225,11022.0,1.5639179329283660437806336379225
167,11156.7651275072187843730101443612513,11155.2,1.5651275072187843730101443612513
168,11290.7663298560147873026912455171957,11289.2,1.5663298560147873026912455171957
169,11425.5675250651500486609443662449531,11424.0,1.5675250651500486609443662449531
170,11561.1687132189375900857952195568068,11559.6,1.5687132189375900857952195568068
171,11697.5698944002054959039921359486818,11696.0,1.5698944002054959039921359486818
172,11834.7710686903315857065204483828382,11833.2,1.5710686903315857065204483828382
173,11972.7722361692770800231145383401233,11971.2,1.5722361692770800231145383401233
174,12111.5733969156192949392513896328969,12110.0,1.5733969156192949392513896328969
175,12251.1745510065833996405284464907672,12249.6,1.5745510065833996405284464907672
176,12391.5756985180732665907484064713802,12390.0,1.5756985180732665907484064713802
177,12532.7768395247014476042181991441888,12531.2,1.5768395247014476042181991441888
178,12674.7779740998183049666280908600397,12673.2,1.5779740998183049666280908600397
179,12817.5791023155403240494264409493436,12816.0,1.5791023155403240494264409493436
180,12961.1802242427776383640587199308249,12959.6,1.5802242427776383640587199308249
181,13105.5813399512607897046266264915772,13104.0,1.5813399512607897046266264915772
182,13250.7824495095667510743222667145195,13249.2,1.5824495095667510743222667145195
183,13396.7835529851442354448809343873215,13395.2,1.5835529851442354448809343873215
184,13543.5846504443383145905580428944301,13542.0,1.5846504443383145905580428944301
185,13691.1857419524143698047229426385714,13689.6,1.5857419524143698047229426385714
186,13839.5868275735813954676583825801536,13838.0,1.5868275735813954676583825801536
187,13988.7879073710146792660321951968973,13987.2,1.5879073710146792660321951968973
188,14138.7889814068778745003247888586551,14137.2,1.5889814068778745003247888586551
189,14289.5900497423444882112690933318556,14288.0,1.5900497423444882112690933318556
190,14441.1911124376188007763465402931483,14439.6,1.5911124376188007763465402931483
191,14593.5921695519562361988563694631342,14592.0,1.5921695519562361988563694631342
192,14746.7932211436831994717260578467387,14745.2,1.5932211436831994717260578467387
193,14900.7942672702163993198749935596957,14899.2,1.5942672702163993198749935596957
194,15055.5953079880816696618776221226083,15054.0,1.5953079880816696618776221226083
195,15211.1963433529323077232477820511565,15209.6,1.5963433529323077232477820511565
196,15367.5973734195669424932065579714195,15366.0,1.5973734195669424932065579714195
197,15524.7983982419469479002166097888580,15523.2,1.5983982419469479002166097888580
198,15682.7994178732134148682237690752316,15681.2,1.5994178732134148682237690752316
199,15841.6004323657036950874210144122164,15840.0,1.6004323657036950874210144122164
200,16001.2014417709675304396955007844234,15999.6,1.6014417709675304396955007844234
201,16161.6024461397827790551370775372427,16160.0,1.6024461397827790551370775372427
202,16322.8034455221707513757192122331552,16321.2,1.6034455221707513757192122331552
203,16484.8044399674111668808340445119424,16483.2,1.6044399674111668808340445119424
204,16647.6054295240567430895426602428102,16646.0,1.6054295240567430895426602428102
205,16811.2064142399474268048522659515485,16809.6,1.6064142399474268048522659515485
206,16975.6073941622242806187167778634893,16974.0,1.6073941622242806187167778634893
207,17140.8083693373430305483859443507124,17139.2,1.6083693373430305483859443507124
208,17306.8093398110872890255072209565610,17305.2,1.6093398110872890255072209565610
209,17473.6103056285814589808076170804674,17472.0,1.6103056285814589808076170804674
210,17641.2112668343033305199541282332827,17639.6,1.6112668343033305199541282332827
211,17809.6122234720963775495487845016379,17808.0,1.6122234720963775495487845016379
212,17978.8131755851817645803799810089717,17977.2,1.6131755851817645803799810089717
213,18148.8141232161700680858175971166897,18147.2,1.6141232161700680858175971166897
214,18319.6150664070727273910350628791874,18318.0,1.6150664070727273910350628791874
215,18491.2160051993132242992826041161179,18489.6,1.6160051993132242992826041161179
216,18663.6169396337380054096617123879979,18662.0,1.6169396337380054096617123879979
217,18836.8178697506271510854358802989892,18835.2,1.6178697506271510854358802989892
218,19010.8187955897048000453200116186919,19009.2,1.6187955897048000453200116186919
219,19185.6197171901493328506769156419084,19184.0,1.6197171901493328506769156419084
220,19361.2206345906033267967410705656236,19359.6,1.6206345906033267967410705656236
221,19537.6215478291832801101516728356308,19536.0,1.6215478291832801101516728356308
222,19714.8224569434891226501526565245765,19713.2,1.6224569434891226501526565245765
223,19892.8233619706135066742828381412816,19891.2,1.6233619706135066742828381412816
224,20071.6242629471508927278463137634969,20070.0,1.6242629471508927278463137634969
225,20251.2251599092064332136974636324002,20249.6,1.6251599092064332136974636324002
226,20431.6260528924046571802730941978709,20430.0,1.6260528924046571802730941978709
227,20612.8269419318979649707098391109588,20611.2,1.6269419318979649707098391109588
228,20794.8278270623749345432376883629795,20793.2,1.6278270623749345432376883629795
229,20977.6287083180684466149845178351751,20976.0,1.6287083180684466149845178351751
230,21161.2295857327636333154194406462426,21159.6,1.6295857327636333154194406462426
231,21345.6304593398056521386889574712621,21344.0,1.6304593398056521386889574712621
232,21530.8313291721072956037499382192112,21529.2,1.6313291721072956037499382192112
233,21716.8321952621564316077871214352578,21715.2,1.6321952621564316077871214352578
234,21903.6330576420232906189639970477387,21902.0,1.6330576420232906189639970477387
235,22091.2339163433675928795900505341951,22089.6,1.6339163433675928795900505341951
236,22279.6347713974455253184552822422949,22278.0,1.6347713974455253184552822422949
237,22468.8356228351165717924413829609309,22467.2,1.6356228351165717924413829609309
238,22658.8364706868501983884028147017941,22657.2,1.6364706868501983884028147017941
