Eigenstate,Energy,Kinetic Energy,Potential Energy
1,0.500000000050158073175610127723675951,0.0,0.500000000050158073175610127723675951
2,1.84623093797852052265894027948057681,1.2,0.64623093797852052265894027948057681
3,3.93633761066670453885338689388667482,3.2,0.73633761066670453885338689388667482
4,6.79966527981741182096917896290979199,6.0,0.79966527981741182096917896290979199
5,10.4480465787555948584944734347576680,9.6,0.8480465787555948584944734347576680
6,14.8870660022396393214965648481331906,14.0,0.8870660022396393214965648481331906
7,20.1197208317094627687110435646269933,19.2,0.9197208317094627687110435646269933
8,26.1477838535429400818990423824682605,25.2,0.9477838535429400818990423824682605
9,32.9723835667468993187823665393488803,32.0,0.9723835667468993187823665393488803
10,40.5942802254702677471708159328067780,39.6,0.9942802254702677471708159328067780
11,49.0140093998543342771424676359236829,48.0,1.0140093998543342771424676359236829
12,58.2319621852039184542340919190571725,57.2,1.0319621852039184542340919190571725
13,68.2484327115849825978466248951124111,67.2,1.0484327115849825978466248951124111
14,79.0636476766808050354000188665423146,78.0,1.0636476766808050354000188665423146
15,90.6777854616061720491857156407415382,89.6,1.0777854616061720491857156407415382
16,103.090988935777827444711987925784828,102.0,1.090988935777827444711987925784828
17,116.303374290375979915041551719333430,115.2,1.103374290375979915041551719333430
18,130.315037289350504622777024373667743,129.2,1.115037289350504622777024373667743
19,145.126057792524922345144429779908040,144.0,1.126057792524922345144429779908040
20,160.736503093230337039950146261948160,159.6,1.136503093230337039950146261948160
21,177.146430424387133863129005935354027,176.0,1.146430424387133863129005935354027
22,194.355888869663719937700002359192433,193.2,1.155888869663719937700002359192433
23,212.364920841413049497020131231752267,211.2,1.164920841413049497020131231752267
24,231.173563238073046423549489619505002,230.0,1.173563238073046423549489619505002
25,250.781848360962530939597893341090213,249.6,1.181848360962530939597893341090213
26,271.189804648088807596697607107541438,270.0,1.189804648088807596697607107541438
27,292.397457267110241304042993175587218,291.2,1.197457267110241304042993175587218
28,314.404828598695297323880547794952981,313.2,1.204828598695297323880547794952981
29,337.211938633724493337840089450029438,336.0,1.211938633724493337840089450029438
30,360.818805302132224117215261643883588,359.6,1.218805302132224117215261643883588
31,385.225444747039480828919508194910895,384.0,1.225444747039480828919508194910895
32,410.431871554750587423251941823662652,409.2,1.231871554750587423251941823662652
33,436.438098948877428744850673025026986,435.2,1.238098948877428744850673025026986
34,463.244138955104098741601720846452855,462.0,1.244138955104098741601720846452855
35,490.850002541765702080245675232281911,489.6,1.250002541765702080245675232281911
36,519.255699740381563598639972179201655,518.0,1.255699740381563598639972179201655
37,548.461239749479015475948423015221336,547.2,1.261239749479015475948423015221336
38,578.466631024413513258764315800603758,577.2,1.266631024413513258764315800603758
39,609.271881355392983231563486204684323,608.0,1.271881355392983231563486204684323
40,640.876997935518482836269596372692518,639.6,1.276997935518482836269596372692518
41,673.281987420336505571940615007582219,672.0,1.281987420336505571940615007582219
42,706.486855980143269204040438762928715,705.2,1.286855980143269204040438762928715
43,740.491609346074839767812870367780694,739.2,1.291609346074839767812870367780694
44,775.296252850848849834747780300407434,774.0,1.296252850848849834747780300407434
45,810.900791464885999942114461711052784,809.6,1.300791464885999942114461711052784
46,847.305229828426395802930117538232706,846.0,1.305229828426395802930117538232706
47,884.509572280162297301389332388988733,883.2,1.309572280162297301389332388988733
48,922.513822882831268914524238421257411,921.2,1.313822882831268914524238421257411
49,961.317985446149058656962068880507099,960.0,1.317985446149058656962068880507099
50,1000.92206354740740993198847803265018,999.6,1.32206354740740993198847803265018
51,1041.32606055001654370964851382924776,1040.0,1.32606055001654370964851382924776
52,1082.52997962023370323831429747262040,1081.2,1.32997962023370323831429747262040
53,1124.53382374228670337759980981340332,1123.2,1.33382374228670337759980981340332
54,1167.33759573207386550904481523078839,1166.0,1.33759573207386550904481523078839
55,1210.94129824959824348847625460908069,1209.6,1.34129824959824348847625460908069
56,1255.34493381027397153382873922115158,1254.0,1.34493381027397153382873922115158
57,1300.54850479522536597708545965932723,1299.2,1.34850479522536597708545965932723
58,1346.55201346068461562270896266252992,1345.2,1.35201346068461562270896266252992
59,1393.35546194658114150765498315375989,1392.0,1.35546194658114150765498315375989
60,1440.95885228440468235035967841958402,1439.6,1.35885228440468235035967841958402
61,1489.36218640441459774858531081276800,1488.0,1.36218640441459774858531081276800
62,1538.56546614225958018089550613344427,1537.2,1.36546614225958018089550613344427
63,1588.56869324506472497751004276862060,1587.2,1.36869324506472497751004276862060
64,1639.37186937703659494636673456570986,1638.0,1.37186937703659494636673456570986
65,1690.97499612463138150024482454381362,1689.6,1.37499612463138150024482454381362
66,1743.37807500132641679174982355957843,1742.0,1.37807500132641679174982355957843
67,1796.58110745203102907163371676202497,1795.2,1.38110745203102907163371676202497
68,1850.58409485716897732511561965389344,1849.2,1.38409485716897732511561965389344
69,1905.38703853646138857014108649253512,1904.0,1.38703853646138857014108649253512
70,1960.98993975243619293325377534273729,1959.6,1.38993975243619293325377534273729
71,2017.39279971368745291502227875755940,2016.0,1.39279971368745291502227875755940
72,2074.59561957790568501458448315625516,2073.2,1.39561957790568501458448315625516
73,2132.59840045469821887646860488138657,2131.2,1.39840045469821887646860488138657
74,2191.40114340821682027429680883348285,2190.0,1.40114340821682027429680883348285
75,2251.00384945960817314487442240768212,2249.6,1.40384945960817314487442240768212
76,2311.40651958930136632941217726432825,2310.0,1.40651958930136632941217726432825
77,2372.60915473914522828021088057232710,2371.2,1.40915473914522828021088057232710
78,2434.61175581440718719295751472238248,2433.2,1.41175581440718719295751472238248
79,2497.41432368564428720478945482086485,2496.0,1.41432368564428720478945482086485
80,2561.01685919045605317263888576744326,2559.6,1.41685919045605317263888576744326
81,2625.41936313512804720489295374689439,2624.0,1.41936313512804720489295374689439
82,2690.62183629617419866885146256827723,2689.2,1.42183629617419866885146256827723
83,2756.62427942178530066267422745100339,2755.2,1.42427942178530066267422745100339
84,2823.42669323319044164879402826487350,2822.0,1.42669323319044164879402826487350
85,2891.02907842593758166959736835483589,2889.6,1.42907842593758166959736835483589
86,2959.43143567109896670078573947875765,2958.0,1.43143567109896670078573947875765
87,3028.63376561640661722703042973837570,3027.2,1.43376561640661722703042973837570
88,3098.63606888732270374679791408980734,3097.2,1.43606888732270374679791408980734
89,3169.43834608804923841106145173361703,3168.0,1.43834608804923841106145173361703
90,3241.04059780248116878388518364106274,3239.6,1.44059780248116878388518364106274
91,3313.44282459510663826081635161088821,3312.0,1.44282459510663826081635161088821
92,3386.64502701185788938348198065025310,3385.2,1.44502701185788938348198065025310
93,3460.64720558091602403373085703807246,3459.2,1.44720558091602403373085703807246
94,3535.44936081347259156192341186766871,3534.0,1.44936081347259156192341186766871
95,3611.05149320445075474994317781434395,3609.6,1.45149320445075474994317781434395
96,3687.45360323318858168738691486042166,3686.0,1.45360323318858168738691486042166
97,3764.65569136408682729728114275448202,3763.2,1.45569136408682729728114275448202
98,3842.65775804722339537337773490177586,3841.2,1.45775804722339537337773490177586
99,3921.45980371893651851889253536094463,3920.0,1.45980371893651851889253536094463
100,4001.06182880237854703613448113505505,3999.6,1.46182880237854703613448113505505
101,4081.46383370804210851231853989687583,4080.0,1.46383370804210851231853989687583
102,4162.66581883426027427213457619088195,4161.2,1.46581883426027427213457619088195
103,4244.66778456768226095403127169772992,4243.2,1.46778456768226095403127169772992
104,4327.46973128372608820246422619732227,4326.0,1.46973128372608820246422619732227
105,4411.07165934700952039459989053871816,4409.6,1.47165934700952039459989053871816
106,4495.47356911176052955572382368393454,4494.0,1.47356911176052955572382368393454
107,4580.67546092220843853564603763077147,4579.2,1.47546092220843853564603763077147
108,4666.67733511295682427884197307021530,4665.2,1.47733511295682427884197307021530
109,4753.47919200933919242753341473443232,4752.0,1.47919200933919242753341473443232
110,4841.08103192775837207678879473936350,4839.6,1.48103192775837207678879473936350
111,4929.48285517601051363952352839531130,4928.0,1.48285517601051363952352839531130
112,5018.68466205359452334564791241641628,5017.2,1.48466205359452334564791241641628
113,5108.68645285200771236381577402263155,5107.2,1.48645285200771236381577402263155
114,5199.48822785502838977647101142720955,5198.0,1.48822785502838977647101142720955
115,5291.08998733898608819038634977605367,5289.6,1.48998733898608819038634977605367
116,5383.49173157302006243324065941803067,5382.0,1.49173157302006243324065941803067
117,5476.69346081932667007377440992346836,5475.2,1.49346081932667007377440992346836
118,5570.69517533339620147195709934313106,5569.2,1.49517533339620147195709934313106
119,5665.49687536423969335188451375418865,5664.0,1.49687536423969335188451375418865
120,5761.09856115460623404788863105420934,5759.6,1.49856115460623404788863105420934
121,5857.50023294119123030709857387743949,5856.0,1.50023294119123030709857387743949
122,5954.70189095483608661855860658321839,5953.2,1.50189095483608661855860658321839
123,6052.70353542071971584607693625644371,6051.2,1.50353542071971584607693625644371
124,6151.50516655854228226217057628402982,6150.0,1.50516655854228226217057628402982
125,6251.10678458270154851420851703092489,6249.6,1.50678458270154851420851703092489
126,6351.50838970246218285655768364309870,6350.0,1.50838970246218285655768364309870
127,6452.70998212211836240465012741648995,6451.2,1.50998212211836240465012741648995
128,6554.71156204114998557969980319823174,6553.2,1.51156204114998557969980319823174
129,6657.51312965437279483955933225779330,6656.0,1.51312965437279483955933225779330
130,6761.11468515208269240933976849438767,6759.6,1.51468515208269240933976849438767
131,6865.51622872019451632129857962802253,6864.0,1.51622872019451632129857962802253
132,6970.71776054037552909630033789173165,6969.2,1.51776054037552909630033789173165
133,7076.71928079017385961757006146567371,7075.2,1.51928079017385961757006146567371
134,7183.52078964314212747150137548009387,7182.0,1.52078964314212747150137548009387
135,7291.12228726895646092193837244944762,7289.6,1.52228726895646092193837244944762
136,7399.52377383353111599681994175604720,7398.0,1.52377383353111599681994175604720
137,7508.72524949912889085813209508024094,7507.2,1.52524949912889085813209508024094
138,7618.72671442446751601412289780750219,7617.2,1.52671442446751601412289780750219
139,7729.52816876482219882682921128570223,7728.0,1.52816876482219882682921128570223
140,7841.12961267212448532199624810443266,7839.6,1.52961267212448532199624810443266
141,7953.53104629505759775098085039501779,7952.0,1.53104629505759775098085039501779
142,8066.73246977914839828096265479732460,8065.2,1.53246977914839828096265479732460
143,8180.73388326685612053961781966636625,8179.2,1.53388326685612053961781966636625
144,8295.53528689765800356077324891632469,8294.0,1.53528689765800356077324891632469
145,8411.13668080813195848979989489132067,8409.6,1.53668080813195848979989489132067
146,8527.53806513203639053875330102043160,8526.0,1.53806513203639053875330102043160
147,8644.73944000038729047830314916198539,8643.2,1.53944000038729047830314916198539
148,8762.74080554153271099546057890825620,8761.2,1.54080554153271099546057890825620
149,8881.54216188122472971803769098492310,8880.0,1.54216188122472971803769098492310
150,9001.14350914268900254669640689429849,8999.6,1.54350914268900254669640689429849
151,9121.54484744669200320882062050570240,9120.0,1.54484744669200320882062050570240
152,9242.74617691160603933336016738696017,9241.2,1.54617691160603933336016738696017
153,9364.74749765347213399631931076728687,9363.2,1.54749765347213399631931076728687
154,9487.54880978606085663610993329449109,9486.0,1.54880978606085663610993329449109
155,9611.15011342093118157474033155237437,9609.6,1.55011342093118157474033155237437
156,9735.55140866748745201118028069356568,9734.0,1.55140866748745201118028069356568
157,9860.75269563303452053348287093660212,9859.2,1.55269563303452053348287093660212
158,9986.75397442283113796774167811206985,9985.2,1.55397442283113796774167811206985
159,10113.5552451401416542366934798244852,10112.0,1.5552451401416542366934798244852
160,10241.1565078862860975654811988199396,10239.6,1.5565078862860975654811988199396
161,10369.5577627606886905306732129304799,10368.0,1.5577627606886905306732129304799
162,10498.7590098609248624136153249245934,10497.2,1.5590098609248624136153249245934
163,10628.7602492827668127113899463287575,10627.2,1.5602492827668127113899463287575
164,10759.5614811202276804419526780517869,10758.0,1.5614811202276804419526780517869
165,10891.1627054656043678436393394157386,10889.6,1.5627054656043678436393394157386
166,11023.5639224095190689846071542600398,11022.0,1.5639224095190689846071542600398
167,11156.7651320409595505145052016956871,11155.2,1.5651320409595505145052016956871
168,11290.7663344473182272472631144468943,11289.2,1.5663344473182272472631144468943
169,11425.5675297144300776370637300113690,11424.0,1.5675297144300776370637300113690
170,11561.1687179266094388905915208781812,11559.6,1.5687179266094388905915208781812
171,11697.5698991666857219099926528255372,11696.0,1.5698991666857219099926528255372
172,11834.7710735160380839331806304345691,11833.2,1.5710735160380839331806304345691
173,11972.7722410546290942737936950334456,11971.2,1.5722410546290942737936950334456
174,12111.5734018610374290042940075274371,12110.0,1.5734018610374290042940075274371
175,12251.1745560124896285671172952523425,12249.6,1.5745560124896285671172952523425
176,12391.5757035848909480202015990101338,12390.0,1.5757035848909480202015990101338
177,12532.7768446528553331774087578139703,12531.2,1.5768446528553331774087578139703
178,12674.7779792897345517982104184059548,12673.2,1.5779792897345517982104184059548
179,12817.5791075676465062715607942557732,12816.0,1.5791075676465062715607942557732
180,12961.1802295575027587403309046935848,12959.6,1.5802295575027587403309046935848
181,13105.5813453290352913148666887053288,13104.0,1.5813453290352913148666887053288
182,13250.7824549508225290710324032217752,13249.2,1.5824549508225290710324032217752
183,13396.7835584903146488819895539763586,13395.2,1.5835584903146488819895539763586
184,13543.5846560138581983252235914111706,13542.0,1.5846560138581983252235914111706
185,13691.1857475867200464729179346749373,13689.6,1.5857475867200464729179346749373
186,13839.5868332731106875342706318691048,13838.0,1.5868332731106875342706318691048
187,13988.7879131362069211502276693929569,13987.2,1.5879131362069211502276693929569
188,14138.7889872381739247769231049146098,14137.2,1.5889872381739247769231049146098
189,14289.5900556401867418888901221706991,14288.0,1.5900556401867418888901221706991
190,14441.1911184024512016530935415488829,14439.6,1.5911184024512016530935415488829
191,14593.5921755842242892963084860367953,14592.0,1.5921755842242892963084860367953
192,14746.7932272438339835480204286446861,14745.2,1.5932272438339835480204286446861
193,14900.7942734386985794626660928682811,14899.2,1.5942734386985794626660928682811
194,15055.5953142253455099619691019096439,15054.0,1.5953142253455099619691019096439
195,15211.1963496594296840296996388337158,15209.6,1.5963496594296840296996388337158
196,15367.5973797957513552507283306725398,15366.0,1.5973797957513552507283306725398
197,15524.7984046882735350696651371021661,15523.2,1.5984046882735350696651371021661
198,15682.7994243901389649310317838158676,15681.2,1.5994243901389649310317838158676
199,15841.6004389536866601347913001039460,15840.0,1.6004389536866601347913001039460
200,16001.2014484304680393474030472989247,15999.6,1.6014484304680393474030472989247
201,16161.6024528712626507447900139234378,16160.0,1.6024528712626507447900139234378
202,16322.8034523260935081633380971050834,16321.2,1.6034523260935081633380971050834
203,16484.8044468442420479136167876988946,16483.2,1.6044468442420479136167876988946
204,16647.6054364742627178716915915143321,16646.0,1.6054364742627178716915915143321
205,16811.2064212639972088133479221045077,16809.6,1.6064212639972088133479221045077
206,16975.6074012605883410099323169713482,16974.0,1.6074012605883410099323169713482
207,17140.8083765104936119564445435712912,17139.2,1.6083765104936119564445435712912
208,17306.8093470594984194532940053744064,17305.2,1.6093470594984194532940053744064
209,17473.6103129527289657845567702649122,17472.0,1.6103129527289657845567702649122
210,17641.2112742346648544883409738477135,17639.6,1.6112742346648544883409738477135
211,17809.6122309491513870782259659725759,17808.0,1.6122309491513870782259659725759
212,17978.8131831394115699429061924766726,17977.2,1.6131831394115699429061924766726
213,18148.8141308480578358019373639941492,18147.2,1.6141308480578358019373639941492
214,18319.6150741171034946932769289837070,18318.0,1.6150741171034946932769289837070
215,18491.2160129879739136988537545109697,18489.6,1.6160129879739136988537545109697
216,18663.6169475015174393626264135675568,18662.0,1.6169475015174393626264135675568
217,18836.8178776980160667601752482445329,18835.2,1.6178776980160667601752482445329
218,19010.8188036171958641922809837146984,19009.2,1.6188036171958641922809837146984
219,19185.6197252982371567754286418952051,19184.0,1.6197252982371567754286418952051
220,19361.2206427797844814373668576356925,19359.6,1.6206427797844814373668576356925
221,19537.6215560999563112200160127939141,19536.0,1.6215560999563112200160127939141
222,19714.8224652963545660870927443671198,19713.2,1.6224652963545660870927443671198
223,19892.8233704060739037972853176785443,19891.2,1.6233704060739037972853176785443
224,20071.6242714657108059022807155924068,20070.0,1.6242714657108059022807155924068
225,20251.2251685113724614261892706794860,20249.6,1.6251685113724614261892706794860
226,20431.6260615786854517643100651551345,20430.0,1.6260615786854517643100651551345
227,20612.8269507028042454440870336596001,20611.2,1.6269507028042454440870336596001
228,20794.8278359184195045584580382113731,20793.2,1.6278359184195045584580382113731
229,20977.6287172597662100237433893003039,20976.0,1.6287172597662100237433893003039
230,21161.2295947606316103483136151170170,21159.6,1.6295947606316103483136151170170
231,21345.6304684543629957013023376541483,21344.0,1.6304684543629957013023376541483
232,21530.8313383738753076902803860232880,21529.2,1.6313383738753076902803860232880
233,21716.8322045516585798333911966993658,21715.2,1.6322045516585798333911966993658
234,21903.6330670197852248720089239477581,21902.0,1.6330670197852248720089239477581
235,22091.2339258099171620950144122173767,22089.6,1.6339258099171620950144122173767
236,22279.6347809533127943734532656669878,22278.0,1.6347809533127943734532656669878
237,22468.8356324808338385256978628012504,22467.2,1.6356324808338385256978628012504
238,22658.8364804229520107441200175574321,22657.2,1.6364804229520107441200175574321
