Eigenstate,Energy,Kinetic Energy,Potential Energy
1,0.500000000043985478881838939789939270,0.0,0.500000000043985478881838939789939270
2,1.84623093793822894677699768801214134,1.2,0.64623093793822894677699768801214134
3,3.93633761054835084296437393247637411,3.2,0.73633761054835084296437393247637411
4,6.79966527957089332276168285859357505,6.0,0.79966527957089332276168285859357505
5,10.4480465783285715833825478176124452,9.6,0.8480465783285715833825478176124452
6,14.8870660015788535151124579368031881,14.0,0.8870660015788535151124579368031881
7,20.1197208307612248695598292019662811,19.2,0.9197208307612248695598292019662811
8,26.1477838522533312016262353683252795,25.2,0.9477838522533312016262353683252795
9,32.9723835650618652207459716529424909,32.0,0.9723835650618652207459716529424909
10,40.5942802233356663835080349422131529,39.6,0.9942802233356663835080349422131529
11,49.0140093972159614630980651905774480,48.0,1.0140093972159614630980651905774480
12,58.2319621820075224013736213949238770,57.2,1.0319621820075224013736213949238770
13,68.2484327077762723818092764905881198,67.2,1.0484327077762723818092764905881198
14,79.0636476722054555727720874644828123,78.0,1.0636476722054555727720874644828123
15,90.6777854564098269681920761579762487,89.6,1.0777854564098269681920761579762487
16,103.090988929806100632703093708395401,102.0,1.090988929806100632703093708395401
17,116.303374283574456205043568885626414,115.2,1.103374283574456205043568885626414
18,130.315037281664739902462672027025218,129.2,1.115037281664739902462672027025218
19,145.126057783900443267717471725750086,144.0,1.126057783900443267717471725750086
20,160.736503083612640453985447481930437,159.6,1.136503083612640453985447481930437
21,177.146430413721686039673970018560780,176.0,1.146430413721686039673970018560780
22,194.355888857895955648241221929110116,193.2,1.155888857895955648241221929110116
23,212.364920828488370979770220528444703,211.2,1.164920828488370979770220528444703
24,231.173563223936822264712700743600875,230.0,1.173563223936822264712700743600875
25,250.781848345560094888907320498370292,249.6,1.181848345560094888907320498370292
26,271.189804631365457331398021579315685,270.0,1.189804631365457331398021579315685
27,292.397457249011237151875759754386937,291.2,1.197457249011237151875759754386937
28,314.404828579165860953030705356505979,313.2,1.204828579165860953030705356505979
29,337.211938612709806419915656254585534,336.0,1.211938612709806419915656254585534
30,360.818805279577426967934901923512389,359.6,1.218805279577426967934901923512389
31,385.225444722889671030144135439432648,384.0,1.225444722889671030144135439432648
32,410.431871528950818429210336779283017,409.2,1.231871528950818429210336779283017
33,436.438098921372708474809992117788480,435.2,1.238098921372708474809992117788480
34,463.244138925839388160772250353503051,462.0,1.244138925839388160772250353503051
35,490.850002510685913770350436680884003,489.6,1.250002510685913770350436680884003
36,519.255699707431560319298581861729608,518.0,1.255699707431560319298581861729608
37,548.461239714603608717802367899959195,547.2,1.261239714603608717802367899959195
38,578.466630987557461789093903536768551,577.2,1.266630987557461789093903536768551
39,609.271881316500991633004853922634834,608.0,1.271881316500991633004853922634834
40,640.876997894535200039125653868674490,639.6,1.276997894535200039125653868674490
41,673.281987377206523380486780826799361,672.0,1.281987377206523380486780826799361
42,706.486855934811120817149988449503231,705.2,1.286855934811120817149988449503231
43,740.491609298484998294164245211307025,739.2,1.291609298484998294164245211307025
44,775.296252800945726802824541515798280,774.0,1.296252800945726802824541515798280
45,810.900791412613943805165687396075250,809.6,1.300791412613943805165687396075250
46,847.305229773729690439023179872705625,846.0,1.305229773729690439023179872705625
47,884.509572222985160508656975648178260,883.2,1.309572222985160508656975648178260
48,922.513822823117850901682487314590147,921.2,1.313822823117850901682487314590147
49,961.317985383843440529154066110701395,960.0,1.317985383843440529154066110701395
50,1000.92206348245360217199110645638115,999.6,1.32206348245360217199110645638115
51,1041.32606048235848465446303078950032,1040.0,1.32606048235848465446303078950032
52,1082.52997954981525755114887395857470,1081.2,1.32997954981525755114887395857470
53,1124.53382366905166051524032235379868,1123.2,1.33382366905166051524032235379868
54,1167.33759565596593818460028759744787,1166.0,1.33759565596593818460028759744787
55,1210.94129817056106612947668443482112,1209.6,1.34129817056106612947668443482112
56,1255.34493372825109873564550661705395,1254.0,1.34493372825109873564550661705395
57,1300.54850471016027095163792803896577,1299.2,1.34850471016027095163792803896577
58,1346.55201337252068864241503785142879,1345.2,1.35201337252068864241503785142879
59,1393.35546185526168834457830923537119,1392.0,1.35546185526168834457830923537119
60,1440.95885218987292271050159756259631,1439.6,1.35885218987292271050159756259631
61,1489.36218630661366370126568809319195,1488.0,1.36218630661366370126568809319195
62,1538.56546604113251458316287673260631,1537.2,1.36546604113251458316287673260631
63,1588.56869314055447989351834287953637,1587.2,1.36869314055447989351834287953637
64,1639.37186926908603006165293520350154,1638.0,1.37186926908603006165293520350154
65,1690.97499601318326253083914614111995,1689.6,1.37499601318326253083914614111995
66,1743.37807488632341388804781688790291,1742.0,1.37807488632341388804781688790291
67,1796.58110733341571521695729381362531,1795.2,1.38110733341571521695729381362531
68,1850.58409473488382672888810707206981,1849.2,1.38409473488382672888810707206981
69,1905.38703841044877505559951901907157,1904.0,1.38703841044877505559951901907157
70,1960.98993962263838831961993276694761,1959.6,1.38993962263838831961993276694761
71,2017.39279958004662539405236060880461,2016.0,1.39279958004662539405236060880461
72,2074.59561944036389752141584059468742,2073.2,1.39561944036389752141584059468742
73,2132.59840031319742745468052311736029,2131.2,1.39840031319742745468052311736029
74,2191.40114326269887243510103239722283,2190.0,1.40114326269887243510103239722283
75,2251.00384931001480622034984591126067,2249.6,1.40384931001480622034984591126067
76,2311.40651943557420581969694651660126,2310.0,1.40651943557420581969694651660126
77,2372.60915458122578619456399979160564,2371.2,1.40915458122578619456399979160564
78,2434.61175565223686038460096389058938,2433.2,1.41175565223686038460096389058938
79,2497.41432351916435569944077529994314,2496.0,1.41432351916435569944077529994314
80,2561.01685901960767849064316667308862,2559.6,1.41685901960767849064316667308862
81,2625.41936295985227067686216641560482,2624.0,1.41936295985227067686216641560482
82,2690.62183611641193974471813781904021,2689.2,1.42183611641193974471813781904021
83,2756.62427923747735521406551338512790,2755.2,1.42427923747735521406551338512790
84,2823.42669304427748026463126937184396,2822.0,1.42669304427748026463126937184396
85,2891.02907823236014794482540290606746,2889.6,1.42907823236014794482540290606746
86,2959.43143547279747551813528715137941,2958.0,1.43143547279747551813528715137941
87,3028.63376541332135303171599517927713,3027.2,1.43376541332135303171599517927713
88,3098.63606867939381881405279060304078,3097.2,1.43606867939381881405279060304078
89,3169.43834587521675110641055930425294,3168.0,1.43834587521675110641055930425294
90,3241.04059758468496181605558760685848,3239.6,1.44059758468496181605558760685848
91,3313.44282437228645692718447689064289,3312.0,1.44282437228645692718447689064289
92,3386.64502678395333980795567536887083,3385.2,1.44502678395333980795567536887083
93,3460.64720534786657139696360182748342,3459.2,1.44720534786657139696360182748342
94,3535.44936057521755832375713951401568,3534.0,1.44936057521755832375713951401568
95,3611.05149296092931886397529164617169,3609.6,1.45149296092931886397529164617169
96,3687.45360298433977480755626096777721,3686.0,1.45360298433977480755626096777721
97,3764.65569110984953297636682170760558,3763.2,1.45569110984953297636682170760558
98,3842.65775778753634725330378558672252,3841.2,1.45775778753634725330378558672252
99,3921.45980345373829851273063282461668,3920.0,1.45980345373829851273063282461668
100,4001.06182853160758350169596951550748,3999.6,1.46182853160758350169596951550748
101,4081.46383343163667441722619751182775,4080.0,1.46383343163667441722619751182775
102,4162.66581855215848535026364545850341,4161.2,1.46581855215848535026364545850341
103,4244.66778427982207385320841920598164,4243.2,1.46778427982207385320841920598164
104,4327.46973099004529862331212937980892,4326.0,1.46973099004529862331212937980892
105,4411.07165904744576122041434720488461,4409.6,1.47165904744576122041434720488461
106,4495.47356880625126897326926047008835,4494.0,1.47356880625126897326926047008835
107,4580.67546061069097814675446151501108,4579.2,1.47546061069097814675446151501108
108,4666.67733479536829720269938204314092,4665.2,1.47733479536829720269938204314092
109,4753.47919168561656139353689774592705,4752.0,1.47919168561656139353689774592705
110,4841.08103159783842750785635817473832,4839.6,1.48103159783842750785635817473832
111,4929.48285483982987172573798028518361,4928.0,1.48285483982987172573798028518361
112,5018.68466171108962410811498809168262,5017.2,1.48466171108962410811498809168262
113,5108.68645250311481770861578562742992,5107.2,1.48645250311481770861578562742992
114,5199.48822749968358153858227730403091,5198.0,1.48822749968358153858227730403091
115,5291.08998697712526616745763829673678,5289.6,1.48998697712526616745763829673678
116,5383.49173120457894240908894703957571,5382.0,1.49173120457894240908894703957571
117,5476.69346044424078183148308560508004,5475.2,1.49346044424078183148308560508004
118,5570.69517495160088679644883758343853,5569.2,1.49517495160088679644883758343853
119,5665.49687497567010402184190021772945,5664.0,1.49687497567010402184190021772945
120,5761.09856075919732981689456416651016,5759.6,1.49856075919732981689456416651016
121,5857.50023253887777687386744412345769,5856.0,1.50023253887777687386744412345769
122,5954.70189054555265358612805744249352,5953.2,1.50189054555265358612805744249352
123,6052.70353500440067466982904219866816,6051.2,1.50353500440067466982904219866816
124,6151.50516613512180418654999480927867,6150.0,1.50516613512180418654999480927867
125,6251.10678415211360249800410034067687,6249.6,1.50678415211360249800410034067687
126,6351.50838926464053348661298668626211,6350.0,1.50838926464053348661298668626211
127,6452.70998167699656779786687609696909,6451.2,1.50998167699656779786687609696909
128,6554.71156158866139527319739857356071,6553.2,1.51156158866139527319739857356071
129,6657.51312919445054766885211152837173,6656.0,1.51312919445054766885211152837173
130,6761.11468468465971437439268903310995,6759.6,1.51468468465971437439268903310995
131,6865.51622824520351844032065394178092,6864.0,1.51622824520351844032065394178092
132,6970.71776005774900524713388427522141,6969.2,1.51776005774900524713388427522141
133,7076.71928029984408436653273014877633,7075.2,1.51928029984408436653273014877633
134,7183.52078914504115388953642586672961,7182.0,1.52078914504115388953642586672961
135,7291.12228676301611838792755675373328,7289.6,1.52228676301611838792755675373328
136,7399.52377331968300798791196499839755,7398.0,1.52377331968300798791196499839755
137,7508.72524897730439272693833081260511,7507.2,1.52524897730439272693833081260511
138,7618.72671389459777275263058727319106,7617.2,1.52671389459777275263058727319106
139,7729.52816822683812281688120474721151,7728.0,1.52816822683812281688120474721151
140,7841.12961212595675407218479637202999,7839.6,1.52961212595675407218479637202999
141,7953.53104574063665161980163643572014,7952.0,1.53104574063665161980163643572014
142,8066.73246921640443818607390260312778,8065.2,1.53246921640443818607390260312778
143,8180.73388269571910565304768058202044,8179.2,1.53388269571910565304768058202044
144,8295.53528631805764898991747573312215,8294.0,1.53528631805764898991747573312215
145,8411.13668021999773294405015862937871,8409.6,1.53668021999773294405015862937871
146,8527.53806453529751398159508390415309,8526.0,1.53806453529751398159508390415309
147,8644.73943939497273176472062017810893,8643.2,1.53943939497273176472062017810893
148,8762.74080492737118549448435391862738,8761.2,1.54080492737118549448435391862738
149,8881.54216125824469692026983499876499,8880.0,1.54216125824469692026983499876499
150,9001.14350851081866365664544665148817,8999.6,1.54350851081866365664544665148817
151,9121.54484680585929872187768895531513,9120.0,1.54484680585929872187768895531513
152,9242.74617626173864659724595178744585,9241.2,1.54617626173864659724595178744585
153,9364.74749699449746475682970519398510,9363.2,1.54749699449746475682970519398510
154,9487.54880911790605456698667390380741,9486.0,1.54880911790605456698667390380741
155,9611.15011274352311979149125332235159,9609.6,1.55011274352311979149125332235159
156,9735.55140798075273056867212239412010,9734.0,1.55140798075273056867212239412010
157,9860.75269493689946390712785964997992,9859.2,1.55269493689946390712785964997992
158,9986.75397371722179251809733045747073,9985.2,1.55397371722179251809733045747073
159,10113.5552444249837856572933169119211,10112.0,1.5552444249837856572933169119211
160,10241.1565071615051883137123702661185,10239.6,1.5565071615051883137123702661185
161,10369.5577620262099372415150356468982,10368.0,1.5577620262099372415150356468982
162,10498.7590091166731732960511264316618,10497.2,1.5590091166731732960511264316618
163,10628.7602485286668049273025816478442,10627.2,1.5602485286668049273025816478442
164,10759.5614803562036774673122545982735,10758.0,1.5614803562036774673122545982735
165,10891.1627046915803968117898204113856,10889.6,1.5627046915803968117898204113856
166,11023.5639216254188580114565461635318,11022.0,1.5639216254188580114565461635318
167,11156.7651312467065260054221139434818,11155.2,1.5651312467065260054221139434818
168,11290.7663336428355111854803631169939,11289.2,1.5663336428355111854803631169939
169,11425.5675288996404848533878921262127,11424.0,1.5675288996404848533878921262127
170,11561.1687171014354743142150930909314,11559.6,1.5687171014354743142150930909314
171,11697.5698983310495778002034798339621,11696.0,1.5698983310495778002034798339621
172,11834.7710726698616370917612465375300,11833.2,1.5710726698616370917612465375300
173,11972.7722401978339032379010223628053,11971.2,1.5722401978339032379010223628053
174,12111.5734009935447312196077623715726,12110.0,1.5734009935447312196077623715726
175,12251.1745551342203375410432035008920,12249.6,1.5745551342203375410432035008920
176,12391.5757026957656504549135718850031,12390.0,1.5757026957656504549135718850031
177,12532.7768437527942860825114786400547,12531.2,1.5768437527942860825114786400547
178,12674.7779783786576795828021241239381,12673.2,1.5779783786576795828021241239381
179,12817.5791066454733978154732334529820,12816.0,1.5791066454733978154732334529820
180,12961.1802286241526644443214512514658,12959.6,1.5802286241526644443214512514658
181,13105.5813443844271201295351136231047,13104.0,1.5813443844271201295351136231047
182,13250.7824539948748455042325004156775,13249.2,1.5824539948748455042325004156775
183,13396.7835575229456699845033407271984,13395.2,1.5835575229456699845033407271984
184,13543.5846550349857906544633921010945,13542.0,1.5846550349857906544633921010945
185,13691.1857465962617230344191654275253,13689.6,1.5857465962617230344191654275253
186,13839.5868322709836047007356976155107,13838.0,1.5868322709836047007356976155107
187,13988.7879121223278755578786467383630,13987.2,1.5879121223278755578786467383630
188,14138.7889862124593501989185549208540,14137.2,1.5889862124593501989185549208540
189,14289.5900546025527060855585427396154,14288.0,1.5900546025527060855585427396154
190,14441.1911173528134031987335204836650,14439.6,1.5911173528134031987335204836650
191,14593.5921745224980543823028070133449,14592.0,1.5921745224980543823028070133449
192,14746.7932261699342627620086916030645,14745.2,1.5932261699342627620086916030645
193,14900.7942723525399445435177950210236,14899.2,1.5942723525399445435177950210236
194,15055.5953131268421505302961247502173,15054.0,1.5953131268421505302961247502173
195,15211.1963485484954042936444449431634,15209.6,1.5963485484954042936444449431634
196,15367.5973786722995706867612378973077,15366.0,1.5973786722995706867612378973077
197,15524.7984035522172690781211767267216,15523.2,1.5984035522172690781211767267216
198,15682.7994232413908454661146447488387,15681.2,1.5994232413908454661146447488387
199,15841.6004377921589163087689942470554,15840.0,1.6004377921589163087689942470554
200,16001.2014472560724980087167997027631,15999.6,1.6014472560724980087167997027631
201,16161.6024516839107330297950537375522,16160.0,1.6024516839107330297950537375522
202,16322.8034511256962260213915297237385,16321.2,1.6034511256962260213915297237385
203,16484.8044456307100006052250250629026,16483.2,1.6044456307100006052250250629026
204,16647.6054352475060884394263304948641,16646.0,1.6054352475060884394263304948641
205,16811.2064200239257605252366828520809,16809.6,1.6064200239257605252366828520809
206,16975.6074000071114137750260786981752,16974.0,1.6074000071114137750260786981752
207,17140.8083752435201187122617827505722,17139.2,1.6083752435201187122617827505722
208,17306.8093457789368425248372244485331,17305.2,1.6093457789368425248372244485331
209,17473.6103116584873532145939789200721,17472.0,1.6103116584873532145939789200721
210,17641.2112729266508163386413184179381,17639.6,1.6112729266508163386413184179381
211,17809.6122296272720917014350928697326,17808.0,1.6122296272720917014350928697326
212,17978.8131818035737402247435956936530,17977.2,1.6131818035737402247435956936530
213,18148.8141294981677453733940484595414,18147.2,1.6141294981677453733940484595414
214,18319.6150727530669641124884871371800,18318.0,1.6150727530669641124884871371800
215,18491.2160116096963066023199627407817,18489.6,1.6160116096963066023199627407817
216,18663.6169461089036585854447966801505,18662.0,1.6169461089036585854447966801505
217,18836.8178762909705504249525706540924,18835.2,1.6178762909705504249525706540924
218,19010.8188021956225817663822551489239,19009.2,1.6188021956225817663822551489239
219,19185.6197238620396050962197669907640,19184.0,1.6197238620396050962197669907640
220,19361.2206413288656807051029839734096,19359.6,1.6206413288656807051029839734096
221,19537.6215546342188009580236454424265,19536.0,1.6215546342188009580236454424265
222,19714.8224638157004010688897405303412,19713.2,1.6224638157004010688897405303412
223,19892.8233689104046499402785206423904,19891.2,1.6233689104046499402785206423904
224,20071.6242699549275361276772448202982,20070.0,1.6242699549275361276772448202982
225,20251.2251669853757514847527080367422,20249.6,1.6251669853757514847527080367422
226,20431.6260600373753760275891629030234,20430.0,1.6260600373753760275891629030234
227,20612.8269491460803726607396784917497,20611.2,1.6269491460803726607396784917497
228,20794.8278343461808935752891893769234,20793.2,1.6278343461808935752891893769234
229,20977.6287156719114054710710847464631,20976.0,1.6287156719114054710710847464631
230,21161.2295931570586382892726842220595,21159.6,1.6295931570586382892726842220595
231,21345.6304668349693592446908917414229,21344.0,1.6304668349693592446908917414229
232,21530.8313367385579825665494671819722,21529.2,1.6313367385579825665494671819722
233,21716.8322029003140099333733430370301,21715.2,1.6322029003140099333733430370301
234,21903.6330653523093177479765358807357,21902.0,1.6330653523093177479765358807357
235,22091.2339241262052844236543182342657,22089.6,1.6339241262052844236543182342657
236,22279.6347792532597673803384376818862,22278.0,1.6347792532597673803384376818862
237,22468.8356307643339333708326850743963,22467.2,1.6356307643339333708326850743963
238,22658.8364786898989438681303670483416,22657.2,1.6364786898989438681303670483416
