Eigenstate,Energy,Kinetic Energy,Potential Energy
1,0.500000000019218707096429031144933555,0.0,0.500000000019218707096429031144933555
2,1.84623093777656426408570834773258860,1.2,0.64623093777656426408570834773258860
3,3.93633761007347341083536849812685520,3.2,0.73633761007347341083536849812685520
4,6.79966527858177650960755164865292917,6.0,0.79966527858177650960755164865292917
5,10.4480465766152158834454418594125173,9.6,0.8480465766152158834454418594125173
6,14.8870659989275823012471531118450970,14.0,0.8870659989275823012471531118450970
7,20.1197208269566356717427674136062156,19.2,0.9197208269566356717427674136062156
8,26.1477838470791095086541448811743758,25.2,0.9477838470791095086541448811743758
9,32.9723835583011629336169398450626531,32.0,0.9723835583011629336169398450626531
10,40.5942802147712939292999964890847844,39.6,0.9942802147712939292999964890847844
11,49.0140093866304921886168423188721403,48.0,1.0140093866304921886168423188721403
12,58.2319621691833522657990812614124307,57.2,1.0319621691833522657990812614124307
13,68.2484326924956553138421436872408239,67.2,1.0484326924956553138421436872408239
14,79.0636476542505248225515744590920613,78.0,1.0636476542505248225515744590920613
15,90.6777854355626080100052128280736541,89.6,1.0777854355626080100052128280736541
16,103.090988905848518760188090207629759,102.0,1.090988905848518760188090207629759
17,116.303374256288340673786383381493259,115.2,1.103374256288340673786383381493259
18,130.315037250831825757035614917711852,129.2,1.115037250831825757035614917711852
19,145.126057749302371573467739625220242,144.0,1.126057749302371573467739625220242
20,160.736503045030957403306717747352573,159.6,1.136503045030957403306717747352573
21,177.146430370937841247072161836320399,176.0,1.146430370937841247072161836320399
22,194.355888810691299849393291062725956,193.2,1.155888810691299849393291062725956
23,212.364920776644153284980699713360688,211.2,1.164920776644153284980699713360688
24,231.173563167234187073854572978923088,230.0,1.173563167234187073854572978923088
25,250.781848283780078545380323856443749,249.6,1.181848283780078545380323856443749
26,271.189804564288984572099811184178302,270.0,1.189804564288984572099811184178302
27,292.397457176419117395666898940395529,291.2,1.197457176419117395666898940395529
28,314.404828500838784459757472357067926,313.2,1.204828500838784459757472357067926
29,337.211938528428340344471764367689219,336.0,1.211938528428340344471764367689219
30,360.818805189122011328250825252023266,359.6,1.218805189122011328250825252023266
31,385.225444626040614603818191173654479,384.0,1.225444626040614603818191173654479
32,410.431871425488294590344463328788502,409.2,1.231871425488294590344463328788502
33,436.438098811076750980209484901323472,435.2,1.238098811076750980209484901323472
34,463.244138808489886892817435474566481,462.0,1.244138808489886892817435474566481
35,490.850002386062610442409378240915382,489.6,1.250002386062610442409378240915382
36,519.255699575314044148422124559017225,518.0,1.255699575314044148422124559017225
37,548.461239574771312068551687071340935,547.2,1.261239574771312068551687071340935
38,578.466630839789655791641412529509064,577.2,1.266630839789655791641412529509064
39,609.271881160576781778080691082943888,608.0,1.271881160576781778080691082943888
40,640.876997730233521751923033180208662,639.6,1.276997730233521751923033180208662
41,673.281987204306137575266861497934743,672.0,1.281987204306137575266861497934743
42,706.486855753090609433982451185169742,705.2,1.286855753090609433982451185169742
43,740.491609107722759818989610803617300,739.2,1.291609107722759818989610803617300
44,775.296252600919971771817696059794167,774.0,1.296252600919971771817696059794167
45,810.900791203102690294208526095826042,809.6,1.300791203102690294208526095826042
46,847.305229554510759538951151299152570,846.0,1.305229554510759538951151299152570
47,884.509571993836171786824369437541945,883.2,1.309571993836171786824369437541945
48,922.513822583816217850290268128564488,921.2,1.313822583816217850290268128564488
49,961.317985134166366000698659763591445,960.0,1.317985134166366000698659763591445
50,1000.92206322217807380212001334787357,999.6,1.32206322217807380212001334787357
51,1041.32606021126127027246127482068719,1040.0,1.32606021126127027246127482068719
52,1082.52997926767290057822738021409342,1081.2,1.32997926767290057822738021409342
53,1124.53382337564047535075185848088178,1123.2,1.33382337564047535075185848088178
54,1167.33759535106200558026936298992734,1166.0,1.33759535106200558026936298992734
55,1210.94129785394022855169588170755131,1209.6,1.34129785394022855169588170755131
56,1255.34493339968895571586124923357526,1254.0,1.34493339968895571586124923357526
57,1300.54850436943217442482302982562578,1299.2,1.34850436943217442482302982562578
58,1346.55201301940173827360284951900190,1345.2,1.35201301940173827360284951900190
59,1393.35546148952672684341366874747776,1392.0,1.35546148952672684341366874747776
60,1440.95885181129653113374638569767797,1439.6,1.35885181129653113374638569767797
61,1489.36218591497015674318149364220363,1488.0,1.36218591497015674318149364220363
62,1538.56546563619593585367966394361941,1537.2,1.36546563619593585367966394361941
63,1588.56869272209859718408597104148465,1587.2,1.36869272209859718408597104148465
64,1639.37186883688433059866162738745684,1638.0,1.37186883688433059866162738745684
65,1690.97499556700894821648529461678010,1689.6,1.37499556700894821648529461678010
66,1743.37807442594939652851290547044786,1742.0,1.37807442594939652851290547044786
67,1796.58110685861461173775988638223371,1795.2,1.38110685861461173775988638223371
68,1850.58409424542795437726181666583893,1849.2,1.38409424542795437726181666583893
69,1905.38703790611014658974334843087619,1904.0,1.38703790611014658974334843087619
70,1960.98993910318870718466174634110328,1959.6,1.38993910318870718466174634110328
71,2017.39279904525728088456064118609028,2016.0,1.39279904525728088456064118609028
72,2074.59561889000595993029023447280773,2073.2,1.39561889000595993029023447280773
73,2132.59839974704164320824695812316328,2131.2,1.39839974704164320824695812316328
74,2191.40114268051565921423314778370727,2190.0,1.40114268051565921423314778370727
75,2251.00384871157424806743449754171695,2249.6,1.40384871157424806743449754171695
76,2311.40651882064604823125803978622880,2310.0,1.40651882064604823125803978622880
77,2372.60915394957943119935544561084327,2371.2,1.40915394957943119935544561084327
78,2434.61175500364136160697639926174997,2433.2,1.41175500364136160697639926174997
79,2497.41432285338841340780468341340336,2496.0,1.41432285338841340780468341340336
80,2561.01685833641963463078527658506262,2559.6,1.41685833641963463078527658506262
81,2625.41936225902010388997422625093887,2624.0,1.41936225902010388997422625093887
82,2690.62183539770326036988963450552075,2689.2,1.42183539770326036988963450552075
83,2756.62427850065940027505249118090757,2755.2,1.42427850065940027505249118090757
84,2823.42669228911710844069000693500763,2822.0,1.42669228911710844069000693500763
85,2891.02907745862383452540044616124474,2889.6,1.42907745862383452540044616124474
86,2959.43143468025130734118920559652462,2958.0,1.43143468025130734118920559652462
87,3028.63376460173102340548600675956514,3027.2,1.43376460173102340548600675956514
88,3098.63606784852462242201741756339957,3097.2,1.43606784852462242201741756339957
89,3169.43834502483357889524744316529135,3168.0,1.43834502483357889524744316529135
90,3241.04059671455229586636964429219678,3239.6,1.44059671455229586636964429219678
91,3313.44282348216836530678358614044778,3312.0,1.44282348216836530678358614044778
92,3386.64502587361347140744928266237910,3385.2,1.44502587361347140744928266237910
93,3460.64720441706815074745769921943891,3459.2,1.44720441706815074745769921943891
94,3535.44935962372338039641726720507693,3534.0,1.44935962372338039641726720507693
95,3611.05149198850174385122735678049255,3609.6,1.45149198850174385122735678049255
96,3687.45360199074072288569325114852222,3686.0,1.45360199074072288569325114852222
97,3764.65569009484047904932754142076284,3763.2,1.45569009484047904932754142076284
98,3842.65775675087831567738817773605820,3841.2,1.45775675087831567738817773605820
99,3921.45980239519185780201426680084500,3920.0,1.45980239519185780201426680084500
100,4001.06182745093284101390466342233044,3999.6,1.46182745093284101390466342233044
101,4081.46383232859327101982990657154721,4080.0,1.46383232859327101982990657154721
102,4162.66581742650559006654698126538962,4161.2,1.46581742650559006654698126538962
103,4244.66778313131837848807350604804024,4243.2,1.46778313131837848807350604804024
104,4327.46972981844901236856754734176115,4326.0,1.46972981844901236856754734176115
105,4411.07165785251460523930232959703975,4409.6,1.47165785251460523930232959703975
106,4495.47356758774247096398144149156933,4494.0,1.47356758774247096398144149156933
107,4580.67545936836126688468469717412668,4579.2,1.47545936836126688468469717412668
108,4666.67733352897389706118042739960456,4665.2,1.47733352897389706118042739960456
109,4753.47919039491318684280582685597638,4752.0,1.47919039491318684280582685597638
110,4841.08103028258127759199191810259729,4839.6,1.48103028258127759199191810259729
111,4929.48285349977362451731116362068979,4928.0,1.48285349977362451731116362068979
112,5018.68466034598843114029229008364769,5017.2,1.48466034598843114029229008364769
113,5108.68645111272229838445281288544965,5107.2,1.48645111272229838445281288544965
114,5199.48822608375281751724341655746625,5198.0,1.48822608375281751724341655746625
115,5291.08998553540879572709575536364007,5289.6,1.48998553540879572709575536364007
116,5383.49172973682875478611703552885636,5382.0,1.49172973682875478611703552885636
117,5476.69345895020831153596796523505333,5475.2,1.49345895020831153596796523505333
118,5570.69517343103700790335510093830641,5569.2,1.49517343103700790335510093830641
119,5665.49687342832512443785230338391056,5664.0,1.49687342832512443785230338391056
120,5761.09855918482098552253105143080296,5759.6,1.49855918482098552253105143080296
121,5857.50023093721922614063512554381884,5856.0,1.50023093721922614063512554381884
122,5954.70188891636047116840238988640136,5953.2,1.50188891636047116840238988640136
123,6052.70353334742284597120439728487954,6051.2,1.50353334742284597120439728487954
124,6151.50516445010571940036588985115843,6150.0,1.50516445010571940036588985115843
125,6251.10678243880605072176315862180363,6249.6,1.50678243880605072176315862180363
126,6351.50838752278769681000266145267842,6350.0,1.50838752278769681000266145267842
127,6452.70997990634401536409489905945156,6451.2,1.50997990634401536409489905945156
128,6554.71155978895407731334868491799206,6553.2,1.51155978895407731334868491799206
129,6657.51312736543278950897279057259267,6656.0,1.51312736543278950897279057259267
130,6761.11468282607521041500472909318496,6759.6,1.51468282607521041500472909318496
131,6865.51622635679532610806834763420148,6864.0,1.51622635679532610806834763420148
132,6970.71775813925953891826107457775838,6969.2,1.51775813925953891826107457775838
133,7076.71927835101510926188776994922657,7075.2,1.51927835101510926188776994922657
134,7183.52078716561377994079920650475339,7182.0,1.52078716561377994079920650475339
135,7291.12228475273079407475075980512634,7289.6,1.52228475273079407475075980512634
136,7399.52377127827951414566652941017989,7398.0,1.52377127827951414566652941017989
137,7508.72524690452183632475048888738516,7507.2,1.52524690452183632475048888738516
138,7618.72671179017458064139569252998959,7617.2,1.52671179017458064139569252998959
139,7729.52816609051203544693695003407214,7728.0,1.52816609051203544693695003407214
140,7841.12960995746481918032409971098968,7839.6,1.52960995746481918032409971098968
141,7953.53104353971521788530306444036395,7952.0,1.53104353971521788530306444036395
142,8066.73246698278914885542477168042449,8065.2,1.53246698278914885542477168042449
143,8180.73388042914489213303279643333923,8179.2,1.53388042914489213303279643333923
144,8295.53528401825872440874347405898971,8294.0,1.53528401825872440874347405898971
145,8411.13667788670758568017329212098838,8409.6,1.53667788670758568017329212098838
146,8527.53806216824890115991732156998393,8526.0,1.53806216824890115991732156998393
147,8644.73943699389767271981648691781448,8643.2,1.53943699389767271981648691781448
148,8762.74080249200095520051818956645821,8761.2,1.54080249200095520051818956645821
149,8881.54215878830981938726037792766960,8880.0,1.54215878830981938726037792766960
150,9001.14350600604890529273214853438070,8999.6,1.54350600604890529273214853438070
151,9121.54484426598366166124001056525805,9120.0,1.54484426598366166124001056525805
152,9242.74617368648536199332443968196985,9241.2,1.54617368648536199332443968196985
153,9364.74749438359398604049459770717410,9363.2,1.54749438359398604049459770717410
154,9487.54880647107905066929710568165046,9486.0,1.54880647107905066929710568165046
155,9611.15011006049846833068500030933091,9609.6,1.55011006049846833068500030933091
156,9735.55140526125551100102295918919047,9734.0,1.55140526125551100102295918919047
157,9860.75269218065395064130478410446788,9859.2,1.55269218065395064130478410446788
158,9986.75397092395144799265671425168758,9985.2,1.55397092395144799265671425168758
159,10113.5552415944112533809320813841215,10112.0,1.5552415944112533809320813841215
160,10241.1565042933522858679071941142801,10239.6,1.5565042933522858679071941142801
161,10369.5577591201976492451694605572868,10368.0,1.5577591201976492451694605572868
162,10498.7590061725216443317693015428065,10497.2,1.5590061725216443317693015428065
163,10628.7602455460953324289052381221866,10627.2,1.5602455460953324289052381221866
164,10759.5614773349307045682072551504587,10758.0,1.5614773349307045682072551504587
165,10891.1627016313235051538061581159210,10889.6,1.5627016313235051538061581159210
166,11023.5639185258947605137477604984024,11022.0,1.5639185258947605137477604984024
167,11156.7651281076310595930414273695616,11155.2,1.5651281076310595930414273695616
168,11290.7663304639236294772265474086586,11289.2,1.5663304639236294772265474086586
169,11425.5675256806062508085176016656372,11424.0,1.5675256806062508085176016656372
170,11561.1687138419920528376135857483824,11559.6,1.5687138419920528376135857483824
171,11697.5698950309092283056025957824416,11696.0,1.5698950309092283056025957824416
172,11834.7710693287357060225895440475918,11833.2,1.5710693287357060225895440475918
173,11972.7722368154328165453477687457929,11971.2,1.5722368154328165453477687457929
174,12111.5733975695779867974785130465645,12110.0,1.5733975695779867974785130465645
175,12251.1745516683964976169812829361972,12249.6,1.5745516683964976169812829361972
176,12391.5756991877923339375578274434062,12390.0,1.5756991877923339375578274434062
177,12532.7768402023781608641571957497607,12531.2,1.5768402023781608641571957497607
178,12674.7779747855044547971279303782526,12673.2,1.5779747855044547971279303782526
179,12817.5791030092878160498931235009525,12816.0,1.5791030092878160498931235009525
180,12961.1802249446384939065171213117201,12959.6,1.5802249446384939065171213117201
181,13105.5813406612871467677198358692162,13104.0,1.5813406612871467677198358692162
182,13250.7824502278108650806938490181558,13249.2,1.5824502278108650806938490181558
183,13396.7835537116584801019679918665430,13395.2,1.5835537116584801019679918665430
184,13543.5846511791751827348231254140586,13542.0,1.5846511791751827348231254140586
185,13691.1857426956264742493530787252366,13689.6,1.5857426956264742493530787252366
186,13839.5868283252214698537595701431814,13838.0,1.5868283252214698537595701431814
187,13988.7879081311355789173479986205036,13987.2,1.5879081311355789173479986205036
188,14138.7889821755325772815077978613600,14137.2,1.5889821755325772815077978613600
189,14289.5900505195860953897341738655099,14288.0,1.5900505195860953897341738655099
190,14441.1911132235005378877350375279182,14439.6,1.5911132235005378877350375279182
191,14593.5921703465314539161405795575668,14592.0,1.5921703465314539161405795575668
192,14746.7932219470053744779834617237392,14745.2,1.5932219470053744779834617237392
193,14900.7942680823391351847619771921664,14899.2,1.5942680823391351847619771921664
194,15055.5953088090586977218325625467602,15054.0,1.5953088090586977218325625467602
195,15211.1963441828174879654535615609597,15209.6,1.5963441828174879654535615609597
196,15367.5973742584142644433428176806439,15366.0,1.5973742584142644433428176806439
197,15524.7983990898105315140322050189892,15523.2,1.5983990898105315140322050189892
198,15682.7994187301475114269600753135244,15681.2,1.5994187301475114269600753135244
199,15841.6004332317626880971169931719295,15840.0,1.6004332317626880971169931719295
200,16001.2014426462059365344055885352988,15999.6,1.6014426462059365344055885352988
201,16161.6024470242552489040931468063014,16160.0,1.6024470242552489040931468063014
202,16322.8034464159320705944681435235431,16321.2,1.6034464159320705944681435235431
203,16484.8044408705162569463825550087888,16483.2,1.6044408705162569463825550087888
204,16647.6054304365606622595413197588718,16646.0,1.6054304365606622595413197588718
205,16811.2064151619053710408507998945413,16809.6,1.6064151619053710408507998945413
206,16975.6073950936915845135229966434848,16974.0,1.6073950936915845135229966434848
207,17140.8083702783751682575608223625083,17139.2,1.6083702783751682575608223625083
208,17306.8093407617398752030289062410102,17305.2,1.6093407617398752030289062410102
209,17473.6103065889102497189373590081531,17472.0,1.6103065889102497189373590081531
210,17641.2112678043642242933373026831506,17639.6,1.6112678043642242933373026831506
211,17809.6122244519454161635844608074138,17808.0,1.6122244519454161635844608074138
212,17978.8131765748751341238926699502972,17977.2,1.6131765748751341238926699502972
213,18148.8141242157640998880650769360347,18147.2,1.6141242157640998880650769360347
214,18319.6150674166238989830863883895186,18318.0,1.6150674166238989830863883895186
215,18491.2160062188781603798006192990452,18489.6,1.6160062188781603798006192990452
216,18663.6169406633734788151246984484096,18662.0,1.6169406633734788151246984484096
217,18836.8178707903900837648331034212820,18835.2,1.6178707903900837648331034212820
218,19010.8187966396522640393562291384878,19009.2,1.6187966396522640393562291384878
219,19185.6197182503385512755211790028063,19184.0,1.6197182503385512755211790028063
220,19361.2206356610916748323553008993616,19359.6,1.6206356610916748323553008993616
221,19537.6215489100282859932348329088144,19536.0,1.6215489100282859932348329088144
222,19714.8224580347484686717365532098794,19713.2,1.6224580347484686717365532098794
223,19892.8233630723450301820158105819361,19891.2,1.6233630723450301820158105819361
224,20071.6242640594125871330013637379003,20070.0,1.6242640594125871330013637379003
225,20251.2251610320564490029416120516043,20249.6,1.6251610320564490029416120516043
226,20431.6260540259013029322350004633017,20430.0,1.6260540259013029322350004633017
227,20612.8269430760997083773830146693111,20611.2,1.6269430760997083773830146693111
228,20794.8278282173404034362568482379664,20793.2,1.6278282173404034362568482379664
229,20977.6287094838564299968128942146512,20976.0,1.6287094838564299968128942146512
230,21161.2295869094330823954852028765458,21159.6,1.6295869094330823954852028765458
231,21345.6304605274156813745090548007523,21344.0,1.6304605274156813745090548007523
232,21530.8313303707171837470800521074682,21529.2,1.6313303707171837470800521074682
233,21716.8321964718256227558366087935659,21715.2,1.6321964718256227558366087935659
234,21903.6330588628113952707150601199703,21902.0,1.6330588628113952707150601199703
235,22091.2339175753343889972605487274552,22089.6,1.6339175753343889972605487274552
236,22279.6347726406509593941449786551899,22278.0,1.6347726406509593941449786551899
237,22468.8356240896207599200016899231170,22467.2,1.6356240896207599200016899231170
238,22658.8364719527134273405702828896265,22657.2,1.6364719527134273405702828896265
