Eigenstate,Energy,Kinetic Energy,Potential Energy
1,0.500000000364993344098350340471859989,0.0,0.500000000364993344098350340471859989
2,1.84623094003363094083592137459744168,1.2,0.64623094003363094083592137459744168
3,3.93633761670356167468057437693514018,3.2,0.73633761670356167468057437693514018
4,6.79966529239188434033818790144136186,6.0,0.79966529239188434033818790144136186
5,10.4480466005380118392501322050283806,9.6,0.8480466005380118392501322050283806
6,14.8870660359476074685899511725343845,14.0,0.8870660359476074685899511725343845
7,20.1197208800831987857735563813449328,19.2,0.9197208800831987857735563813449328
8,26.1477839193350628601633290007646965,25.2,0.9477839193350628601633290007646965
9,32.9723836527177564955451602282962241,32.0,0.9723836527177564955451602282962241
10,40.5942803343856312448161871146248323,39.6,0.9942803343856312448161871146248323
11,49.0140095344842111896308478820107121,48.0,1.0140095344842111896308478820107121
12,58.2319623483219304392473054786733821,57.2,1.0319623483219304392473054786733821
13,68.2484329059680549095126994479015749,67.2,1.0484329059680549095126994479015749
14,79.0636479051090339021819616190213341,78.0,1.0636479051090339021819616190213341
15,90.6777857268627997930210419354267558,89.6,1.0777857268627997930210419354267558
16,103.090989240649285429195728391516457,102.0,1.090989240649285429195728391516457
17,116.303374637651975768942207681441488,115.2,1.103374637651975768942207681441488
18,130.315037681824139310990076145409051,129.2,1.115037681824139310990076145409051
19,145.126058232992827957199267013175228,144.0,1.126058232992827957199267013175228
20,160.736503584492829351826138142275955,159.6,1.136503584492829351826138142275955
21,177.146430969248375704150056834476257,176.0,1.146430969248375704150056834476257
22,194.355889470931892654451474859834346,193.2,1.155889470931892654451474859834346
23,212.364921501900530630136111354535299,211.2,1.164921501900530630136111354535299
24,231.173563960596592264107797095908604,230.0,1.173563960596592264107797095908604
25,250.781849148343463007767214548404322,249.6,1.181849148343463007767214548404322
26,271.189805503153202346576391933027080,270.0,1.189805503153202346576391933027080
27,292.397458192689122543358018197250716,291.2,1.197458192689122543358018197250716
28,314.404829597624830969856378748476887,313.2,1.204829597624830969856378748476887
29,337.211939708846184227170790969243265,336.0,1.211939708846184227170790969243265
30,360.818806456293114659391344894267693,359.6,1.218806456293114659391344894267693
31,385.225445983092351345467044722120559,384.0,1.225445983092351345467044722120559
32,410.431872875554158055742472787149655,409.2,1.231872875554158055742472787149655
33,436.438100357296562845346550031688594,435.2,1.238100357296562845346550031688594
34,463.244140454010007682993451476029236,462.0,1.244140454010007682993451476029236
35,490.850004134036151442495175245926545,489.6,1.250004134036151442495175245926545
36,519.255701428901080701554926401775118,518.0,1.255701428901080701554926401775118
37,548.461241537139098240724369683925843,547.2,1.261241537139098240724369683925843
38,578.466632914112840389840351372411659,577.2,1.266632914112840389840351372411659
39,609.271883350037625717867861729168427,608.0,1.271883350037625717867861729168427
40,640.877000038022116777076457051768705,639.6,1.277000038022116777076457051768705
41,673.281989633620626337617079569370129,672.0,1.281989633620626337617079569370129
42,706.486858307137406946164597031583195,705.2,1.286858307137406946164597031583195
43,740.491611789716776296664137964946248,739.2,1.291611789716776296664137964946248
44,775.296255414084836885148582360515114,774.0,1.296255414084836885148582360515114
45,810.900794150670978851144933007390145,809.6,1.300794150670978851144933007390145
46,847.305232639724218625229917448454022,846.0,1.305232639724218625229917448454022
47,884.509575219945949389669033085426053,883.2,1.309575219945949389669033085426053
48,922.513825954083092994588192784126704,921.2,1.313825954083092994588192784126704
49,961.317988651860980428036634114895152,960.0,1.317988651860980428036634114895152
50,1000.92206689058116522448942971615177,999.6,1.32206689058116522448942971615177
51,1041.32606403366390723373789612805866,1040.0,1.32606403366390723373789612805866
52,1082.52998324737671895771119852969097,1081.2,1.32998324737671895771119852969097
53,1124.53382751595791654414178828470268,1123.2,1.33382751595791654414178828470268
54,1167.33759965531655639446207834575997,1166.0,1.33759965531655639446207834575997
55,1210.94130232546666285075094097961200,1209.6,1.34130232546666285075094097961200
56,1255.34493804183357785637912083464649,1254.0,1.34493804183357785637912083464649
57,1300.54850918555306451984566410802029,1299.2,1.34850918555306451984566410802029
58,1346.55201801286899932498125686305659,1345.2,1.35201801286899932498125686305659
59,1393.35546666372273378339262675264201,1392.0,1.35546666372273378339262675264201
60,1440.95885716961618181730664799461373,1439.6,1.35885716961618181730664799461373
61,1489.36219146082112493345457645739219,1488.0,1.36219146082112493345457645739219
62,1538.56547137299892624351609522677854,1537.2,1.36547137299892624351609522677854
63,1588.56869865328760249761578662165531,1587.2,1.36869865328760249761578662165531
64,1639.37187496590689081744237444609160,1638.0,1.37187496590689081744237444609160
65,1690.97500189732641197558917684681260,1689.6,1.37500189732641197558917684681260
66,1743.37808096103718472866123780768809,1742.0,1.37808096103718472866123780768809
67,1796.58111360196248342037561038340682,1795.2,1.38111360196248342037561038340682
68,1850.58410120054027491007775033070572,1849.2,1.38410120054027491007775033070572
69,1905.38704507650615821138135439060167,1904.0,1.38704507650615821138135439060167
70,1960.98994649240280195737918223212672,1959.6,1.38994649240280195737918223212672
71,2017.39280665683927610515924917862189,2016.0,1.39280665683927610515924917862189
72,2074.59562672752137604998578055818576,2073.2,1.39562672752137604998578055818576
73,2132.59840781407198431312032861700933,2131.2,1.39840781407198431312032861700933
74,2191.40115098065869611871475827455279,2190.0,1.40115098065869611871475827455279
75,2251.00385724844430407412375583890518,2249.6,1.40385724844430407412375583890518
76,2311.40652759787428761124136487276478,2310.0,1.40652759787428761124136487276478
77,2372.60916297081415044806837760421777,2371.2,1.40916297081415044806837760421777
78,2434.61176427254828353155241569111029,2433.2,1.41176427254828353155241569111029
79,2497.41433237365098410276938966624946,2496.0,1.41433237365098410276938966624946
80,2561.01686811173932339988869550849742,2559.6,1.41686811173932339988869550849742
81,2625.41937229311670617290941948443477,2624.0,1.41937229311670617290941948443477
82,2690.62184569431520373361999786560178,2689.2,1.42184569431520373361999786560178
83,2756.62428906354405353046596907676792,2755.2,1.42428906354405353046596907676792
84,2823.42670312205109394631630876121565,2822.0,1.42670312205109394631630876121565
85,2891.02908856540334374096759282388478,2889.6,1.42908856540334374096759282388478
86,2959.43144606469241969485827667570725,2958.0,1.43144606469241969485827667570725
87,3028.63377626767002853969121951923261,3027.2,1.43377626767002853969121951923261
88,3098.63607979981834588394943012790173,3097.2,1.43607979981834588394943012790173
89,3169.43835726535971133915505785323314,3168.0,1.43835726535971133915505785323314
90,3241.04060924820972583601756747091612,3239.6,1.44060924820972583601756747091612
91,3313.44283631287751566759446705487431,3312.0,1.44283631287751566759446705487431
92,3386.64503900531663949907373166525827,3385.2,1.44503900531663949907373166525827
93,3460.64721785372985232876215803744775,3459.2,1.44721785372985232876215803744775
94,3535.44937336933069745615302356733693,3534.0,1.44937336933069745615302356733693
95,3611.05150604706467635894790566438235,3609.6,1.45150604706467635894790566438235
96,3687.45361636629254455882007341647033,3686.0,1.45361636629254455882007341647033
97,3764.65570479143809721363170957165867,3763.2,1.45570479143809721363170957165867
98,3842.65777177260263529954940549949907,3841.2,1.45777177260263529954940549949907
99,3921.45981774614814977435221483625950,3920.0,1.45981774614814977435221483625950
100,4001.06184313525111477283812652800951,3999.6,1.46184313525111477283812652800951
101,4081.46384835042865158112006473633230,4080.0,1.46384835042865158112006473633230
102,4162.66583379003869956191331876700779,4161.2,1.46583379003869956191331876700779
103,4244.66779984075572228934062654087687,4243.2,1.46779984075572228934062654087687
104,4327.46974687802336988711078041802267,4326.0,1.46974687802336988711078041802267
105,4411.07167526648542549020316217611092,4409.6,1.47167526648542549020316217611092
106,4495.47358536039627298598990384608035,4494.0,1.47358536039627298598990384608035
107,4580.67547750401204510881129438384903,4579.2,1.47547750401204510881129438384903
108,4666.67735203196353172250571972424798,4665.2,1.47735203196353172250571972424798
109,4753.47920926961185953190591180024359,4752.0,1.47920926961185953190591180024359
110,4841.08104953338789204422941566347924,4839.6,1.48104953338789204422941566347924
111,4929.48287313111623274013898061848992,4928.0,1.48287313111623274013898061848992
112,5018.68468036232466498066041482168236,5017.2,1.48468036232466498066041482168236
113,5108.68647151853980664039675740612624,5107.2,1.48647151853980664039675740612624
114,5199.48824688356970869977395619304340,5198.0,1.48824688356970869977395619304340
115,5291.09000673377408658059390969609915,5289.6,1.49000673377408658059390969609915
116,5383.49175133832282467757905406336827,5382.0,1.49175133832282467757905406336827
117,5476.69348095944336282563449494455020,5475.2,1.49348095944336282563449494455020
118,5570.69519585265753241150362137048122,5569.2,1.49519585265753241150362137048122
119,5665.49689626700837612483015825586552,5664.0,1.49689626700837612483015825586552
120,5761.09858244527745950146285192220179,5759.6,1.49858244527745950146285192220179
121,5857.50025462419314414465095753084703,5856.0,1.50025462419314414465095753084703
122,5954.70191303463027359670840436065117,5953.2,1.50191303463027359670840436065117
123,6052.70355790180169064084933067729478,6051.2,1.50355790180169064084933067729478
124,6151.50518944544198713315444852293155,6150.0,1.50518944544198713315444852293155
125,6251.10680787998385789843104707886508,6249.6,1.50680787998385789843104707886508
126,6351.50841341472741502649346005453296,6350.0,1.50841341472741502649346005453296
127,6452.71000625400279832757606027291063,6451.2,1.51000625400279832757606027291063
128,6554.71158659732639511847008397259357,6553.2,1.51158659732639511847008397259357
129,6657.51315463955097043780953825082833,6656.0,1.51315463955097043780953825082833
130,6761.11471057100999040713549071135181,6759.6,1.51471057100999040713549071135181
131,6865.51625457765640605033108286594523,6864.0,1.51625457765640605033108286594523
132,6970.71778684119614990689411516292227,6969.2,1.51778684119614990689411516292227
133,7076.71930753921658599300576168122139,7075.2,1.51930753921658599300576168122139
134,7183.52081684531014238848762366053343,7182.0,1.52081684531014238848762366053343
135,7291.12231492919333761947378601660589,7289.6,1.52231492919333761947378601660589
136,7399.52380195682140831918197881851929,7398.0,1.52380195682140831918197881851929
137,7508.72527809049873234131925266212999,7507.2,1.52527809049873234131925266212999
138,7618.72674348898522788875377197794655,7617.2,1.52674348898522788875377197794655
139,7729.52819830759890711427554731742067,7728.0,1.52819830759890711427554731742067
140,7841.12964269831474720440067918989640,7839.6,1.52964269831474720440067918989640
141,7953.53107680986003739977771913344086,7952.0,1.53107680986003739977771913344086
142,8066.73250078780635233259973010304334,8065.2,1.53250078780635233259973010304334
143,8180.73391477465829341135555925938701,8179.2,1.53391477465829341135555925938701
144,8295.53531890993913280372951424747025,8294.0,1.53531890993913280372951424747025
145,8411.13671333027349038081017643863219,8409.6,1.53671333027349038081017643863219
146,8527.53809816946716611713792915175113,8526.0,1.53809816946716611713792915175113
147,8644.73947355858424223826959190905857,8643.2,1.53947355858424223826959190905857
148,8762.74083962602157044962943251139967,8761.2,1.54083962602157044962943251139967
149,8881.54219649758074605247122645804560,8880.0,1.54219649758074605247122645804560
150,9001.14354429653767259282224251888206,8999.6,1.54354429653767259282224251888206
151,9121.54488314370981296279902434246497,9120.0,1.54488314370981296279902434246497
152,9242.74621315752121725872987048879296,9241.2,1.54621315752121725872987048879296
153,9364.74753445406541635119106219500450,9363.2,1.54753445406541635119106219500450
154,9487.54884714716626507175390881298319,9486.0,1.54884714716626507175390881298319
155,9611.15015134843681325814312371839925,9609.6,1.55015134843681325814312371839925
156,9735.55144716733628253003384487345501,9734.0,1.55144716733628253003384487345501
157,9860.75273471122521984810980501046995,9859.2,1.55273471122521984810980501046995
158,9986.75401408541889968067459377071121,9985.2,1.55401408541889968067459377071121
159,10113.5552853932390384570036155452360,10112.0,1.5552853932390384570036155452360
160,10241.1565487360638876515103444982001,10239.6,1.5565487360638876515103444982001
161,10369.5578042133767640015571107341469,10368.0,1.5578042133767640015571107341469
162,10498.7590519228130763269124960327234,10497.2,1.5590519228130763269124960327234
163,10628.7602919602059038112408069102788,10627.2,1.5602919602059038112408069102788
164,10759.5615244196301803895133503837195,10758.0,1.5615244196301803895133503837195
165,10891.1627493934455338490493537139057,10889.6,1.5627493934455338490493537139057
166,11023.5639669723378301674785199286209,11022.0,1.5639669723378301674785199286209
167,11156.7651772453594703278689108362134,11155.2,1.5651772453594703278689108362134
168,11290.7663802999684823080812533009192,11289.2,1.5663802999684823080812533009192
169,11425.5675762220664533148135349197090,11424.0,1.5675762220664533148135349197090
170,11561.1687650960353420140762609608743,11559.6,1.5687650960353420140762609608743
171,11697.5699470047732109614163011128824,11696.0,1.5699470047732109614163011128824
172,11834.7711220297289171076709276751868,11833.2,1.5711220297289171076709276751868
173,11972.7722902509357957919609746672198,11971.2,1.5722902509357957919609746672198
174,12111.5734517470443740750932555861750,12110.0,1.5734517470443740750932555861750
175,12251.1746065953541474082360879304521,12249.6,1.5746065953541474082360879304521
176,12391.5757548718444493534453746452677,12390.0,1.5757548718444493534453746452677
177,12532.7768966512044476270996565493820,12531.2,1.5768966512044476270996565493820
178,12674.7780320068622956314688871853437,12673.2,1.5780320068622956314688871853437
179,12817.5791610110134659305152080372742,12816.0,1.5791610110134659305152080372742
180,12961.1802837346482966278021225980987,12959.6,1.5802837346482966278021225980987
181,13105.5814002475787733069158590099709,13104.0,1.5814002475787733069158590099709
182,13250.7825106184645742419568389638754,13249.2,1.5825106184645742419568389638754
183,13396.7836149148384019399108589632508,13395.2,1.5836149148384019399108589632508
184,13543.5847132031306252693432365088138,13542.0,1.5847132031306252693432365088138
185,13691.1858055486932539968440189074378,13689.6,1.5858055486932539968440189074378
186,13839.5868920158232667135364660401291,13838.0,1.5868920158232667135364660401291
187,13988.7879726677853159662696243666345,13987.2,1.5879726677853159662696243666345
188,14138.7890475668338260443514795258685,14137.2,1.5890475668338260443514795258685
189,14289.5901167742345071679014819766119,14288.0,1.5901167742345071679014819766119
190,14441.1911803502853017443474453935238,14439.6,1.5911803502853017443474453935238
191,14593.5922383543367819315393445993710,14592.0,1.5922383543367819315393445993710
192,14746.7932908448120149060997139772949,14745.2,1.5932908448120149060997139772949
193,14900.7943378792259141577761453316712,14899.2,1.5943378792259141577761453316712
194,15055.5953795142040901680341769552061,15054.0,1.5953795142040901680341769552061
195,15211.1964158055012184232391177602780,15209.6,1.5964158055012184232391177602780
196,15367.5974468080189384728864357066928,15366.0,1.5974468080189384728864357066928
197,15524.7984725758232984273483835308418,15523.2,1.5984725758232984273483835308418
198,15682.7994931621617590768611732790579,15681.2,1.5994931621617590768611732790579
199,15841.6005086194797704859876860347213,15840.0,1.6005086194797704859876860347213
200,16001.2015189994369350247796553609458,15999.6,1.6015189994369350247796553609458
201,16161.6025243529227678347547289727217,16160.0,1.6025243529227678347547289727217
202,16322.8035247300720681282437293424387,16321.2,1.6035247300720681282437293424387
203,16484.8045201802799119989435523669201,16483.2,1.6045201802799119989435523669201
204,16647.6055107522162783824524701292297,16646.0,1.6055107522162783824524701292297
205,16811.2064964938403181567807291581948,16809.6,1.6064964938403181567807291581948
206,16975.6074774524142794270365336648387,16974.0,1.6074774524142794270365336648387
207,17140.8084536745170948912371284423532,17139.2,1.6084536745170948912371284423532
208,17306.8094252060576455358400606614945,17305.2,1.6094252060576455358400606614945
209,17473.6103920922877064319292069411094,17472.0,1.6103920922877064319292069411094
210,17641.2113543778145861566726599214681,17639.6,1.6113543778145861566726599214681
211,17809.6123121066134672290095484918893,17808.0,1.6123121066134672290095484918893
212,17978.8132653220394578176856595410586,17977.2,1.6132653220394578176856595410586
213,18148.8142140668393591315710406453200,18147.2,1.6142140668393591315710406453200
214,18319.6151583831631635010645740669865,18318.0,1.6151583831631635010645740669865
215,18491.2160983125752823910622823519269,18489.6,1.6160983125752823910622823519269
216,18663.6170338960655183353551256084681,18662.0,1.6170338960655183353551256084681
217,18836.8179651740597847881143912200399,18835.2,1.6179651740597847881143912200399
218,19010.8188921864305829027982881653952,19009.2,1.6188921864305829027982881653952
219,19185.6198149725072385506065559917840,19184.0,1.6198149725072385506065559917840
220,19361.2207335710859121271467309569231,19359.6,1.6207335710859121271467309569231
221,19537.6216480204393790915712517731644,19536.0,1.6216480204393790915712517731644
222,19714.8225583583265984789711052942816,19713.2,1.6225583583265984789711052942816
223,19892.8234646220020629918161052060744,19891.2,1.6234646220020629918161052060744
224,20071.6243668482249457762747442453145,20070.0,1.6243668482249457762747442453145
225,20251.2252650732680464881561801335987,20249.6,1.6252650732680464881561801335987
226,20431.6261593329265402363205125876968,20430.0,1.6261593329265402363205125876968
227,20612.8270496625265380981003348199045,20611.2,1.6270496625265380981003348199045
228,20794.8279360969334610704816862876141,20793.2,1.6279360969334610704816862876141
229,20977.6288186705602346646983716414704,20976.0,1.6288186705602346646983716414704
230,21161.2296974173753088879600738317625,21159.6,1.6296974173753088879600738317625
231,21345.6305723709105054611867116548466,21344.0,1.6305723709105054611867116548466
232,21530.8314435642687027434592646189981,21529.2,1.6314435642687027434592646189981
233,21716.8323110301313534127304299363761,21715.2,1.6323110301313534127304299363761
234,21903.6331748007658511152942393026608,21902.0,1.6331748007658511152942393026608
235,22091.2340349080327393240030468433083,22089.6,1.6340349080327393240030468433083
236,22279.6348913833927721754771851808792,22278.0,1.6348913833927721754771851808792
237,22468.8357442579138309805688217130092,22467.2,1.6357442579138309805688217130092
238,22658.8365935622776982160492466664395,22657.2,1.6365935622776982160492466664395
