Eigenstate,Energy,Kinetic Energy,Potential Energy
1,0.500000000025558802522060070287744774,0.0,0.500000000025558802522060070287744774
2,1.84623093781794908211837095384640720,1.2,0.64623093781794908211837095384640720
3,3.93633761019503787940061608718386681,3.2,0.73633761019503787940061608718386681
4,6.79966527883498114567763637338548282,6.0,0.79966527883498114567763637338548282
5,10.4480465770538175294927355461297265,9.6,0.8480465770538175294927355461297265
6,14.8870659996062782281826748048731561,14.0,0.8870659996062782281826748048731561
7,20.1197208279305638403055160694272668,19.2,0.9197208279305638403055160694272668
8,26.1477838484036400155542037143827249,25.2,0.9477838484036400155542037143827249
9,32.9723835600318009031638553635724597,32.0,0.9723835600318009031638553635724597
10,40.5942802169636301062598519556428042,39.6,0.9942802169636301062598519556428042
11,49.0140093893401759865552650705034210,48.0,1.0140093893401759865552650705034210
12,58.2319621724660762583282145613678241,57.2,1.0319621724660762583282145613678241
13,68.2484326964071459553581709565329899,67.2,1.0484326964071459553581709565329899
14,79.0636476588465367539857774055360597,78.0,1.0636476588465367539857774055360597
15,90.6777854408989205272792428026034269,89.6,1.0777854408989205272792428026034269
16,103.090988911980933641109038015107019,102.0,1.090988911980933641109038015107019
17,116.303374263272680888527614722721414,115.2,1.103374263272680888527614722721414
18,130.315037258723934771112614031665798,129.2,1.115037258723934771112614031665798
19,145.126057758158113058800060472183601,144.0,1.126057758158113058800060472183601
20,160.736503054906215237101906664667516,159.6,1.136503054906215237101906664667516
21,177.146430381888519718054029347276671,176.0,1.146430381888519718054029347276671
22,194.355888822773324016268628485662104,193.2,1.155888822773324016268628485662104
23,212.364920789913469448625141146635602,211.2,1.164920789913469448625141146635602
24,231.173563181746763335787249208699135,230.0,1.173563181746763335787249208699135
25,250.781848299591905432662286471047984,249.6,1.181848299591905432662286471047984
26,271.189804581456075714048575741052839,270.0,1.189804581456075714048575741052839
27,292.397457194997510241494944696248449,291.2,1.197457194997510241494944696248449
28,314.404828520884541028909112510473448,313.2,1.204828520884541028909112510473448
29,337.211938549997548003373881572178502,336.0,1.211938549997548003373881572178502
30,360.818805212270783588624500104719659,359.6,1.218805212270783588624500104719659
31,385.225444650825091938766830261566108,384.0,1.225444650825091938766830261566108
32,410.431871451964645265240649733443191,409.2,1.231871451964645265240649733443191
33,436.438098839301171896018024737402650,435.2,1.238098839301171896018024737402650
34,463.244138838518604439965925185221324,462.0,1.244138838518604439965925185221324
35,490.850002417951881363685890669326178,489.6,1.250002417951881363685890669326178
36,519.255699609120156409668251793980421,518.0,1.255699609120156409668251793980421
37,548.461239610550585736147236403129927,547.2,1.261239610550585736147236403129927
38,578.466630877598443915958561769584316,577.2,1.266630877598443915958561769584316
39,609.271881200471471282230909184606514,608.0,1.271881200471471282230909184606514
40,640.876997772270534325237484018598243,639.6,1.276997772270534325237484018598243
41,673.281987248541930571046332287732970,672.0,1.281987248541930571046332287732970
42,706.486855799581676771130716913058680,705.2,1.286855799581676771130716913058680
43,740.491609156525632887208107743934326,739.2,1.291609156525632887208107743934326
44,775.296252652091220340092186435483992,774.0,1.296252652091220340092186435483992
45,810.900791256698923422362276610346125,809.6,1.300791256698923422362276610346125
46,847.305229610588626492075713631758360,846.0,1.305229610588626492075713631758360
47,884.509572052452362952429669034703071,883.2,1.309572052452362952429669034703071
48,922.513822645027465658041503176757716,921.2,1.313822645027465658041503176757716
49,961.317985198029445844629282075582556,960.0,1.317985198029445844629282075582556
50,1000.92206328874980496522855180751245,999.6,1.32206328874980496522855180751245
51,1041.32606028059851685361551483284972,1040.0,1.32606028059851685361551483284972
52,1082.52997933983257242131286795838577,1081.2,1.32997933983257242131286795838577
53,1124.53382345067952897601324802525097,1123.2,1.33382345067952897601324802525097
54,1167.33759542903744511780308533666985,1166.0,1.33759542903744511780308533666985
55,1210.94129793490910667706119152897420,1209.6,1.34129793490910667706119152897420
56,1255.34493348370837458778417166413496,1254.0,1.34493348370837458778417166413496
57,1300.54850445655928662497418343088747,1299.2,1.34850445655928662497418343088747
58,1346.55201310969374774843581273014480,1345.2,1.35201310969374774843581273014480
59,1393.35546158304088984805545251951850,1392.0,1.35546158304088984805545251951850
60,1440.95885190809015717793594917021560,1439.6,1.35885190809015717793594917021560
61,1489.36218601510060953925603640734077,1488.0,1.36218601510060953925603640734077
62,1538.56546573972063426661181532148887,1537.2,1.36546573972063426661181532148887
63,1588.56869282907501618357796794811957,1587.2,1.36869282907501618357796794811957
64,1639.37186894737000221330521042759018,1638.0,1.37186894737000221330521042759018
65,1690.97499568106146248999843985845445,1689.6,1.37499568106146248999843985845445
66,1743.37807454362640247806657615093851,1742.0,1.37807454362640247806657615093851
67,1796.58110697997381831440989519739827,1795.2,1.38110697997381831440989519739827
68,1850.58409437052713142850256123132307,1849.2,1.38409437052713142850256123132307
69,1905.38703803500712582420173965594509,1904.0,1.38703803500712582420173965594509
70,1960.98993923594138313895094934140285,1959.6,1.38993923594138313895094934140285
71,2017.39279918192361189231458676931604,2016.0,1.39279918192361189231458676931604
72,2074.59561903064396909340089880328325,2073.2,1.39561903064396909340089880328325
73,2132.59839989170941937032748753786898,2131.2,1.39839989170941937032748753786898
74,2191.40114282927135793633082410908727,2190.0,1.40114282927135793633082410908727
75,2251.00384886447609260601840727668969,2249.6,1.40384886447609260601840727668969
76,2311.40651897775233051850708348185206,2310.0,1.40651897775233051850708348185206
77,2372.60915411094851282577305856524969,2371.2,1.40915411094851282577305856524969
78,2434.61175516933167480635902873590444,2433.2,1.41175516933167480635902873590444
79,2497.41432302345846204459169440301705,2496.0,1.41432302345846204459169440301705
80,2561.01685851092799518981850522586984,2559.6,1.41685851092799518981850522586984
81,2625.41936243802542646869597970275086,2624.0,1.41936243802542646869597970275086
82,2690.62183558126426967300842216805799,2689.2,1.42183558126426967300842216805799
83,2756.62427868883489661170623634541816,2755.2,1.42427868883489661170623634541816
84,2823.42669248196596872413694775174338,2822.0,1.42669248196596872413694775174338
85,2891.02907765620501327526836024398884,2889.6,1.42907765620501327526836024398884
86,2959.43143488262383768831396591624822,2958.0,1.43143488262383768831396591624822
87,3028.63376480895401809937088594989933,3027.2,1.43376480895401809937088594989933
88,3098.63606806065727484094490707344596,3097.2,1.43606806065727484094490707344596
89,3169.43834524193516405907568942204296,3168.0,1.43834524193516405907568942204296
90,3241.04059693668217145204595122608333,3239.6,1.44059693668217145204595122608333
91,3313.44282370938597266660774801966941,3312.0,1.44282370938597266660774801966941
92,3386.64502610597833659011981319996333,3385.2,1.44502610597833659011981319996333
93,3460.64720465463988552193432847587258,3459.2,1.44720465463988552193432847587258
94,3535.44935986656168327863335724034113,3534.0,1.44935986656168327863335724034113
95,3611.05149223666640113368618564287502,3609.6,1.45149223666640113368618564287502
96,3687.45360224429160966998235607586446,3686.0,1.45360224429160966998235607586446
97,3764.65569035383756028158563132264764,3763.2,1.45569035383756028158563132264764
98,3842.65775701538164718675931860790463,3841.2,1.45775701538164718675931860790463
99,3921.45980266526158734212436827975107,3920.0,1.45980266526158734212436827975107
100,4001.06182772662920930739550900014299,3999.6,1.46182772662920930739550900014299
101,4081.46383260997661280598621637525280,4080.0,1.46383260997661280598621637525280
102,4162.66581771363633515205227258672033,4161.2,1.46581771363633515205227258672033
103,4244.66778342425705280093071547433636,4243.2,1.46778342425705280093071547433636
104,4327.46973011725623901522067394747144,4326.0,1.46973011725623901522067394747144
105,4411.07165815725110556499554847689603,4409.6,1.47165815725110556499554847689603
106,4495.47356789846906561639240207335389,4494.0,1.47356789846906561639240207335389
107,4580.67545968513887688086894529187600,4579.2,1.47545968513887688086894529187600
108,4666.67733385186354485786412487581495,4665.2,1.47733385186354485786412487581495
109,4753.47919072397599741006419239159132,4752.0,1.47919072397599741006419239159132
110,4841.08103061787847949035102519376992,4839.6,1.48103061787847949035102519376992
111,4929.48285384136655097831097180380717,4928.0,1.48285384136655097831097180380717
112,5018.68466069393852115054903431544161,5017.2,1.48466069393852115054903431544161
113,5108.68645146709109777325908856994777,5107.2,1.48645146709109777325908856994777
114,5199.48822644460198004774453834444458,5198.0,1.48822644460198004774453834444458
115,5291.08998590280008419108121128941327,5289.6,1.48998590280008419108121128941327
116,5383.49173011082404210246608716339596,5382.0,1.49173011082404210246608716339596
117,5476.69345933086958185278867192787962,5475.2,1.49345933086958185278867192787962
118,5570.69517381842635770385630376461487,5569.2,1.49517381842635770385630376461487
119,5665.49687382250476364998831741398777,5664.0,1.49687382250476364998831741398777
120,5761.09855958585323863245907309580019,5759.6,1.49855958585323863245907309580019
121,5857.50023134516653331002560301739891,5856.0,1.50023134516653331002560301739891
122,5954.70188933128538935564282904346607,5953.2,1.50188933128538935564282904346607
123,6052.70353376938805005653734024167082,6051.2,1.50353376938805005653734024167082
124,6151.50516487917400331500202565824208,6150.0,1.50516487917400331500202565824208
125,6251.10678287504032858101080359717885,6249.6,1.50678287504032858101080359717885
126,6351.50838796625100405045505853582731,6350.0,1.50838796625100405045505853582731
127,6452.70998035709950988491707081271722,6451.2,1.50998035709950988491707081271722
128,6554.71156024706504062170580230441896,6553.2,1.51156024706504062170580230441896
129,6657.51312783096262786964228306834380,6656.0,1.51312783096262786964228306834380
130,6761.11468329908745600421462576437814,6759.6,1.51468329908745600421462576437814
131,6865.51622683735363817160457641017745,6864.0,1.51622683735363817160457641017745
132,6970.71775862742770493388675297588678,6969.2,1.51775862742770493388675297588678
133,7076.71927884685704610611769994432798,7075.2,1.51927884685704610611769994432798
134,7183.52078766919353506007315413822096,7182.0,1.52078766919353506007315413822096
135,7291.12228526411254666104931038996961,7289.6,1.52228526411254666104931038996961
136,7399.52377179752757631661355675903361,7398.0,1.52377179752757631661355675903361
137,7508.72524743170065430824661657793589,7507.2,1.52524743170065430824661657793589
138,7618.72671232534873596482733908680699,7617.2,1.52671232534873596482733908680699
139,7729.52816663374624613100588411702290,7728.0,1.52816663374624613100588411702290
140,7841.12961050882394093754265141920494,7839.6,1.52961050882394093754265141920494
141,7953.53104409926424532320045029155617,7952.0,1.53104409926424532320045029155617
142,8066.73246755059321668451033299725212,8065.2,1.53246755059321668451033299725212
143,8180.73388100526927637956208534838250,8179.2,1.53388100526927637956208534838250
144,8295.53528460276884363233364073750300,8294.0,1.53528460276884363233364073750300
145,8411.13667847966900219631428300255449,8409.6,1.53667847966900219631428300255449
146,8527.53806276972732226742588181753898,8526.0,1.53806276972732226742588181753898
147,8644.73943760395895193328017014011252,8643.2,1.53943760395895193328017014011252
148,8762.74080311071109348777683711369598,8761.2,1.54080311071109348777683711369598
149,8881.54215941573496641197297984643083,8880.0,1.54215941573496641197297984643083
150,9001.14350664225536066207717905453615,8999.6,1.54350664225536066207717905453615
151,9121.54484491103787617879771533453107,9120.0,1.54484491103787617879771533453107
152,9242.74617434045393891718980797114945,9241.2,1.54617434045393891718980797114945
153,9364.74749504654368234667015135929748,9363.2,1.54749504654368234667015135929748
154,9487.54880714307677832041485105830459,9486.0,1.54880714307677832041485105830459
155,9611.15011074161129555010731702028252,9609.6,1.55011074161129555010731702028252
156,9735.55140595155066355237252744655575,9734.0,1.55140595155066355237252744655575
157,9860.75269288019881311347386147126540,9859.2,1.55269288019881311347386147126540
158,9986.75397163281356509034652260226172,9985.2,1.55397163281356509034652260226172
159,10113.5552423126583312207734219694745,10112.0,1.5552423126583312207734219694745
160,10241.1565050210521932802136080624965,10239.6,1.5565050210521932802136080624965
161,10369.5577598574184190813747945418596,10368.0,1.5577598574184190813747945418596
162,10498.7590069193314747776017259187120,10497.2,1.5590069193314747776017259187120
163,10628.7602463025625883233501686457373,10627.2,1.5602463025625883233501686457373
164,10759.5614781011239187283120194306002,10758.0,1.5614781011239187283120194306002
165,10891.1627024073113797053795958972825,10889.6,1.5627024073113797053795958972825
166,11023.5639193117461682280082612765163,11022.0,1.5639193117461682280082612765163
167,11156.7651289034150452292673277212872,11155.2,1.5651289034150452292673277212872
168,11290.7663312697094111314631998494860,11289.2,1.5663312697094111314631998494860
169,11425.5675264964632212683956873535188,11424.0,1.5675264964632212683956873535188
170,11561.1687146679897809433338125905807,11559.6,1.5687146679897809433338125905807
171,11697.5698958671174603171421243061090,11696.0,1.5698958671174603171421243061090
172,11834.7710701752243669931859624238029,11833.2,1.5710701752243669931859624238029
173,11972.7722376722720117013168123244779,11971.2,1.5722376722720117013168123244779
174,12111.5733984368380029244221359479354,12110.0,1.5733984368380029244221359479354
175,12251.1745525461478044524430282135374,12249.6,1.5745525461478044524430282135374
176,12391.5757000761055855701829455818489,12390.0,1.5757000761055855701829455818489
177,12532.7768411013241971394152612384767,12531.2,1.5768411013241971394152612384767
178,12674.7779756951543027296561784333665,12673.2,1.5779756951543027296561784333665
179,12817.5791039297126912425191442005895,12816.0,1.5791039297126912425191442005895
180,12961.1802258759098019760199616387278,12959.6,1.5802258759098019760199616387278
181,13105.5813416034764847773889508181621,13104.0,1.5813416034764847773889508181621
182,13250.7824511809900229797458201368929,13249.2,1.5824511809900229797458201368929
183,13396.7835546758994421718813610975554,13395.2,1.5835546758994421718813610975554
184,13543.5846521545501290426520689301293,13542.0,1.5846521545501290426520689301293
185,13691.1857436822077821080811668172296,13689.6,1.5857436822077821080811668172296
186,13839.5868293230817152897552771023067,13838.0,1.5868293230817152897552771023067
187,13988.7879091403475381449840377677697,13987.2,1.5879091403475381449840377677697
188,14138.7889831961692281850068413443188,14137.2,1.5889831961692281850068413443188
189,14289.5900515517206190123040241435124,14288.0,1.5900515517206190123040241435124
190,14441.1911142672063199280567156572851,14439.6,1.5911142672063199280567156572851
191,14593.5921714018820862322732808769539,14592.0,1.5921714018820862322732808769539
192,14746.7932230140746565987508121473200,14745.2,1.5932230140746565987508121473200
193,14900.7942691612010758286845263278445,14899.2,1.5942691612010758286845263278445
194,15055.5953098997875163236718785918140,15054.0,1.5953098997875163236718785918140
195,15211.1963452854876162104338506537327,15209.6,1.5963452854876162104338506537327
196,15367.5973753731003478091164003172342,15366.0,1.5973753731003478091164003172342
197,15524.7984002165874308204557691368935,15523.2,1.5984002165874308204557691368935
198,15682.7994198690903043937490645988939,15681.2,1.5994198690903043937490645988939
199,15841.6004343829466709094460620043894,15840.0,1.6004343829466709094460620043894
200,16001.2014438097066254165234923911991,15999.6,1.6014438097066254165234923911991
201,16161.6024482001483817010209838514271,16160.0,1.6024482001483817010209838514271
202,16322.8034476042936083618504790677320,16321.2,1.6034476042936083618504790677320
203,16484.8044420714223855485613388210142,16483.2,1.6044420714223855485613388210142
204,16647.6054316500877939759231581432304,16646.0,1.6054316500877939759231581432304
205,16811.2064163881301461806386071648828,16809.6,1.6064163881301461806386071648828
206,16975.6073963326908730388836853886484,16974.0,1.6073963326908730388836853886484
207,17140.8083715302260714153011431098290,17139.2,1.6083715302260714153011431098290
208,17306.8093420265197271648522287922812,17305.2,1.6093420265197271648522287922812
209,17473.6103078666966192303546119972528,17472.0,1.6103078666966192303546119972528
210,17641.2112690952349163313059858734835,17639.6,1.6112690952349163313059858734835
211,17809.6122257559784736029501050627895,17808.0,1.6122257559784736029501050627895
212,17978.8131778921488394127078030959456,17977.2,1.6131778921488394127078030959456
213,18148.8141255463569767318612940112286,18147.2,1.6141255463569767318612940112286
214,18319.6150687606147140381756964521682,18318.0,1.6150687606147140381756964521682
215,18491.2160075763459249556828952441761,18489.6,1.6160075763459249556828952441761
216,18663.6169420343974505860786267781736,18662.0,1.6169420343974505860786267781736
217,18836.8178721750497684907686333823722,18835.2,1.6178721750497684907686333823722
218,19010.8187980380274172960071502074684,19009.2,1.6187980380274172960071502074684
219,19185.6197196625091801940571162652094,19184.0,1.6197196625091801940571162652094
220,19361.2206370871380398484930033325319,19359.6,1.6206370871380398484930033325319
221,19537.6215503500309026059292794451945,19536.0,1.6215503500309026059292794451945
222,19714.8224594887881092115330525316868,19713.2,1.6224594887881092115330525316868
223,19892.8233645405027255891449139641108,19891.2,1.6233645405027255891449139641108
224,20071.6242655417696287452990782789147,20070.0,1.6242655417696287452990782789147
225,20251.2251625286943903536780659190906,20249.6,1.6251625286943903536780659190906
226,20431.6260555369019615579353653296585,20430.0,1.6260555369019615579353653296585
227,20612.8269446015451676357251841981805,20611.2,1.6269446015451676357251841981805
228,20794.8278297573130143341310741218013,20793.2,1.6278297573130143341310741218013
229,20977.6287110384388130286292126964805,20976.0,1.6287110384388130286292126964805
230,21161.2295884787081293918152827149435,21159.6,1.6295884787081293918152827149435
231,21345.6304621114665573611496797370783,21344.0,1.6304621114665573611496797370783
232,21530.8313319696273288146262823098150,21529.2,1.6313319696273288146262823098150
233,21716.8321980856787539398533103130851,21715.2,1.6321980856787539398533103130851
234,21903.6330604916915084425962728238300,21902.0,1.6330604916915084425962728238300
235,22091.2339192193257607658668692446915,22089.6,1.6339192193257607658668692446915
236,22279.6347742998381490183098109525121,22278.0,1.6347742998381490183098109525121
237,22468.8356257640886112319981556206810,22467.2,1.6356257640886112319981556206810
238,22658.8364736425470706806311564422635,22657.2,1.6364736425470706806311564422635
