Eigenstate,Energy,Kinetic Energy,Potential Energy
1,0.500000000040869312212356775360000954,0.0,0.500000000040869312212356775360000954
2,1.84623093791788819581385080707612192,1.2,0.64623093791788819581385080707612192
3,3.93633761048860135090929721501280577,3.2,0.73633761048860135090929721501280577
4,6.79966527944644144702103541383239619,6.0,0.79966527944644144702103541383239619
5,10.4480465781129943497939989862165991,9.6,0.8480465781129943497939989862165991
6,14.8870660012452648079190578357437753,14.0,0.8870660012452648079190578357437753
7,20.1197208302825208179689597352574216,19.2,0.9197208302825208179689597352574216
8,26.1477838516022924483908615914896820,25.2,0.9477838516022924483908615914896820
9,32.9723835642112044149029772190012013,32.0,0.9723835642112044149029772190012013
10,40.5942802222580522276809940737397759,39.6,0.9942802222580522276809940737397759
11,49.0140093958840317236867961599001598,48.0,1.0140093958840317236867961599001598
12,58.2319621803938912943266702494861383,57.2,1.0319621803938912943266702494861383
13,68.2484327058535348963709805126809748,67.2,1.0484327058535348963709805126809748
14,79.0636476699461900329567557691553433,78.0,1.0636476699461900329567557691553433
15,90.6777854537865965310385207180869274,89.6,1.0777854537865965310385207180869274
16,103.090988926791454118591341311110197,102.0,1.090988926791454118591341311110197
17,116.303374280140928493448902058114548,115.2,1.103374280140928493448902058114548
18,130.315037277784852036201517157178574,129.2,1.115037277784852036201517157178574
19,145.126057779546702356304843648477337,144.0,1.126057779546702356304843648477337
20,160.736503078757539435196022363531833,159.6,1.136503078757539435196022363531833
21,177.146430408337703338843428865982786,176.0,1.146430408337703338843428865982786
22,194.355888851955554762374033635400588,193.2,1.155888851955554762374033635400588
23,212.364920821964000005367500671993245,211.2,1.164920821964000005367500671993245
24,231.173563216800913382783390280138893,230.0,1.173563216800913382783390280138893
25,250.781848337785063816907421380398575,249.6,1.181848337785063816907421380398575
26,271.189804622923702749258502987618477,270.0,1.189804622923702749258502987618477
27,292.397457239875140107453474798200062,291.2,1.197457239875140107453474798200062
28,314.404828569307784251005935578285462,313.2,1.204828569307784251005935578285462
29,337.211938602102093997205770509846039,336.0,1.211938602102093997205770509846039
30,360.818805268192403257989925404520497,359.6,1.218805268192403257989925404520497
31,385.225444710699640317964741810854816,384.0,1.225444710699640317964741810854816
32,410.431871515928064198532243181823528,409.2,1.231871515928064198532243181823528
33,436.438098907489492748596259285664433,435.2,1.238098907489492748596259285664433
34,463.244138911067950835922019922226093,462.0,1.244138911067950835922019922226093
35,490.850002494998471947351552838054361,489.6,1.250002494998471947351552838054361
36,519.255699690800307627409600024649861,518.0,1.255699690800307627409600024649861
37,548.461239697000714636237289106728006,547.2,1.261239697000714636237289106728006
38,578.466630968955070964593679673336229,577.2,1.266630968955070964593679673336229
39,609.271881296871223194108117400671508,608.0,1.271881296871223194108117400671508
40,640.876997873850146907393340202652498,639.6,1.276997873850146907393340202652498
41,673.281987355438251578888374904616123,672.0,1.281987355438251578888374904616123
42,706.486855911931668775780780822101677,705.2,1.286855911931668775780780822101677
43,740.491609274466376153431442770583739,739.2,1.291609274466376153431442770583739
44,775.296252775759915714214057495126379,774.0,1.296252775759915714214057495126379
45,810.900791386232895229679782694955105,809.6,1.300791386232895229679782694955105
46,847.305229746125325443361083065363862,846.0,1.305229746125325443361083065363862
47,884.509572194129369059195447762123077,883.2,1.309572194129369059195447762123077
48,922.513822792982491156300548485119008,921.2,1.313822792982491156300548485119008
49,961.317985352400338126935286518367903,960.0,1.317985352400338126935286518367903
50,1000.92206344967454952082768579946675,999.6,1.32206344967454952082768579946675
51,1041.32606044821524021657805991665877,1040.0,1.32606044821524021657805991665877
52,1082.52997951427954512654643422917350,1081.2,1.32997951427954512654643422917350
53,1124.53382363209516852308731715841660,1123.2,1.33382363209516852308731715841660
54,1167.33759561756031894253889262423498,1166.0,1.33759561756031894253889262423498
55,1210.94129813067793513086197289385703,1209.6,1.34129813067793513086197289385703
56,1255.34493368686203392469903915639923,1254.0,1.34493368686203392469903915639923
57,1300.54850466723681199650478877647210,1299.2,1.34850466723681199650478877647210
58,1346.55201332803433620610892321325251,1345.2,1.35201332803433620610892321325251
59,1393.35546180918390335379670125778147,1392.0,1.35546180918390335379670125778147
60,1440.95885214217512562229084035816634,1439.6,1.35885214217512562229084035816634
61,1489.36218625726723376751375042518506,1488.0,1.36218625726723376751375042518506
62,1538.56546599010878911289581522164295,1537.2,1.36546599010878911289581522164295
63,1588.56869308782475351297490081758539,1587.2,1.36869308782475351297490081758539
64,1639.37186921462155397211025954736299,1638.0,1.37186921462155397211025954736299
65,1690.97499595695524376416133022395695,1689.6,1.37499595695524376416133022395695
66,1743.37807482830301455992779904861565,1742.0,1.37807482830301455992779904861565
67,1796.58110727357405177782158884882436,1795.2,1.38110727357405177782158884882436
68,1850.58409467319196921243287270786189,1849.2,1.38409467319196921243287270786189
69,1905.38703834687774632492555371694017,1904.0,1.38703834687774632492555371694017
70,1960.98993955715916331093342193323384,1959.6,1.38993955715916331093342193323384
71,2017.39279951263013035789737926582344,2016.0,1.39279951263013035789737926582344
72,2074.59561937098100926140396775583273,2073.2,1.39561937098100926140396775583273
73,2132.59840024181897256368221621532236,2131.2,1.39840024181897256368221621532236
74,2191.40114318929562652886283527625320,2190.0,1.40114318929562652886283527625320
75,2251.00384923455749316850089563041385,2249.6,1.40384923455749316850089563041385
76,2311.40651935803349697410771088016876,2310.0,1.40651935803349697410771088016876
77,2372.60915450157229961501965509444981,2371.2,1.40915450157229961501965509444981
78,2434.61175557044116006175131899215851,2433.2,1.41175557044116006175131899215851
79,2497.41432343519695077498816968444400,2496.0,1.41432343519695077498816968444400
80,2561.01685893343902247472933728185204,2559.6,1.41685893343902247472933728185204
81,2625.41936287145276066261461794077669,2624.0,1.41936287145276066261461794077669
82,2690.62183602575191561991611090981675,2689.2,1.42183602575191561991611090981675
83,2756.62427914452709886988527428821184,2755.2,1.42427914452709886988527428821184
84,2823.42669294900721480142999981601364,2822.0,1.42669294900721480142999981601364
85,2891.02907813474003687492259750030156,2889.6,1.42907813474003687492259750030156
86,2959.43143537279762196555017855114680,2958.0,1.43143537279762196555017855114680
87,3028.63376531091179892881913007487447,3027.2,1.43376531091179892881913007487447
88,3098.63606857454454409508952765112359,3097.2,1.43606857454454409508952765112359
89,3169.43834576789767289785387887127186,3168.0,1.43834576789767289785387887127186
90,3241.04059747486593362374524006071490,3239.6,1.44059747486593362374524006071490
91,3313.44282425993726782020913872232380,3312.0,1.44282425993726782020913872232380
92,3386.64502666904371359923440939489885,3385.2,1.44502666904371359923440939489885
93,3460.64720523036616582048257679994046,3459.2,1.44720523036616582048257679994046
94,3535.44936045509596420841718630462891,3534.0,1.44936045509596420841718630462891
95,3611.05149283815605930400553980337312,3609.6,1.45149283815605930400553980337312
96,3687.45360285888430432944873296346182,3686.0,1.45360285888430432944873296346182
97,3764.65569098168123670228648298497412,3763.2,1.45569098168123670228648298497412
98,3842.65775765662454006092824076327288,3841.2,1.45775765662454006092824076327288
99,3921.45980332005222419147325309932751,3920.0,1.45980332005222419147325309932751
100,4001.06182839511641390526589332456595,3999.6,1.46182839511641390526589332456595
101,4081.46383329230950861247830314847798,4080.0,1.46383329230950861247830314847798
102,4162.66581840996434876229119021028314,4161.2,1.46581840996434876229119021028314
103,4244.66778413472991740663071395395120,4243.2,1.46778413472991740663071395395120
104,4327.46973084202399787970923184692565,4326.0,1.46973084202399787970923184692565
105,4411.07165889646411551186037335658648,4409.6,1.47165889646411551186037335658648
106,4495.47356865227800053191557490767421,4494.0,1.47356865227800053191557490767421
107,4580.67546045369473123041358422509548,4579.2,1.47546045369473123041358422509548
108,4666.67733463531763721638010946551424,4665.2,1.47733463531763721638010946551424
109,4753.47919152247997400688073526900412,4752.0,1.47919152247997400688073526900412
110,4841.08103143158431776842496861911364,4839.6,1.48103143158431776842496861911364
111,4929.48285467042656316810097738907630,4928.0,1.48285467042656316810097738907630
112,5018.68466153850535785868698367582436,5017.2,1.48466153850535785868698367582436
113,5108.68645232731775158619123791403817,5107.2,1.48645232731775158619123791403817
114,5199.48822732064178915051621022553807,5198.0,1.48822732064178915051621022553807
115,5291.08998679480673600144003515154269,5289.6,1.48998679480673600144003515154269
116,5383.49173101895157692046003963560458,5382.0,1.49173101895157692046003963560458
117,5476.69346025527239652603646645279429,5475.2,1.49346025527239652603646645279429
118,5570.69517475925920930866881948707030,5569.2,1.49517475925920930866881948707030
119,5665.49687477992277318852121016115230,5664.0,1.49687477992277318852121016115230
120,5761.09856056001189474607794945513616,5759.6,1.49856056001189474607794945513616
121,5857.50023233622169600906634382525647,5856.0,1.50023233622169600906634382525647
122,5954.70189033939329376575111243235754,5953.2,1.50189033939329376575111243235754
123,6052.70353479470531018177266182557650,6051.2,1.50353479470531018177266182557650
124,6151.50516592185761581789287329234947,6150.0,1.50516592185761581789287329234947
125,6251.10678393524767657974901223825001,6249.6,1.50678393524767657974901223825001
126,6351.50838904413986093341877602725642,6350.0,1.50838904413986093341877602725642
127,6452.70998145282804314271310310830779,6451.2,1.50998145282804314271310310830779
128,6554.71156136079181569692356955067330,6553.2,1.51156136079181569692356955067330
129,6657.51312896284661202451300479906279,6656.0,1.51312896284661202451300479906279
130,6761.11468444928802220637079268142038,6759.6,1.51468444928802220637079268142038
131,6865.51622800603056899813617201481305,6864.0,1.51622800603056899813617201481305
132,6970.71775981474119649389234494735033,6969.2,1.51775981474119649389234494735033
133,7076.71928005296771198194973556910556,7075.2,1.51928005296771198194973556910556
134,7183.52078889426241026747847684355987,7182.0,1.52078889426241026747847684355987
135,7291.12228650830109162840747482233516,7289.6,1.52228650830109162840747482233516
136,7399.52377306099768088347684087846981,7398.0,1.52377306099768088347684087846981
137,7508.72524871461464174338742876949388,7507.2,1.52524871461464174338742876949388
138,7618.72671362786936700400011112508033,7617.2,1.52671362786936700400011112508033
139,7729.52816795603672303463225729652291,7728.0,1.52816795603672303463225729652291
140,7841.12961185104791156853030468874873,7839.6,1.52961185104791156853030468874873
141,7953.53104546158580724510753294485610,7952.0,1.53104546158580724510753294485610
142,8066.73246893317692128026915590661946,8065.2,1.53246893317692128026915590661946
143,8180.73388240828013299097738615749174,8179.2,1.53388240828013299097738615749174
144,8295.53528602637232372057241989091123,8294.0,1.53528602637232372057241989091123
145,8411.13667992403104352360590350759565,8409.6,1.53667992403104352360590350759565
146,8527.53806423501433310019280171762528,8526.0,1.53806423501433310019280171762528
147,8644.73943909033781526692154160295174,8643.2,1.53943909033781526692154160295174
148,8762.74080461834917129332889494482610,8761.2,1.54080461834917129332889494482610
149,8881.54216094480010390487193159904111,8880.0,1.54216094480010390487193159904111
150,9001.14350819291589059325203164350769,8999.6,1.54350819291589059325203164350769
151,9121.54484648346262314832256541182869,9120.0,1.54484648346262314832256541182869
152,9242.74617593481222371072667264223690,9241.2,1.54617593481222371072667264223690
153,9364.74749666300532629493545550143133,9363.2,1.54749666300532629493545550143133
154,9487.54880878181210768190452611418230,9486.0,1.54880878181210768190452611418230
155,9611.15011240279114591731738355276920,9609.6,1.55011240279114591731738355276920
156,9735.55140763534638428175404463347243,9734.0,1.55140763534638428175404463347243
157,9860.75269458678227177936296130532251,9859.2,1.55269458678227177936296130532251
158,9986.75397336235715196311234142727024,9985.2,1.55397336235715196311234142727024
159,10113.5552440653349637694286520459729,10112.0,1.5552440653349637694286520459729
160,10241.1565067970353206997345315299422,10239.6,1.5565067970353206997345315299422
161,10369.5577616568820268449796155161266,10368.0,1.5577616568820268449796155161266
162,10498.7590087424500892142382092171995,10497.2,1.5590087424500892142382092171995
163,10628.7602481495112812206454897277784,10627.2,1.5602481495112812206454897277784
164,10759.5614799720783119612401360527572,10758.0,1.5614799720783119612401360527572
165,10891.1627043024476498909034082301505,10889.6,1.5627043024476498909034082301505
166,11023.5639212312410514059560724541379,11022.0,1.5639212312410514059560724541379
167,11156.7651308474458415697052497150010,11155.2,1.5651308474458415697052497150010
168,11290.7663332384539896688275678249441,11289.2,1.5663332384539896688275678249441
169,11425.5675284901000246626515078606273,11424.0,1.5675284901000246626515078606273
170,11561.1687166866978302684278785050185,11559.6,1.5687166866978302684278785050185
171,11697.5698979110763598770214609828152,11696.0,1.5698979110763598770214609828152
172,11834.7710722446143091656548300484545,11833.2,1.5710722446143091656548300484545
173,11972.7722397672737818100076193907419,11971.2,1.5722397672737818100076193907419
174,12111.5734005576329841391582238563282,12110.0,1.5734005576329841391582238563282
175,12251.1745546929179827182736404399748,12249.6,1.5745546929179827182736404399748
176,12391.5757022490335545653730414220235,12390.0,1.5757022490335545653730414220235
177,12532.7768433005931632626754726601832,12531.2,1.5768433005931632626754726601832
178,12674.7779779209480901169005950846228,12673.2,1.5779779209480901169005950846228
179,12817.5791061822157468134411913933690,12816.0,1.5791061822157468134411913933690
180,12961.1802281553072005107792163578291,12959.6,1.5802281553072005107792163578291
181,13105.5813439099539340237043140714535,13104.0,1.5813439099539340237043140714535
182,13250.7824535147338687906930984318025,13249.2,1.5824535147338687906930984318025
183,13396.7835570370966736746959177065580,13395.2,1.5835570370966736746959177065580
184,13543.5846545433883838388399911351084,13542.0,1.5846545433883838388399911351084
185,13691.1857460988753515051451690175596,13689.6,1.5857460988753515051451690175596
186,13839.5868317677675495648439091815752,13838.0,1.5868317677675495648439091815752
187,13988.7879116132412518407761798013172,13987.2,1.5879116132412518407761798013172
188,14138.7889856974611054381457470934636,14137.2,1.5889856974611054381457470934636
189,14289.5900540816016189146983555222042,14288.0,1.5900540816016189146983555222042
190,14441.1911168258680819213686943850357,14439.6,1.5911168258680819213686943850357
191,14593.5921739895169355359170908084583,14592.0,1.5921739895169355359170908084583
192,14746.7932256308756096717274246480138,14745.2,1.5932256308756096717274246480138
193,14900.7942718073618458655818615351813,14899.2,1.5942718073618458655818615351813
194,15055.5953125755025187851625661014655,15054.0,1.5953125755025187851625661014655
195,15211.1963479909519743886055606549204,15209.6,1.5963479909519743886055606549204
196,15367.5973781085098984279731385678077,15366.0,1.5973781085098984279731385678077
197,15524.7984029821387296719314186404030,15523.2,1.5984029821387296719314186404030
198,15682.7994226649806320095777569773347,15681.2,1.5994226649806320095777569773347
199,15841.6004372093740382692371255207845,15840.0,1.6004372093740382692371255207845
200,16001.2014466668697796923919839722277,15999.6,1.6014466668697796923919839722277
201,16161.6024510882468120391280185117096,16160.0,1.6024510882468120391280185117096
202,16322.8034505235275517012110552795060,16321.2,1.6034505235275517012110552795060
203,16484.8044450219928324774805324449676,16483.2,1.6044450219928324774805324449676
204,16647.6054346321964946264251367428798,16646.0,1.6054346321964946264251367428798
205,16811.2064194019796161612561302954801,16809.6,1.6064194019796161612561302954801
206,16975.6073993784843994061795377067327,16974.0,1.6073993784843994061795377067327
207,17140.8083746081677186844961707394510,17139.2,1.6083746081677186844961707394510
208,17306.8093451368143433599384476190756,17305.2,1.6093451368143433599384476190756
209,17473.6103110095498419740752902842980,17472.0,1.6103110095498419740752902842980
210,17641.2112722708531789753884152251460,17639.6,1.6112722708531789753884152251460
211,17809.6122289645690113989803489461363,17808.0,1.6122289645690113989803489461363
212,17978.8131811339196957240404238363653,17977.2,1.6131811339196957240404238363653
213,18148.8141288215170092869610386040798,18147.2,1.6141288215170092869610386040798
214,18319.6150720693736012257916655894973,18318.0,1.6150720693736012257916655894973
215,18491.2160109189141721622599041142880,18489.6,1.6160109189141721622599041142880
216,18663.6169454109863965758140884161476,18662.0,1.6169454109863965758140884161476
217,18836.8178755858715918287274620694187,18835.2,1.6178755858715918287274620694187
218,19010.8188014832951428147111228736670,19009.2,1.6188014832951428147111228736670
219,19185.6197231424366855039692583023317,19184.0,1.6197231424366855039692583023317
220,19361.2206406019400618928215178606334,19359.6,1.6206406019400618928215178606334
221,19537.6215538999230442601799075890320,19536.0,1.6215538999230442601799075890320
222,19714.8224630739868459282427517024590,19713.2,1.6224630739868459282427517024590
223,19892.8233681612254120882342641927065,19891.2,1.6233681612254120882342641927065
224,20071.6242691982345057504847860293327,20070.0,1.6242691982345057504847860293327
225,20251.2251662211205913753916934076689,20249.6,1.6251662211205913753916934076689
226,20431.6260592655095197231985569553620,20430.0,1.6260592655095197231985569553620
227,20612.8269483665550225654360613906835,20611.2,1.6269483665550225654360613906835
228,20794.8278335589470190682214403129012,20793.2,1.6278335589470190682214403129012
229,20977.6287148769197409995562533998395,20976.0,1.6287148769197409995562533998395
230,21161.2295923542596814468563298451818,21159.6,1.6295923542596814468563298451818
231,21345.6304660243133688339734972131730,21344.0,1.6304660243133688339734972131730
232,21530.8313359199949766466185868632252,21529.2,1.6313359199949766466185868632252
233,21716.8322020737937638516794847248460,21715.2,1.6322020737937638516794847248460
234,21903.6330645177813621564888865898637,21902.0,1.6330645177813621564888865898637
235,22091.2339232836189032791306064386965,22089.6,1.6339232836189032791306064386965
236,22279.6347784025639959285413363001142,22278.0,1.6347784025639959285413363001142
237,22468.8356299054775561145235820508361,22467.2,1.6356299054775561145235820508361
238,22658.8364778228304925186687080124534,22657.2,1.6364778228304925186687080124534
