Eigenstate,Energy,Kinetic Energy,Potential Energy
1,0.500000000033844220004517476577140369,0.0,0.500000000033844220004517476577140369
2,1.84623093787203199325346308833175332,1.2,0.64623093787203199325346308833175332
3,3.93633761035390217477834558218276324,3.2,0.73633761035390217477834558218276324
4,6.79966527916587764104153318454114165,6.0,0.79966527916587764104153318454114165
5,10.4480465776269986526218685396696562,9.6,0.8480465776269986526218685396696562
6,14.8870660004932263378412521147584594,14.0,0.8870660004932263378412521147584594
7,20.1197208292033383976836650317540407,19.2,0.9197208292033383976836650317540407
8,26.1477838501346052844659149819861383,25.2,0.9477838501346052844659149819861383
9,32.9723835622934992905908434601003829,32.0,0.9723835622934992905908434601003829
10,40.5942802198287178404194993713958452,39.6,0.9942802198287178404194993713958452
11,49.0140093928813881406327869419864486,48.0,1.0140093928813881406327869419864486
12,58.2319621767562067283194859886827438,57.2,1.0319621767562067283194859886827438
13,68.2484327015190355789928523418291008,67.2,1.0484327015190355789928523418291008
14,79.0636476648530661148627175491119069,78.0,1.0636476648530661148627175491119069
15,90.6777854478730055855117997945247777,89.6,1.0777854478730055855117997945247777
16,103.090988919995523139458087330712685,102.0,1.090988919995523139458087330712685
17,116.303374272400754913483892362357893,115.2,1.103374272400754913483892362357893
18,130.315037269038504088537847432614889,129.2,1.115037269038504088537847432614889
19,145.126057769732218983151752587066946,144.0,1.126057769732218983151752587066946
20,160.736503067812929877093241553785456,159.6,1.136503067812929877093241553785456
21,177.146430396200946493594814809454325,176.0,1.146430396200946493594814809454325
22,194.355888838564598374689908891878677,193.2,1.155888838564598374689908891878677
23,212.364920807256759729866154541751678,211.2,1.164920807256759729866154541751678
24,231.173563200715271750714901976283719,230.0,1.173563200715271750714901976283719
25,250.781848320258869128580042574958195,249.6,1.181848320258869128580042574958195
26,271.189804603894767908322248642089744,270.0,1.189804603894767908322248642089744
27,292.397457219281241409078483737289861,291.2,1.197457219281241409078483737289861
28,314.404828547086660133038323413838456,313.2,1.204828547086660133038323413838456
29,337.211938578191443761232755334956120,336.0,1.211938578191443761232755334956120
30,360.818805242529885765659670829027326,359.6,1.218805242529885765659670829027326
31,385.225444683222872666722200596845163,384.0,1.225444683222872666722200596845163
32,410.431871486574620380038397969963900,409.2,1.231871486574620380038397969963900
33,436.438098876196902292416301554333949,435.2,1.238098876196902292416301554333949
34,463.244138877773697440542851478032582,462.0,1.244138877773697440542851478032582
35,490.850002459639992100180802956942027,489.6,1.250002459639992100180802956942027
36,519.255699653314989215088408251978661,518.0,1.255699653314989215088408251978661
37,548.461239657325895546346287496433673,547.2,1.261239657325895546346287496433673
38,578.466630927028037679630358389483473,577.2,1.266630927028037679630358389483473
39,609.271881252629209378452426517249528,608.0,1.271881252629209378452426517249528
40,640.876997827230331987848143239781775,639.6,1.276997827230331987848143239781775
41,673.281987306377759319275634699193533,672.0,1.281987306377759319275634699193533
42,706.486855860367565845987933697173500,705.2,1.286855860367565845987933697173500
43,740.491609220335670693231424328343641,739.2,1.291609220335670693231424328343641
44,775.296252718999555892123782393493628,774.0,1.296252718999555892123782393493628
45,810.900791326779767797073180509521601,809.6,1.300791326779767797073180509521601
46,847.305229683916254284012127569944941,846.0,1.305229683916254284012127569944941
47,884.509572129101113734392545462475658,883.2,1.309572129101113734392545462475658
48,922.513822725071745445644935800324089,921.2,1.313822725071745445644935800324089
49,961.317985281543728564911804197729094,960.0,1.317985281543728564911804197729094
50,1000.92206337580863392921566780893755,999.6,1.32206337580863392921566780893755
51,1041.32606037127650623275245526148748,1040.0,1.32606037127650623275245526148748
52,1082.52997943420440872770422507350366,1081.2,1.32997943420440872770422507350366
53,1124.53382354881997254642132680411818,1123.2,1.33382354881997254642132680411818
54,1167.33759553102133160136988635451801,1166.0,1.33759553102133160136988635451801
55,1210.94129804081134852673026742613558,1209.6,1.34129804081134852673026742613558
56,1255.34493359360396255540840869568693,1254.0,1.34493359360396255540840869568693
57,1300.54850457052329126010411103650178,1299.2,1.34850457052329126010411103650178
58,1346.55201322780132090079054517917727,1345.2,1.35201322780132090079054517917727
59,1393.35546170536726617368487981335748,1392.0,1.35546170536726617368487981335748
60,1440.95885203471065564908858529327002,1439.6,1.35885203471065564908858529327002
61,1489.36218614609063495797200533740302,1488.0,1.36218614609063495797200533740302
62,1538.56546587515567878206496042544695,1537.2,1.36546587515567878206496042544695
63,1588.56869296903066081319506967367624,1587.2,1.36869296903066081319506967367624
64,1639.37186909192191836769385019895995,1638.0,1.37186909192191836769385019895995
65,1690.97499583028541350171822392401841,1689.6,1.37499583028541350171822392401841
66,1743.37807469759824513428131695953400,1742.0,1.37807469759824513428131695953400
67,1796.58110713876950439346087331778024,1795.2,1.38110713876950439346087331778024
68,1850.58409453422270924044533756987215,1849.2,1.38409453422270924044533756987215
69,1905.38703820367874175535107608251504,1904.0,1.38703820367874175535107608251504
70,1960.98993940966528320048028724884404,1959.6,1.38993940966528320048028724884404
71,2017.39279936077614327295830371938758,2016.0,1.39279936077614327295830371938758
72,2074.59561921470158171630911150145979,2073.2,1.39561921470158171630911150145979
73,2132.59840008104866745412466773197149,2131.2,1.39840008104866745412466773197149
74,2191.40114302396890156043081416248557,2190.0,1.40114302396890156043081416248557
75,2251.00384906460869928024968702047918,2249.6,1.40384906460869928024968702047918
76,2311.40651918339687675710326136140861,2310.0,1.40651918339687675710326136140861
77,2372.60915432218198572578466721498272,2371.2,1.40915432218198572578466721498272
78,2434.61175538623117363054370321693451,2433.2,1.41175538623117363054370321693451
79,2497.41432324610119980884074892307999,2496.0,1.41432324610119980884074892307999
80,2561.01685873939130025517880037628084,2559.6,1.41685873939130025517880037628084
81,2625.41936267238674413804684717430912,2624.0,1.41936267238674413804684717430912
82,2690.62183582160116379245417504750353,2689.2,1.42183582160116379245417504750353
83,2756.62427893522505117674557090855163,2755.2,1.42427893522505117674557090855163
84,2823.42669273448718949067125842643601,2822.0,1.42669273448718949067125842643601
85,2891.02907791493522937551169403647889,2889.6,1.42907791493522937551169403647889
86,2959.43143514764110325166798662546443,2958.0,1.43143514764110325166798662546443
87,3028.63376508033651387832890178297851,3027.2,1.43376508033651387832890178297851
88,3098.63606833848330984208960295802735,3097.2,1.43606833848330984208960295802735
89,3169.43834552628317717923582299375203,3168.0,1.43834552628317717923582299375203
90,3241.04059722763073311967785540248551,3239.6,1.44059722763073311967785540248551
91,3313.44282400701378648846808053586520,3312.0,1.44282400701378648846808053586520
92,3386.64502641036424100329651982382638,3385.2,1.44502641036424100329651982382638
93,3460.64720496586285545130336432537610,3459.2,1.44720496586285545130336432537610
94,3535.44936018470083179980924101900715,3534.0,1.44936018470083179980924101900715
95,3611.05149256180098114153501132361007,3609.6,1.45149256180098114153501132361007
96,3687.45360257650101555276638111410753,3686.0,1.45360257650101555276638111410753
97,3764.65569069320132960080912771362665,3763.2,1.45569069320132960080912771362665
98,3842.65775736197946236278583910537374,3841.2,1.45775736197946236278583910537374
99,3921.45980301917327734563615543572587,3920.0,1.45980301917327734563615543572587
100,4001.06182808793475135676620935962626,3999.6,1.46182808793475135676620935962626
101,4081.46383297875613407063864587808871,4080.0,1.46383297875613407063864587808871
102,4162.66581808997011446187343160851398,4161.2,1.46581808997011446187343160851398
103,4244.66778380822552236181676560461585,4243.2,1.46778380822552236181676560461585
104,4327.46973050893998613082513203246784,4326.0,1.46973050893998613082513203246784
105,4411.07165855673087436475440409606638,4409.6,1.47165855673087436475440409606638
106,4495.47356830582575878990041341691978,4494.0,1.47356830582575878990041341691978
107,4580.67546010045355741868185228455322,4579.2,1.47546010045355741868185228455322
108,4666.67733427521743779880201861371669,4665.2,1.47733427521743779880201861371669
109,4753.47919115545049159509182713309927,4752.0,1.47919115545049159509182713309927
110,4841.08103105755512932311132414771714,4839.6,1.48103105755512932311132414771714
111,4929.48285428932707819238853183073766,4928.0,1.48285428932707819238853183073766
112,5018.68466115026481658354093232426004,5017.2,1.48466115026481658354093232426004
113,5108.68645193186522314773080655718229,5107.2,1.48645193186522314773080655718229
114,5199.48822691790616975914937134899568,5198.0,1.48822691790616975914937134899568
115,5291.08998638471674710272203047422630,5289.6,1.48998638471674710272203047422630
116,5383.49173060143576334757886338728488,5382.0,1.49173060143576334757886338728488
117,5476.69345983025912464382770934000872,5475.2,1.49345983025912464382770934000872
118,5570.69517432667666514906167263291531,5569.2,1.49517432667666514906167263291531
119,5665.49687433969896057731650177848209,5664.0,1.49687433969896057731650177848209
120,5761.09856011207463342095842922514484,5759.6,1.49856011207463342095842922514484
121,5857.50023188049861972873873500724194,5856.0,1.50023188049861972873873500724194
122,5954.70188987581184841011859602889875,5953.2,1.50188987581184841011859602889875
123,6052.70353432319275184303575227888539,6051.2,1.50353432319275184303575227888539
124,6151.50516544234100888247583358168639,6150.0,1.50516544234100888247583358168639
125,6251.10678344765389180094816166313967,6249.6,1.50678344765389180094816166313967
126,6351.50838854839557349466829188536403,6350.0,1.50838854839557349466829188536403
127,6452.70998094885973071136304651777373,6451.2,1.50998094885973071136304651777373
128,6554.71156084852575646842414693363761,6553.2,1.51156084852575646842414693363761
129,6657.51312844220888275689812931238242,6656.0,1.51312844220888275689812931238242
130,6761.11468392020449624493326710785643,6759.6,1.51468392020449624493326710785643
131,6865.51622746842691429018597934497308,6864.0,1.51622746842691429018597934497308
132,6970.71775926854287359348859640842658,6969.2,1.51775926854287359348859640842658
133,7076.71927949809997204449603943921174,7075.2,1.51927949809997204449603943921174
134,7183.52078833065029303407060262209333,7182.0,1.52078833065029303407060262209333
135,7291.12228593586942339982126261888778,7289.6,1.52228593586942339982126261888778
136,7399.52377247967107248368345932007525,7398.0,1.52377247967107248368345932007525
137,7508.72524812431748647248215405877879,7507.2,1.52524812431748647248215405877879
138,7618.72671302852583858042994115044832,7617.2,1.52671302852583858042994115044832
139,7729.52816734757077352660661082322177,7728.0,1.52816734757077352660661082322177
140,7841.12961123338326931449829382632814,7839.6,1.52961123338326931449829382632814
141,7953.53104483464597476318419776890440,7952.0,1.53104483464597476318419776890440
142,8066.73246829688517316649220947097571,8065.2,1.53246829688517316649220947097571
143,8180.73388176255951380627496637064451,8179.2,1.53388176255951380627496637064451
144,8295.53528537114564586632135631280767,8294.0,1.53528537114564586632135631280767
145,8411.13667925922088510565909173884836,8409.6,1.53667925922088510565909173884836
146,8527.53806356054303578125320852005218,8526.0,1.53806356054303578125320852005218
147,8644.73943840612748210713935677385056,8643.2,1.53943840612748210713935677385056
148,8762.74080392432166457899727731252827,8761.2,1.54080392432166457899727731252827
149,8881.54216024087704296509582367703361,8880.0,1.54216024087704296509582367703361
150,9001.14350747901864960446347054038425,8999.6,1.54350747901864960446347054038425
151,9121.54484575951232892651471041299336,9120.0,1.54484575951232892651471041299336
152,9242.74617520072975349127784090709021,9241.2,1.54617520072975349127784090709021
153,9364.74749591871130549989329976905463,9363.2,1.54749591871130549989329976905463
154,9487.54880802722690767459937642068106,9486.0,1.54880802722690767459937642068106
155,9611.15011163783488174417265718681694,9609.6,1.55011163783488174417265718681694
156,9735.55140685993891240116048480606225,9734.0,1.55140685993891240116048480606225
157,9860.75269380084318777748234374973769,9859.2,1.55269380084318777748234374973769
158,9986.75397256580578825647508607297670,9985.2,1.55397256580578825647508607297670
159,10113.5552432580903872941886384536641,10112.0,1.5552432580903872941886384536641
160,10241.1565059790163305874432214985091,10239.6,1.5565059790163305874432214985091
161,10369.5577608280071520847403192244878,10368.0,1.5577608280071520847403192244878
162,10498.7590079026375863011001572825211,10497.2,1.5590079026375863011001572825211
163,10628.7602472986791317900962107320487,10627.2,1.5602472986791317900962107320487
164,10759.5614791101442204096532369408831,10758.0,1.5614791101442204096532369408831
165,10891.1627034293290409817977036825561,10889.6,1.5627034293290409817977036825561
166,11023.5639203468550678619206735914201,11022.0,1.5639203468550678619206735914201
167,11156.7651299517093416498439758056885,11155.2,1.5651299517093416498439758056885
168,11290.7663323312835447315746472568405,11289.2,1.5663323312835447315746472568405
169,11425.5675275714119167138093557250585,11424.0,1.5675275714119167138093557250585
170,11561.1687157564080494942761900327517,11559.6,1.5687157564080494942761900327517
171,11697.5698969691006021623456730580289,11696.0,1.5698969691006021623456730580289
172,11834.7710712908679735965405475149668,11833.2,1.5710712908679735965405475149668
173,11972.7722388016719681612462242826639,11971.2,1.5722388016719681612462242826639
174,12111.5733995800904903461074852797651,12110.0,1.5733995800904903461074852797651
175,12251.1745537033493023330156763215338,12249.6,1.5745537033493023330156763215338
176,12391.5757012473528741970106390405927,12390.0,1.5757012473528741970106390405927
177,12532.7768422867143600016061172818649,12531.2,1.5768422867143600016061172818649
178,12674.7779768947847289429063328637269,12673.2,1.5779768947847289429063328637269
179,12817.5791051436810779874307272550735,12816.0,1.5791051436810779874307272550735
180,12961.1802271043141569500172712586395,12959.6,1.5802271043141569500172712586395
181,13105.5813428464151286603616755510997,13104.0,1.5813428464151286603616755510997
182,13250.7824524385615919135492404080923,13249.2,1.5824524385615919135492404080923
183,13396.7835559482028902538245594612877,13395.2,1.5835559482028902538245594612877
184,13543.5846534416847308331062792551331,13542.0,1.5846534416847308331062792551331
185,13691.1857449842731351523415385448025,13689.6,1.5857449842731351523415385448025
186,13839.5868306401777426542902957918910,13838.0,1.5868306401777426542902957918910
187,13988.7879104725744909682082174511012,13987.2,1.5879104725744909682082174511012
188,14138.7889845436276882427132595023825,14137.2,1.5889845436276882427132595023825
189,14289.5900529145115012978945401498564,14288.0,1.5900529145115012978945401498564
190,14441.1911156454308752477088152805408,14439.6,1.5911156454308752477088152805408
191,14593.5921727956419038151836845305853,14592.0,1.5921727956419038151836845305853
192,14746.7932244234716667225973120568074,14745.2,1.5932244234716667225973120568074
193,14900.7942705863375524604485004506621,14899.2,1.5942705863375524604485004506621
194,15055.5953113407660797759653752617606,15054.0,1.5953113407660797759653752617606
195,15211.1963467424112358134762401247755,15209.6,1.5963467424112358134762401247755
196,15367.5973768460723445985069091658803,15366.0,1.5973768460723445985069091658803
197,15524.7984017057114802408894952483925,15523.2,1.5984017057114802408894952483925
198,15682.7994213744704390188252610520398,15681.2,1.5994213744704390188252610520398
199,15841.6004359046872831777189205235061,15840.0,1.6004359046872831777189205235061
200,16001.2014453479124703839468303323939,15999.6,1.6014453479124703839468303323939
201,16161.6024497549245798099396433683254,16160.0,1.6024497549245798099396433683254
202,16322.8034491757456482266925879796102,16321.2,1.6034491757456482266925879796102
203,16484.8044436596561267583869154896039,16483.2,1.6044436596561267583869154896039
204,16647.6054332552094699139859666669315,16646.0,1.6054332552094699139859666669315
205,16811.2064180102463668611194240247208,16809.6,1.6064180102463668611194240247208
206,16975.6073979719086279609547349578074,16974.0,1.6073979719086279609547349578074
207,17140.8083731866527324346827532987155,17139.2,1.6083731866527324346827532987155
208,17306.8093437002630513830241728675904,17305.2,1.6093437002630513830241728675904
209,17473.6103095578647519015862033011528,17472.0,1.6103095578647519015862033011528
210,17641.2112708039363937876702924430173,17639.6,1.6112708039363937876702924430173
211,17809.6122274823222261974892416754962,17808.0,1.6122274823222261974892416754962
212,17978.8131796362441944809176943794541,17977.2,1.6131796362441944809176943794541
213,18148.8141273083136615716658940145987,18147.2,1.6141273083136615716658940145987
214,18319.6150705405428589085621599868886,18318.0,1.6150705405428589085621599868886
215,18491.2160093743560660941706685221599,18489.6,1.6160093743560660941706685221599
216,18663.6169438506005332451971551024026,18662.0,1.6169438506005332451971551024026
217,18836.8178740095571499937198361634708,18835.2,1.6178740095571499937198361634708
218,19010.8187998909508701116904985635089,19009.2,1.6187998909508701116904985635089
219,19185.6197215339608950316367205668871,19184.0,1.6197215339608950316367205668871
220,19361.2206389772306287716878178028449,19359.6,1.6206389772306287716878178028449
221,19537.6215522588774021672091752496474,19536.0,1.6215522588774021672091752496474
222,19714.8224614165019836064051351749131,19713.2,1.6224614165019836064051351749131
223,19892.8233664871978698307162983107090,19891.2,1.6233664871978698307162983107090
224,20071.6242675075603718593038375479556,20070.0,1.6242675075603718593038375479556
225,20251.2251645136954985941581193518131,20249.6,1.6251645136954985941581193518131
226,20431.6260575412286416437665201783216,20430.0,1.6260575412286416437665201783216
227,20612.8269466253130700081815235898108,20611.2,1.6269466253130700081815235898108
228,20794.8278318006382364356825675292155,20793.2,1.6278318006382364356825675292155
229,20977.6287131014379026031694097613240,20976.0,1.6287131014379026031694097613240
230,21161.2295905614980878065175629216291,21159.6,1.6295905614980878065175629216291
231,21345.6304642141648429501526258906114,21344.0,1.6304642141648429501526258906114
232,21530.8313340923518602447504439321240,21529.2,1.6313340923518602447504439321240
233,21716.8322002285479135985536443119421,21715.2,1.6322002285479135985536443119421
234,21903.6330626548241458483564754593529,21902.0,1.6330626548241458483564754593529
235,22091.2339214028411960012436396869605,22089.6,1.6339214028411960012436396869605
236,22279.6347765038561761858372471038827,22278.0,1.6347765038561761858372471038827
237,22468.8356279887295019331643503975857,22467.2,1.6356279887295019331643503975857
238,22658.8364758879315775181410838086790,22657.2,1.6364758879315775181410838086790
