Eigenstate,Energy,Kinetic Energy,Potential Energy
1,0.500000000286209354812643043257329630,0.0,0.500000000286209354812643043257329630
2,1.84623093951935880522270058705529470,1.2,0.64623093951935880522270058705529470
3,3.93633761519287718349639030318340529,3.2,0.73633761519287718349639030318340529
4,6.79966528924515381695439319618939463,6.0,0.79966528924515381695439319618939463
5,10.4480465950869056528144257715190457,9.6,0.8480465950869056528144257715190457
6,14.8870660275118933237857920225586348,14.0,0.8870660275118933237857920225586348
7,20.1197208679768960392830665904891110,19.2,0.9197208679768960392830665904891110
8,26.1477839028689783928678553903292246,25.2,0.9477839028689783928678553903292246
9,32.9723836312006356301034635523335208,32.0,0.9723836312006356301034635523335208
10,40.5942803071247158082191448724670755,39.6,0.9942803071247158082191448724670755
11,49.0140095007855184244076706420421158,48.0,1.0140095007855184244076706420421158
12,58.2319623074903895999568734387281479,57.2,1.0319623074903895999568734387281479
13,68.2484328573075663178642794285689444,67.2,1.0484328573075663178642794285689444
14,79.0636478479224833110074294076397405,78.0,1.0636478479224833110074294076397405
15,90.6777856604520457217758699656593669,89.6,1.0777856604520457217758699656593669
16,103.090989164315129453279298006185039,102.0,1.090989164315129453279298006185039
17,116.303374550694121651495705620560460,115.2,1.103374550694121651495705620560460
18,130.315037583541144582114597381424380,129.2,1.115037583541144582114597381424380
19,145.126058122682050219698300717960564,144.0,1.126058122682050219698300717960564
20,160.736503461450368795343275792135774,159.6,1.136503461450368795343275792135774
21,177.146430832769014815039456218494658,176.0,1.146430832769014815039456218494658
22,194.355889320309033793318828340248293,193.2,1.155889320309033793318828340248293
23,212.364921336426131942761113125383652,211.2,1.164921336426131942761113125383652
24,231.173563779561102253551540546137237,230.0,1.173563779561102253551540546137237
25,250.781848951035754001347404454194604,249.6,1.181848951035754001347404454194604
26,271.189805288860503025952083442870517,270.0,1.189805288860503025952083442870517
27,292.397457960696949659683178566366618,291.2,1.197457960696949659683178566366618
28,314.404829347216920332711267484781724,313.2,1.204829347216920332711267484781724
29,337.211939439304421031742367594444529,336.0,1.211939439304421031742367594444529
30,360.818806166897463198464983663862847,359.6,1.218806166897463198464983663862847
31,385.225445673120784139389314392851485,384.0,1.225445673120784139389314392851485
32,410.431872544282584423363682625323800,409.2,1.231872544282584423363682625323800
33,436.438100003998756931174735940987285,435.2,1.238100003998756931174735940987285
34,463.244140077957535949766862898648926,462.0,1.244140077957535949766862898648926
35,490.850003734498299633663431454365885,489.6,1.250003734498299633663431454365885
36,519.255701005144780274426714771559646,518.0,1.255701005144780274426714771559646
37,548.461241088428852268055434957120571,547.2,1.261241088428852268055434957120571
38,578.466632439710648925224726876092051,577.2,1.266632439710648925224726876092051
39,609.271882849202910618326844181012007,608.0,1.271882849202910618326844181012007
40,640.876999510011645974615095015563295,639.6,1.276999510011645974615095015563295
41,673.281989077688437550162543674898076,672.0,1.281989077688437550162543674898076
42,706.486857722534730817156617061535268,705.2,1.286857722534730817156617061535268
43,740.491611175691958951590686794165036,739.2,1.291611175691958951590686794165036
44,775.296254769883261892476030233555089,774.0,1.296254769883261892476030233555089
45,810.900793475534988574353506490019264,809.6,1.300793475534988574353506490019264
46,847.305231932893034952011264144884401,846.0,1.305231932893034952011264144884401
47,884.509574480655593823756488447704409,883.2,1.309574480655593823756488447704409
48,922.513825181566306095158165731772137,921.2,1.313825181566306095158165731772137
49,961.317987845347140581130718228175679,960.0,1.317987845347140581130718228175679
50,1000.92206604929620673045255360399345,999.6,1.32206604929620673045255360399345
51,1041.32606315683023769424093075490334,1040.0,1.32606315683023769424093075490334
52,1082.52998233421313594552157120181537,1081.2,1.32998233421313594552157120181537
53,1124.53382656567952353841732948819216,1123.2,1.33382656567952353841732948819216
54,1167.33759866713467796396808548398605,1166.0,1.33759866713467796396808548398605
55,1210.94130129858875906703525948477944,1209.6,1.34130129858875906703525948477944
56,1255.34493697546315791858113722792508,1254.0,1.34493697546315791858113722792508
57,1300.54850807888959957246199745872506,1299.2,1.34850807888959957246199745872506
58,1346.55201686510783444955894767710900,1345.2,1.35201686510783444955894767710900
59,1393.35546547405499914477163489640690,1392.0,1.35546547405499914477163489640690
60,1440.95885593722870294468272467344181,1439.6,1.35885593722870294468272467344181
61,1489.36219018489633211618178220944185,1488.0,1.36219018489633211618178220944185
62,1538.56547005271476302121367957319343,1537.2,1.36547005271476302121367957319343
63,1588.56869728781743322378653309736622,1587.2,1.36869728781743322378653309736622
64,1639.37187355441940727544683789641565,1638.0,1.37187355441940727544683789641565
65,1690.97500043898553902545273616866384,1689.6,1.37500043898553902545273616866384
66,1743.37807945500198496281777975583910,1742.0,1.37807945500198496281777975583910
67,1796.58111204738706080607183861708828,1795.2,1.38111204738706080607183861708828
68,1850.58409959657367739577585269837139,1849.2,1.38409959657367739577585269837139
69,1905.38704342229227927410306797435111,1904.0,1.38704342229227927410306797435111
70,1960.98994478708028106753339210268285,1959.6,1.38994478708028106753339210268285
71,2017.39280489954139808498388638132816,2016.0,1.39280489954139808498388638132816
72,2074.59562491737596930131664517038934,2073.2,1.39562491737596930131664517038934
73,2132.59840595020131788977061656165784,2131.2,1.39840595020131788977061656165784
74,2191.40114906217937561831172907681670,2190.0,1.40114906217937561831172907681670
75,2251.00385527446716632380067491536639,2249.6,1.40385527446716632380067491536639
76,2311.40652556750429412112554304778226,2310.0,1.40652556750429412112554304778226
77,2372.60916088315027960603676723665795,2371.2,1.40916088315027960603676723665795
78,2434.61176212668342151224673745630114,2433.2,1.41176212668342151224673745630114
79,2497.41433016867181446337150236360147,2496.0,1.41433016867181446337150236360147
80,2561.01686584672621533465411018403027,2559.6,1.41686584672621533465411018403027
81,2625.41936996714360139794191382457303,2624.0,1.41936996714360139794191382457303
82,2690.62184330644950197284247692108635,2689.2,1.42184330644950197284247692108635
83,2756.62428661284649657320277809222683,2755.2,1.42428661284649657320277809222683
84,2823.42670060757564824634871583536104,2822.0,1.42670060757564824634871583536104
85,2891.02908598619708152635670865368804,2889.6,1.42908598619708152635670865368804
86,2959.43144341979539855724913270560004,2958.0,1.43144341979539855724913270560004
87,3028.63377355611516947121616066902063,3027.2,1.43377355611516947121616066902063
88,3098.63607702063130972923911982711300,3097.2,1.43607702063130972923911982711300
89,3169.43835441755877362933996810378228,3168.0,1.43835441755877362933996810378228
90,3241.04060633080564997096263006991501,3239.6,1.44060633080564997096263006991501
91,3313.44283332487342441195236473672469,3312.0,1.44283332487342441195236473672469
92,3386.64503594570788475706979955365665,3385.2,1.44503594570788475706979955365665
93,3460.64721472150388316193400221804991,3459.2,1.44721472150388316193400221804991
94,3535.44937016346692630756059079171812,3534.0,1.44937016346692630756059079171812
95,3611.05150276653434344664537006045003,3609.6,1.45150276653434344664537006045003
96,3687.45361301005858040063786993283972,3686.0,1.45361301005858040063786993283972
97,3764.65570135845498324455491929689830,3763.2,1.45570135845498324455491929689830
98,3842.65776826181626254219876213744229,3841.2,1.45776826181626254219876213744229
99,3921.45981415649567552227253385045510,3920.0,1.45981415649567552227253385045510
100,4001.06183946566081724547882361653750,3999.6,1.46183946566081724547882361653750
101,4081.46384459981978250855053951017252,4080.0,1.46384459981978250855053951017252
102,4162.66582995732133465645327981106249,4161.2,1.46582995732133465645327981106249
103,4244.66779592483060956040066080354042,4243.2,1.46779592483060956040066080354042
104,4327.46974287778177575463083116599363,4326.0,1.46974287778177575463083116599363
105,4411.07167118080897865114656380488609,4409.6,1.47167118080897865114656380488609
106,4495.47358118815680598739623527887344,4494.0,1.47358118815680598739623527887344
107,4580.67547324407143357993250744686486,4579.2,1.47547324407143357993250744686486
108,4666.67734768317353121754687857469257,4665.2,1.47734768317353121754687857469257
109,4753.47920483081393993386182046556030,4752.0,1.47920483081393993386182046556030
110,4841.08104500341306947925277219473471,4839.6,1.48104500341306947925277219473471
111,4929.48286850878489895079251114076111,4928.0,1.48286850878489895079251114076111
112,5018.68467564644641410529434402953693,5017.2,1.48467564644641410529434402953693
113,5108.68646670791325934475379785448432,5107.2,1.48646670791325934475379785448432
114,5199.48824197698233360575250343938913,5198.0,1.48824197698233360575250343938913
115,5291.09000173000201893590319151552941,5289.6,1.49000173000201893590319151552941
116,5383.49174623613068220878686160148745,5382.0,1.49174623613068220878686160148745
117,5476.69347575758405871584570095820659,5475.2,1.49347575758405871584570095820659
118,5570.69519054987208534261128185527966,5569.2,1.49519054987208534261128185527966
119,5665.49689086202571732295167236448214,5664.0,1.49689086202571732295167236448214
120,5761.09857693681423672280722290884627,5759.6,1.49857693681423672280722290884627
121,5857.50024901095352253766365318435240,5856.0,1.50024901095352253766365318435240
122,5954.70190731530573337490068263153308,5953.2,1.50190731530573337490068263153308
123,6052.70355207507082149924453739673447,6051.2,1.50355207507082149924453739673447
124,6151.50518350997027933976787883505026,6150.0,1.50518350997027933976787883505026
125,6251.10680183442348999064407667598518,6249.6,1.50680183442348999064407667598518
126,6351.50840725771703804058627004238258,6350.0,1.50840725771703804058627004238258
127,6452.70999998416731648804461195606056,6451.2,1.50999998416731648804461195606056
128,6554.71158021327674291206831287069636,6553.2,1.51158021327674291206831287069636
129,6657.51314813988388599552896889014692,6656.0,1.51314813988388599552896889014692
130,6761.11470395430778511556149381288953,6759.6,1.51470395430778511556149381288953
131,6865.51624784248673031198949605456542,6864.0,1.51624784248673031198949605456542
132,6970.71777998611175496733068229822547,6969.2,1.51777998611175496733068229822547
133,7076.71930056275508175041857217981100,7075.2,1.51930056275508175041857217981100
134,7183.52080974599375109975610799755028,7182.0,1.52080974599375109975610799755028
135,7291.12230770552864341439835161686746,7289.6,1.52230770552864341439835161686746
136,7399.52379460729910243266545867321878,7398.0,1.52379460729910243266545867321878
137,7508.72527061359335397107771180256857,7507.2,1.52527061359335397107771180256857
138,7618.72673588315490058394355468983505,7617.2,1.52673588315490058394355468983505
139,7729.52819057128507059816298439384944,7728.0,1.52819057128507059816298439384944
140,7841.12963482994188453187564249066608,7839.6,1.52963482994188453187564249066608
141,7953.53106880783539734812505075029143,7952.0,1.53106880783539734812505075029143
142,8066.73249265051966692148597368189410,8065.2,1.53249265051966692148597368189410
143,8180.73390650048149044546669196580783,8179.2,1.53390650048149044546669196580783
144,8295.53531049722604332890047935458982,8294.0,1.53531049722604332890047935458982
145,8411.13670477735955094182066539015450,8409.6,1.53670477735955094182066539015450
146,8527.53808947466911570260712685517211,8526.0,1.53808947466911570260712685517211
147,8644.73946472019981379526296887639219,8643.2,1.53946472019981379526296887639219
148,8762.74083064232917684769262119070537,8761.2,1.54083064232917684769262119070537
149,8881.54218736683916037382386400520132,8880.0,1.54218736683916037382386400520132
150,9001.14353501698570262237887692325144,8999.6,1.54353501698570262237887692325144
151,9121.54487371356596974853117575641527,9120.0,1.54487371356596974853117575641527
152,9242.74620357498337760963782216920047,9241.2,1.54620357498337760963782216920047
153,9364.74752471731047913681768395342155,9363.2,1.54752471731047913681768395342155
154,9487.54883725434980118373856130614299,9486.0,1.54883725434980118373856130614299
155,9611.15014129769270909078191379598472,9609.6,1.55014129769270909078191379598472
156,9735.55143695677637683317544416229557,9734.0,1.55143695677637683317544416229557
157,9860.75272433893893380197648853431912,9859.2,1.55272433893893380197648853431912
158,9986.75400354947286003834595143787998,9985.2,1.55400354947286003834595143787998
159,10113.5552746916766935963393442541541,10112.0,1.5552746916766935963393442541541
160,10241.1565378669051163742064489232231,10239.6,1.5565378669051163742064489232231
161,10369.5577931746174769128311929103255,10368.0,1.5577931746174769128311929103255
162,10498.7590407124248096249888183370745,10497.2,1.5590407124248096249888183370745
163,10628.7602805761354053113549679266035,10627.2,1.5602805761354053113549679266035
164,10759.5615128597989876025676649262498,10758.0,1.5615128597989876025676649262498
165,10891.1627376557495439303306939961621,10889.6,1.5627376557495439303306939961621
166,11023.5639550546468615459865436884063,11022.0,1.5639550546468615459865436884063
167,11156.7651651455168158217903168007740,11155.2,1.5651651455168158217903168007740
168,11290.7663680157904535267861810987243,11289.2,1.5663680157904535267861810987243
169,11425.5675637513419161424334794608731,11424.0,1.5675637513419161424334794608731
170,11561.1687524365252429642399500397877,11559.6,1.5687524365252429642399500397877
171,11697.5699341542100941870784137971126,11696.0,1.5699341542100941870784137971126
172,11834.7711089858164318441461408865928,11833.2,1.5711089858164318441461408865928
173,11972.7722770113481940052800183306869,11971.2,1.5722770113481940052800183306869
174,12111.5734383094259980816138121093532,12110.0,1.5734383094259980816138121093532
175,12251.1745929573189072250697987913715,12249.6,1.5745929573189072250697987913715
176,12391.5757410309752895326886600598990,12390.0,1.5757410309752895326886600598990
177,12532.7768826050528033200810833651027,12531.2,1.5768826050528033200810833651027
178,12674.7780177529475376222397118442154,12673.2,1.5780177529475376222397118442154
179,12817.5791465468223343706004431880402,12816.0,1.5791465468223343706004431880402
180,12961.1802690576343231967972197649159,12959.6,1.5802690576343231967972197649159
181,13105.5813853551616915158467242412476,13104.0,1.5813853551616915158467242412476
182,13250.7824955080297175884083054900678,13249.2,1.5824955080297175884083054900678
183,13396.7835995837360896157655476472212,13395.2,1.5835995837360896157655476472212
184,13543.5846976486755351135512207163510,13542.0,1.5846976486755351135512207163510
185,13691.1857897681637823769468623189419,13689.6,1.5857897681637823769468623189419
186,13839.5868760064608750106997396618522,13838.0,1.5868760064608750106997396618522
187,13988.7879564267938633293132455121497,13987.2,1.5879564267938633293132455121497
188,14138.7890310913788880687035311743745,14137.2,1.5890310913788880687035311743745
189,14289.5901000614426801455295328419188,14288.0,1.5901000614426801455295328419188
190,14441.1911633972434921205232208539540,14439.6,1.5911633972434921205232208539540
191,14593.5922211580914805937640854287219,14592.0,1.5922211580914805937640854287219
192,14746.7932734023685559196382470644434,14745.2,1.5932734023685559196382470644434
193,14900.7943201875477175510161699578232,14899.2,1.5943201875477175510161699578232
194,15055.5953615702118883592742993610053,15054.0,1.5953615702118883592742993610053
195,15211.1963976060722658685178736814933,15209.6,1.5963976060722658685178736814933
196,15367.5974283499862041020704413112557,15366.0,1.5974283499862041020704413112557
197,15524.7984538559746404228840576448616,15523.2,1.5984538559746404228840576448616
198,15682.7994741772390815363559973854036,15681.2,1.5994741772390815363559973854036
199,15841.6004893661781614960974238190346,15840.0,1.6004893661781614960974238190346
200,16001.2014994744037856597221173198145,15999.6,1.6014994744037856597221173198145
201,16161.6025045527568715781401868084306,16160.0,1.6025045527568715781401868084306
202,16322.8035046513227002017728030361586,16321.2,1.6035046513227002017728030361586
203,16484.8044998194458880658685001639147,16483.2,1.6044998194458880658685001639147
204,16647.6054901057449920775052844227694,16646.0,1.6054901057449920775052844227694
205,16811.2064755581267568775179047927924,16809.6,1.6064755581267568775179047927924
206,16975.6074562238000178042070733819661,16974.0,1.6074562238000178042070733819661
207,17140.8084321492892653378436873426486,17139.2,1.6084321492892653378436873426486
208,17306.8094033804478852559969410603335,17305.2,1.6094033804478852559969410603335
209,17473.6103699624710802513886747267252,17472.0,1.6103699624710802513886747267252
210,17641.2113319399084845169979112383498,17639.6,1.6113319399084845169979112383498
211,17809.6122893566764786667602447719215,17808.0,1.6122893566764786667602447719215
212,17978.8132422560702152286445588346379,17977.2,1.6132422560702152286445588346379
213,18148.8141906807753590979353091587303,18147.2,1.6141906807753590979353091587303
214,18319.6151346728795579366295752981879,18318.0,1.6151346728795579366295752981879
215,18491.2160742738836417357004483360298,18489.6,1.6160742738836417357004483360298
216,18663.6170095247125655055139767421362,18662.0,1.6170095247125655055139767421362
217,18836.8179404657260990645848059542324,18835.2,1.6179404657260990645848059542324
218,19010.8188671367292729105960799158338,19009.2,1.6188671367292729105960799158338
219,19185.6197895769825834584362838828986,19184.0,1.6197895769825834584362838828986
220,19361.2207078252119701655441021198820,19359.6,1.6207078252119701655441021198820
221,19537.6216219196185624593808565540346,19536.0,1.6216219196185624593808565540346
222,19714.8225318978882136773015229521986,19713.2,1.6225318978882136773015229521986
223,19892.8234377972008155929450986552740,19891.2,1.6234377972008155929450986552740
224,20071.6243396542394086021371424149872,20070.0,1.6243396542394086021371424149872
225,20251.2252375051990901389592808322049,20249.6,1.6252375051990901389592808322049
226,20431.6261313857957248744590806584260,20430.0,1.6261313857957248744590806584260
227,20612.8270213312744653558280274470882,20611.2,1.6270213312744653558280274470882
228,20794.8279073764180849116930044488819,20793.2,1.6279073764180849116930044488819
229,20977.6287895555551299915787610102797,20976.0,1.6287895555551299915787610102797
230,21161.2296679025678966421831183183814,21159.6,1.6296679025678966421831183183814
231,21345.6305424509002329266495981073795,21344.0,1.6305424509002329266495981073795
232,21530.8314132335651777131935740374638,21529.2,1.6314132335651777131935740374638
233,21716.8322802831524308365643029285924,21715.2,1.6322802831524308365643029285924
234,21903.6331436318356707969628372054128,21902.0,1.6331436318356707969628372054128
235,22091.2340033113797131866422472439882,22089.6,1.6340033113797131866422472439882
236,22279.6348593531475195626955118087894,22278.0,1.6348593531475195626955118087894
237,22468.8357117881070604065299120091542,22467.2,1.6357117881070604065299120091542
238,22658.8365606468380339220468356251870,22657.2,1.6365606468380339220468356251870
