Eigenstate,Energy,Kinetic Energy,Potential Energy
1,0.500000000052158713848846993004945482,0.0,0.500000000052158713848846993004945482
2,1.84623093799157969940554639926271756,1.2,0.64623093799157969940554639926271756
3,3.93633761070506498573565457507061739,3.2,0.73633761070506498573565457507061739
4,6.79966527989731273375051564886675498,6.0,0.79966527989731273375051564886675498
5,10.4480465788940006541597324647426259,9.6,0.8480465788940006541597324647426259
6,14.8870660024538119889555536547653037,14.0,0.8870660024538119889555536547653037
7,20.1197208320168043836815382266328114,19.2,0.9197208320168043836815382266328114
8,26.1477838539609272064254876758535179,25.2,0.9477838539609272064254876758535179
9,32.9723835672930525679909208417690514,32.0,0.9723835672930525679909208417690514
10,40.5942802261621364085188088719856889,39.6,0.9942802261621364085188088719856889
11,49.0140094007094880157749082289025244,48.0,1.0140094007094880157749082289025244
12,58.2319621862399426293917428184851963,57.2,1.0319621862399426293917428184851963
13,68.2484327128194755452230952315670660,67.2,1.0484327128194755452230952315670660
14,79.0636476781313764809853464594663895,78.0,1.0636476781313764809853464594663895
15,90.6777854632904422057952442235118383,89.6,1.0777854632904422057952442235118383
16,103.090988937713426537426940777636510,102.0,1.090988937713426537426940777636510
17,116.303374292580547985735239736404041,115.2,1.103374292580547985735239736404041
18,130.315037291841691521888434458627347,129.2,1.115037291841691521888434458627347
19,145.126057795320387852525254054532503,144.0,1.126057795320387852525254054532503
20,160.736503096347751076852782863528213,159.6,1.136503096347751076852782863528213
21,177.146430427844176769958108275144884,176.0,1.146430427844176769958108275144884
22,194.355888873478082800156513363420194,193.2,1.155888873478082800156513363420194
23,212.364920845602434508500874578844412,211.2,1.164920845602434508500874578844412
24,231.173563242655167275164698332936603,230.0,1.173563242655167275164698332936603
25,250.781848365955113231556450163142173,249.6,1.181848365955113231556450163142173
26,271.189804653509589266468862949830261,270.0,1.189804653509589266468862949830261
27,292.397457272976973067876571576720879,291.2,1.197457272976973067876571576720879
28,314.404828605025743129107080164949558,313.2,1.204828605025743129107080164949558
29,337.211938640536430823988430871834346,336.0,1.211938640536430823988430871834346
30,360.818805309443445084433544998321760,359.6,1.218805309443445084433544998321760
31,385.225444754867791712524667209068792,384.0,1.225444754867791712524667209068792
32,410.431871563113809773486945611083216,409.2,1.231871563113809773486945611083216
33,436.438098957793399711122936933781949,435.2,1.238098957793399711122936933781949
34,463.244138964590671560625761358509125,462.0,1.244138964590671560625761358509125
35,490.850002551840746567629362571380526,489.6,1.250002551840746567629362571380526
36,519.255699751062966643544893887442307,518.0,1.255699751062966643544893887442307
37,548.461239760784681538526918301915080,547.2,1.261239760784681538526918301915080
38,578.466631036361364870133096949894822,577.2,1.266631036361364870133096949894822
39,609.271881368000961496119749173933209,608.0,1.271881368000961496119749173933209
40,640.876997948804547936192669822333192,639.6,1.276997948804547936192669822333192
41,673.281987434318637273752343872282144,672.0,1.281987434318637273752343872282144
42,706.486855994839467367122171989917115,705.2,1.286855994839467367122171989917115
43,740.491609361503124854797184442020026,739.2,1.291609361503124854797184442020026
44,775.296252867027263423719823560768791,774.0,1.296252867027263423719823560768791
45,810.900791481832605240571741010011019,809.6,1.300791481832605240571741010011019
46,847.305229846159278163461162435482433,846.0,1.305229846159278163461162435482433
47,884.509572298699564739041447935155562,883.2,1.309572298699564739041447935155562
48,922.513822902191052625838786868904426,921.2,1.313822902191052625838786868904426
49,961.317985466349513540662683590107760,960.0,1.317985466349513540662683590107760
50,1000.92206356846671511131356430436936,999.6,1.32206356846671511131356430436936
51,1041.32606057195290305632445238629182,1040.0,1.32606057195290305632445238629182
52,1082.52997964306534589817013600744518,1081.2,1.32997964306534589817013600744518
53,1124.53382376603188429782795573757567,1123.2,1.33382376603188429782795573757567
54,1167.33759575675086596711553115318069,1166.0,1.33759575675086596711553115318069
55,1210.94129827522537162271654282036916,1209.6,1.34129827522537162271654282036916
56,1255.34493383686956287567870255977653,1254.0,1.34493383686956287567870255977653
57,1300.54850482280778398504736810867910,1299.2,1.34850482280778398504736810867910
58,1346.55201348927225221800617655395715,1345.2,1.35201348927225221800617655395715
59,1393.35546197619241761161954328048254,1392.0,1.35546197619241761161954328048254
60,1440.95885231505804842356889513771507,1439.6,1.35885231505804842356889513771507
61,1489.36218643612853433176900101605634,1488.0,1.36218643612853433176900101605634
62,1538.56546617505259843763672587200551,1537.2,1.36546617505259843763672587200551
63,1588.56869327895536723876324650939728,1587.2,1.36869327895536723876324650939728
64,1639.37186941204343525681824162915383,1638.0,1.37186941204343525681824162915383
65,1690.97499616077302616654138929750866,1689.6,1.37499616077302616654138929750866
66,1743.37807503862150493262189127578881,1742.0,1.37807503862150493262189127578881
67,1796.58110749049823316994067651496724,1795.2,1.38110749049823316994067651496724
68,1850.58409489682700378184107006099310,1849.2,1.38409489682700378184107006099310
69,1905.38703857732897826036675125336390,1904.0,1.38703857732897826036675125336390
70,1960.98993979453212176414127822933434,1959.6,1.38993979453212176414127822933434
71,2017.39279975703053238583255575366635,2016.0,1.39279975703053238583255575366635
72,2074.59561962251476277876511596254277,2073.2,1.39561962251476277876511596254277
73,2132.59840050059217930583984109195810,2131.2,1.39840050059217930583984109195810
74,2191.40114345541458502536750149980939,2190.0,1.40114345541458502536750149980939
75,2251.00384950812870172731956288769480,2249.6,1.40384950812870172731956288769480
76,2311.40651963916365667674409414991021,2310.0,1.40651963916365667674409414991021
77,2372.60915479036831732267660856252977,2371.2,1.40915479036831732267660856252977
78,2434.61175586701015143269520703497570,2433.2,1.41175586701015143269520703497570
79,2497.41432373964624329327710169951597,2496.0,1.41432373964624329327710169951597
80,2561.01685924587615849046893937729592,2559.6,1.41685924587615849046893937729592
81,2625.41936319198550044390685789804185,2624.0,1.41936319198550044390685789804185
82,2690.62183635448824041666839988221805,2689.2,1.42183635448824041666839988221805
83,2756.62427948157521398964875228664686,2755.2,1.42427948157521398964875228664686
84,2823.42669329447555269743758605874516,2822.0,1.42669329447555269743758605874516
85,2891.02907848873726024649903429184558,2889.6,1.42907848873726024649903429184558
86,2959.43143573543262687106784135553562,2958.0,1.43143573543262687106784135553562
87,3028.63376568229371791137504125526017,3027.2,1.43376568229371791137504125526017
88,3098.63606895478274932108052832743414,3097.2,1.43606895478274932108052832743414
89,3169.43834615710177930862846419088771,3168.0,1.43834615710177930862846419088771
90,3241.04059787314580210051212687811263,3239.6,1.44059787314580210051212687811263
91,3313.44282466740300836238417410183290,3312.0,1.44282466740300836238417410183290
92,3386.64502708580568851640893435046367,3385.2,1.44502708580568851640893435046367
93,3460.64720565653499293819792668122150,3459.2,1.44720565653499293819792668122150
94,3535.44936089078252008793148807913327,3534.0,1.44936089078252008793148807913327
95,3611.05149328347148247624056687911480,3609.6,1.45149328347148247624056687911480
96,3687.45360331393999854330601945477699,3686.0,1.45360331393999854330601945477699
97,3764.65569144658887418752354680805801,3763.2,1.45569144658887418752354680805801
98,3842.65775813149606480578719439384660,3841.2,1.45775813149606480578719439384660
99,3921.45980380499985523525574472380312,3920.0,1.45980380499985523525574472380312
100,4001.06182889025264864604980736314191,3999.6,1.46182889025264864604980736314191
101,4081.46383379774712613017324866815224,4080.0,1.46383379774712613017324866815224
102,4162.66581892581641315723138613060692,4161.2,1.46581892581641315723138613060692
103,4244.66778466110978115390546893752183,4243.2,1.46778466110978115390546893752183
104,4327.46973137904530519943286477156068,4326.0,1.46973137904530519943286477156068
105,4411.07165944424080575558497720989571,4409.6,1.47165944424080575558497720989571
106,4495.47356921092431158539173459603868,4494.0,1.47356921092431158539173459603868
107,4580.67546102332520293290571546296456,4579.2,1.47546102332520293290571546296456
108,4666.67733521604711479674492324478293,4665.2,1.47733521604711479674492324478293
109,4753.47919211442361153661881879915072,4752.0,1.47919211442361153661881879915072
110,4841.08103203485758163191735712611503,4839.6,1.48103203485758163191735712611503
111,4929.48285528514523555024417875633671,4928.0,1.48285528514523555024417875633671
112,5018.68466216478554025014172103972350,5017.2,1.48466216478554025014172103972350
113,5108.68645296527586830646199326336919,5107.2,1.48645296527586830646199326336919
114,5199.48822797039459088908031975419562,5198.0,1.48822797039459088908031975419562
115,5291.08998745647130337714694426486253,5289.6,1.48998745647130337714694426486253
116,5383.49173169264532405942318984694289,5382.0,1.49173169264532405942318984694289
117,5476.69346094111307465824205594116803,5475.2,1.49346094111307465824205594116803
118,5570.69517545736491038352765458424658,5569.2,1.49517545736491038352765458424658
119,5665.49687549041193350959159525498880,5664.0,1.49687549041193350959159525498880
120,5761.09856128300329862518962578625856,5759.6,1.49856128300329862518962578625856
121,5857.50023307183447944007739383718751,5856.0,1.50023307183447944007739383718751
122,5954.70189108774694811817160089548166,5953.2,1.50189108774694811817160089548166
123,6052.70353555591968591449096106110177,6051.2,1.50353555591968591449096106110177
124,6151.50516669605292621324242592901529,6150.0,1.50516669605292621324242592901529
125,6251.10678472254450149815548539152218,6249.6,1.50678472254450149815548539152218
126,6351.50838984465915058886951110394986,6350.0,1.50838984465915058886951110394986
127,6452.70998226669112189929294377275236,6451.2,1.50998226669112189929294377275236
128,6554.71156218812038588666318510357290,6553.2,1.51156218812038588666318510357290
129,6657.51312980376275778679803131549110,6656.0,1.51312980376275778679803131549110
130,6761.11468530391421334916221679505835,6759.6,1.51468530391421334916221679505835
131,6865.51622887448966488125463581897004,6864.0,1.51622887448966488125463581897004
132,6970.71776069715644993462131311737112,6969.2,1.51776069715644993462131311737112
133,7076.71928094946277318321454478443353,7075.2,1.51928094946277318321454478443353
134,7183.52078980496133076886078540699196,7182.0,1.52078980496133076886078540699196
135,7291.12228743332832828025685156960698,7289.6,1.52228743332832828025685156960698
136,7399.52377400047809984438346894189541,7398.0,1.52377400047809984438346894189541
137,7508.72524966867352250128250192711560,7507.2,1.52524966867352250128250192711560
138,7618.72671459663240642115265942450698,7617.2,1.52671459663240642115265942450698
139,7729.52816893963003941681374833530464,7728.0,1.52816893963003941681374833530464
140,7841.12961284959804875862079353147461,7839.6,1.52961284959804875862079353147461
141,7953.53104647521973874141954325361188,7952.0,1.53104647521973874141954325361188
142,8066.73246996202205437986811754007396,8065.2,1.53246996202205437986811754007396
143,8180.73388345246431295827994293240093,8179.2,1.53388345246431295827994293240093
144,8295.53528708602383798150661773984825,8294.0,1.53528708602383798150661773984825
145,8411.13668099927862588561968130676405,8409.6,1.53668099927862588561968130676405
146,8527.53806532598716799840015603689791,8526.0,1.53806532598716799840015603689791
147,8644.73944019716554203667824530440377,8643.2,1.53944019716554203667824530440377
148,8762.74080574116188846953243561738049,8761.2,1.54080574116188846953243561738049
149,8881.54216208372837354828310404715139,8880.0,1.54216208372837354828310404715139
150,9001.14350934809074264413841052952055,8999.6,1.54350934809074264413841052952055
151,9121.54484765501555980772694602919367,9120.0,1.54484765501555980772694602919367
152,9242.74617712287522384966650553969787,9241.2,1.54617712287522384966650553969787
153,9364.74749786771084989184205039169805,9363.2,1.54749786771084989184205039169805
154,9487.54881000329310028861392693569555,9486.0,1.54881000329310028861392693569555
155,9611.15011364118104315392769313447936,9609.6,1.55011364118104315392769313447936
156,9735.55140889077911636066714289751200,9734.0,1.55140889077911636066714289751200
157,9860.75269585939226805883145946750633,9859.2,1.55269585939226805883145946750633
158,9986.75397465227934553061582854237920,9985.2,1.55397465227934553061582854237920
159,10113.5552453727047960552064530279908,10112.0,1.5552453727047960552064530279908
160,10241.1565081219887461208053720067756,10239.6,1.5565081219887461208053720067756
161,10369.5577629995555174799818102135284,10368.0,1.5577629995555174799818102135284
162,10498.7590101029806395094272554063929,10497.2,1.5590101029806395094272554063929
163,10628.7602495280364127273892950202934,10627.2,1.5602495280364127273892950202934
164,10759.5614813687360781053554601224623,10758.0,1.5614813687360781053554601224623
165,10891.1627057173766407741805280130413,10889.6,1.5627057173766407741805280130413
166,11023.5639226645803986402221426932024,11022.0,1.5639226645803986402221426932024
167,11156.7651322993352231437801692444962,11155.2,1.5651322993352231437801692444962
168,11290.7663347090336348487300258530258,11289.2,1.5663347090336348487300258530258
169,11425.5675299795107189254161177216884,11424.0,1.5675299795107189254161177216884
170,11561.1687181950809202698982299178200,11559.6,1.5687181950809202698982299178200
171,11697.5698994385737584539873854724529,11696.0,1.5698994385737584539873854724529
172,11834.7710737913685003727060388676429,11833.2,1.5710737913685003727060388676429
173,11972.7722413334278259914796748217836,11971.2,1.5722413334278259914796748217836
174,12111.5734021433305230365504881756263,12110.0,1.5734021433305230365504881756263
175,12251.1745562983032446135228556765195,12249.6,1.5745562983032446135228556765195
176,12391.5757038742513594603701276247493,12390.0,1.5757038742513594603701276247493
177,12532.7768449457889280954169791878704,12531.2,1.5768449457889280954169791878704
178,12674.7779795862678340146704782941262,12673.2,1.5779795862678340146704782941262
179,12817.5791078678060963834224606469144,12816.0,1.5791078678060963834224606469144
180,12961.1802298613153951684993161474804,12959.6,1.5802298613153951684993161474804
181,13105.5813456365278313597222322194419,13104.0,1.5813456365278313597222322194419
182,13250.7824552620219499759403738817301,13249.2,1.5824552620219499759403738817301
183,13396.7835588052480489048881810144604,13395.2,1.5835588052480489048881810144604
184,13543.5846563325527978183798612022309,13542.0,1.5846563325527978183798612022309
185,13691.1857479092031889709419034828185,13689.6,1.5857479092031889709419034828185
186,13839.5868335994098408504796192458383,13838.0,1.5868335994098408504796192458383
187,13988.7879134663496784814528981038613,13987.2,1.5879134663496784814528981038613
188,14138.7889875721880058168523654546999,14137.2,1.5889875721880058168523654546999
189,14289.5900559780999939500409737380198,14288.0,1.5900559780999939500409737380198
190,14441.1911187442916007975127332985599,14439.6,1.5911187442916007975127332985599
191,14593.5921759300199414750943245101834,14592.0,1.5921759300199414750943245101834
192,14746.7932275936131257497658069929529,14745.2,1.5932275936131257497658069929529
193,14900.7942737924895808709211088788527,14899.2,1.5942737924895808709211088788527
194,15055.5953145831768731218232164928966,15054.0,1.5953145831768731218232164928966
195,15211.1963500213300460235845056578671,15209.6,1.5963500213300460235845056578671
196,15367.5973801617494888835435359478564,15366.0,1.5973801617494888835435359478564
197,15524.7984050583983500633302023073274,15523.2,1.5984050583983500633302023073274
198,15682.7994247644195091285690958413576,15681.2,1.5994247644195091285690958413576
199,15841.6004393321521207140456263639523,15840.0,1.6004393321521207140456263639523
200,16001.2014488131477440445047634491458,15999.6,1.6014488131477440445047634491458
201,16161.6024532581860690874700232868267,16160.0,1.6024532581860690874700232868267
202,16322.8034527172902527142040216372528,16321.2,1.6034527172902527142040216372528
203,16484.8044472397418755235010190739713,16483.2,1.6044472397418755235010190739713
204,16647.6054368740955309431831705372445,16646.0,1.6054368740955309431831705372445
205,16811.2064216681930565746215017627448,16809.6,1.6064216681930565746215017627448
206,16975.6074016691774207989887351009929,16974.0,1.6074016691774207989887351009929
207,17140.8083769235062705158788692145923,17139.2,1.6083769235062705158788692145923
208,17306.8093474769651542357083524828688,17305.2,1.6093474769651542357083524828688
209,17473.6103133746804262687362936898843,17472.0,1.6103133746804262687362936898843
210,17641.2112746611318435063131799406631,17639.6,1.6112746611318435063131799406631
211,17809.6122313801648621533244755778316,17808.0,1.6122313801648621533244755778316
212,17978.8131835750026446389618997483683,17977.2,1.6131835750026446389618997483683
213,18148.8141312882577810837210993499365,18147.2,1.6141312882577810837210993499365
214,18319.6150745619437402983195235685009,18318.0,1.6150745619437402983195235685009
215,18491.2160134374860495207702983990720,18489.6,1.6160134374860495207702983990720
216,18663.6169479557332168460737080053057,18662.0,1.6169479557332168460737080053057
217,18836.8178781569674003075723656128265,18835.2,1.6178781569674003075723656128265
218,19010.8188040809148325824247196213283,19009.2,1.6188040809148325824247196213283
219,19185.6197257667560045941372664777637,19184.0,1.6197257667560045941372664777637
220,19361.2206432531356205202868725796229,19359.6,1.6206432531356205202868725796229
221,19537.6215565781723221077284937341830,19536.0,1.6215565781723221077284937341830
222,19714.8224657794681994926572618112060,19713.2,1.6224657794681994926572618112060
223,19892.8233708941180820863613680637860,19891.2,1.6233708941180820863613680637860
224,20071.6242719587186245859679465924402,20070.0,1.6242719587186245859679465924402
225,20251.2251690093771906667297062866538,20249.6,1.6251690093771906667297062866538
226,20431.6260620817205378937971861846836,20430.0,1.6260620817205378937971861846836
227,20612.8269512109033124963283141676562,20611.2,1.6269512109033124963283141676562
228,20794.8278364316163558141393126351135,20793.2,1.6278364316163558141393126351135
229,20977.6287177780948295690453782170380,20976.0,1.6287177780948295690453782170380
230,21161.2295952841261646471323299829819,21159.6,1.6295952841261646471323299829819
231,21345.6304689830578351812276067532873,21344.0,1.6304689830578351812276067532873
232,21530.8313389078049683424879454517842,21529.2,1.6313389078049683424879454517842
233,21716.8322050908577848266060959779181,21715.2,1.6322050908577848266060959779181
234,21903.6330675642888861806998091845528,21902.0,1.6330675642888861806998091845528
235,22091.2339263597603821419804135278394,22089.6,1.6339263597603821419804135278394
236,22279.6347815085308676869666280374140,22278.0,1.6347815085308676869666280374140
237,22468.8356330414622534113682371079766,22467.2,1.6356330414622534113682371079766
238,22658.8364809890264509716477612790050,22657.2,1.6364809890264509716477612790050
