Eigenstate,Energy,Kinetic Energy,Potential Energy
1,0.500000000055062054248229459284583512,0.0,0.500000000055062054248229459284583512
2,1.84623093801053125097738746093711535,1.2,0.64623093801053125097738746093711535
3,3.93633761076073390601128906636685312,3.2,0.73633761076073390601128906636685312
4,6.79966528001326549934342234410735926,6.0,0.79966528001326549934342234410735926
5,10.4480465790948562524388391812057653,9.6,0.8480465790948562524388391812057653
6,14.8870660027646213337870964704874206,14.0,0.8870660027646213337870964704874206
7,20.1197208324628217948908630907509110,19.2,0.9197208324628217948908630907509110
8,26.1477838545675152327565944438547468,25.2,0.9477838545675152327565944438547468
9,32.9723835680856378449717948490095743,32.0,0.9723835680856378449717948490095743
10,40.5942802271661873606119787860266674,39.6,0.9942802271661873606119787860266674
11,49.0140094019505028419501085814003969,48.0,1.0140094019505028419501085814003969
12,58.2319621877434425291028533337089720,57.2,1.0319621877434425291028533337089720
13,68.2484327146110007974093842638978911,67.2,1.0484327146110007974093842638978911
14,79.0636476802364841651224388401866880,78.0,1.0636476802364841651224388401866880
15,90.6777854657347049136952120783884215,89.6,1.0777854657347049136952120783884215
16,103.090988940522431707512136263437269,102.0,1.090988940522431707512136263437269
17,116.303374295779897642359801759942903,115.2,1.103374295779897642359801759942903
18,130.315037295457002286433688410760454,129.2,1.115037295457002286433688410760454
19,145.126057799377291141849108804310274,144.0,1.126057799377291141849108804310274
20,160.736503100871893434047794137677266,159.6,1.136503100871893434047794137677266
21,177.146430432861220290592866329954795,176.0,1.146430432861220290592866329954795
22,194.355888879013705628793902580490740,193.2,1.155888879013705628793902580490740
23,212.364920851682331387882587555543325,211.2,1.164920851682331387882587555543325
24,231.173563249305050135529614167638151,230.0,1.173563249305050135529614167638151
25,250.781848373200711811025103047118892,249.6,1.181848373200711811025103047118892
26,271.189804661376651755833933736694152,270.0,1.189804661376651755833933736694152
27,292.397457281491266774840934463674806,291.2,1.197457281491266774840934463674806
28,314.404828614213055158232203163108415,313.2,1.204828614213055158232203163108415
29,337.211938650422568769504954167533131,336.0,1.211938650422568769504954167533131
30,360.818805320054237733721541221854990,359.6,1.218805320054237733721541221854990
31,385.225444766229089758560548633601855,384.0,1.225444766229089758560548633601855
32,410.431871575251486534923498738152265,409.2,1.231871575251486534923498738152265
33,436.438098970733351858950822620513036,435.2,1.238098970733351858950822620513036
34,463.244138978358819850581943887687862,462.0,1.244138978358819850581943887687862
35,490.850002566463036577686693633464554,489.6,1.250002566463036577686693633464554
36,519.255699766565369515949397168617910,518.0,1.255699766565369515949397168617910
37,548.461239777193194725953863375985302,547.2,1.261239777193194725953863375985302
38,578.466631053702012885616211531771854,577.2,1.266631053702012885616211531771854
39,609.271881386299796666474685307021021,608.0,1.271881386299796666474685307021021
40,640.876997968087651158709725279972335,639.6,1.276997968087651158709725279972335
41,673.281987454612118775977250552915232,672.0,1.281987454612118775977250552915232
42,706.486856016169467469579532770689860,705.2,1.286856016169467469579532770689860
43,740.491609383895814736540606921566868,739.2,1.291609383895814736540606921566868
44,775.296252890508845890617098232907099,774.0,1.296252890508845890617098232907099
45,810.900791506429315496253651591986759,809.6,1.300791506429315496253651591986759
46,847.305229871897384582879415760207197,846.0,1.305229871897384582879415760207197
47,884.509572325605369644595383029067373,883.2,1.309572325605369644595383029067373
48,922.513822930290893066042479994377509,921.2,1.313822930290893066042479994377509
49,961.317985495669762071334231825858795,960.0,1.317985495669762071334231825858795
50,1000.92206359903378057927693453664486,999.6,1.32206359903378057927693453664486
51,1041.32606060379323138562167719807117,1040.0,1.32606060379323138562167719807117
52,1082.52997967620542087878797068991109,1081.2,1.32997967620542087878797068991109
53,1124.53382380049822837694859237369517,1123.2,1.33382380049822837694859237369517
54,1167.33759579257004104290567292169584,1166.0,1.33759579257004104290567292169584
55,1210.94129831242397984067330458773502,1209.6,1.34129831242397984067330458773502
56,1255.34493387547424742755436402985681,1254.0,1.34493387547424742755436402985681
57,1300.54850486284522991037819908100529,1299.2,1.34850486284522991037819908100529
58,1346.55201353076918720827331689278847,1345.2,1.35201353076918720827331689278847
59,1393.35546201917561281707239768304803,1392.0,1.35546201917561281707239768304803
60,1440.95885235955431926274368860418007,1439.6,1.35885235955431926274368860418007
61,1489.36218648216474130373710308856600,1488.0,1.36218648216474130373710308856600
62,1538.56546622265564793701911469986215,1537.2,1.36546622265564793701911469986215
63,1588.56869332815221237354905867727409,1587.2,1.36869332815221237354905867727409
64,1639.37186946286107666902679319853151,1638.0,1.37186946286107666902679319853151
65,1690.97499621323851285576835902083106,1689.6,1.37499621323851285576835902083106
66,1743.37807509276193508251155817270809,1742.0,1.37807509276193508251155817270809
67,1796.58110754634075497762719182846953,1795.2,1.38110754634075497762719182846953
68,1850.58409495439881629040277250322111,1849.2,1.38409495439881629040277250322111
69,1905.38703863665733219433845745442144,1904.0,1.38703863665733219433845745442144
70,1960.98993985564432036813037285017576,1959.6,1.38993985564432036813037285017576
71,2017.39279981995393226628553356541905,2016.0,1.39279981995393226628553356541905
72,2074.59561968727677474893198415433472,2073.2,1.39561968727677474893198415433472
73,2132.59840056722026923398454883293658,2131.2,1.39840056722026923398454883293658
74,2191.40114352393627468627323815381811,2190.0,1.40114352393627468627323815381811
75,2251.00384957857156965713844700956531,2249.6,1.40384957857156965713844700956531
76,2311.40651971155533903124142304333448,2310.0,1.40651971155533903124142304333448
77,2372.60915486473650873892042538642069,2371.2,1.40915486473650873892042538642069
78,2434.61175594338260589424257404083072,2433.2,1.41175594338260589424257404083072
79,2497.41432381805077499890901235828451,2496.0,1.41432381805077499890901235828451
80,2561.01685932634064272652640023796581,2559.6,1.41685932634064272652640023796581
81,2625.41936327453787446028118637165863,2624.0,1.41936327453787446028118637165863
82,2690.62183643915650430649935746615597,2689.2,1.42183643915650430649935746615597
83,2756.62427956838743157278462686071469,2755.2,1.42427956838743157278462686071469
84,2823.42669338345985240771190311027050,2822.0,1.42669338345985240771190311027050
85,2891.02907857992183602287906367615898,2889.6,1.42907857992183602287906367615898
86,2959.43143582884573905273059201467799,2958.0,1.43143582884573905273059201467799
87,3028.63376577796369413676692306766020,3027.2,1.43376577796369413676692306766020
88,3098.63606905273798543101741893619285,3097.2,1.43606905273798543101741893619285
89,3169.43834625737074025349336544364749,3168.0,1.43834625737074025349336544364749
90,3241.04059797575702285160814181810774,3239.6,1.44059797575702285160814181810774
91,3313.44282477238509482750100814078672,3312.0,1.44282477238509482750100814078672
92,3386.64502719318731845966166582961058,3385.2,1.44502719318731845966166582961058
93,3460.64720576634491690419724169140727,3459.2,1.44720576634491690419724169140727
94,3535.44936100304956233034517341425505,3534.0,1.44936100304956233034517341425505
95,3611.05149339822454189080644672155522,3609.6,1.45149339822454189080644672155522
96,3687.45360343120804960535713755582529,3686.0,1.45360343120804960535713755582529
97,3764.65569156640096789408686603362587,3763.2,1.45569156640096789408686603362587
98,3842.65775825388132962231759805948581,3841.2,1.45775825388132962231759805948581
99,3921.45980392998749804706768553183448,3920.0,1.45980392998749804706768553183448
100,4001.06182901787195571450941775135218,3999.6,1.46182901787195571450941775135218
101,4081.46383392802746405371432541473326,4080.0,1.46383392802746405371432541473326
102,4162.66581905878722983725916304113292,4161.2,1.46581905878722983725916304113292
103,4244.66778479680060676565263332929620,4243.2,1.46778479680060676565263332929620
104,4327.46973151748575316783284610924599,4326.0,1.46973151748575316783284610924599
105,4411.07165958546057373622802957473547,4409.6,1.47165958546057373622802957473547
106,4495.47356935495318245063002215970072,4494.0,1.47356935495318245063002215970072
107,4580.67546117019304576317402577385385,4579.2,1.47546117019304576317402577385385
108,4666.67733536578388587716430803576399,4665.2,1.47733536578388587716430803576399
109,4753.47919226705935535895099342352672,4752.0,1.47919226705935535895099342352672
110,4841.08103219042243190193831230541276,4839.6,1.48103219042243190193831230541276
111,4929.48285544366941620060599953448935,4928.0,1.48285544366941620060599953448935
112,5018.68466232629936645879229968755291,5017.2,1.48466232629936645879229968755291
113,5108.68645312980974752069281727768295,5107.2,1.48645312980974752069281727768295
114,5199.48822813797902385527321699786072,5198.0,1.48822813797902385527321699786072
115,5291.08998762713688517629128282237171,5289.6,1.48998762713688517629128282237171
116,5383.49173186642274514847558572078857,5382.0,1.49173186642274514847558572078857
117,5476.69346111803312191740142512343687,5475.2,1.49346111803312191740142512343687
118,5570.69517563745846816949890380960240,5569.2,1.49517563745846816949890380960240
119,5665.49687567370998471491209604535773,5664.0,1.49687567370998471491209604535773
120,5761.09856146953692574369316106128997,5759.6,1.49856146953692574369316106128997
121,5857.50023326163486563857095522053612,5856.0,1.50023326163486563857095522053612
122,5954.70189128084537831440117694640421,5953.2,1.50189128084537831440117694640421
123,6052.70353575234754786147297669641741,6051.2,1.50353575234754786147297669641741
124,6151.50516689584171159003841733133906,6150.0,1.50516689584171159003841733133906
125,6251.10678492572580700716813545972018,6249.6,1.50678492572580700716813545972018
126,6351.50839005126467905973899692063420,6350.0,1.50839005126467905973899692063420
127,6452.70998247675268339947311226967017,6451.2,1.50998247675268339947311226967017
128,6554.71156240166989883875807963942443,6553.2,1.51156240166989883875807963942443
129,6657.51313002083225009273980866061971,6656.0,1.51313002083225009273980866061971
130,6761.11468552453582352131233000902221,6759.6,1.51468552453582352131233000902221
131,6865.51622909869564318051094883393875,6864.0,1.51622909869564318051094883393875
132,6970.71776092497915951561459987989911,6969.2,1.51776092497915951561459987989911
133,7076.71928118093469124667857496907169,7075.2,1.51928118093469124667857496907169
134,7183.52079004011504972126100844705895,7182.0,1.52079004011504972126100844705895
135,7291.12228767219655690076354093513806,7289.6,1.52228767219655690076354093513806
136,7399.52377424309366445927594329293454,7398.0,1.52377424309366445927594329293454
137,7508.72524991506936816587197021827067,7507.2,1.52524991506936816587197021827067
138,7618.72671484684159810931200385979578,7617.2,1.52671484684159810931200385979578
139,7729.52816919368576321820344751875716,7728.0,1.52816919368576321820344751875716
140,7841.12961310753361308370100713934697,7839.6,1.52961310753361308370100713934697
141,7953.53104673706857553433938119519925,7952.0,1.53104673706857553433938119519925
142,8066.73247022781772033932387624000970,8065.2,1.53247022781772033932387624000970
143,8180.73388372224049076643506467128748,8179.2,1.53388372224049076643506467128748
144,8295.53528735981433754106700902456199,8294.0,1.53528735981433754106700902456199
145,8411.13668127711738556515904657680485,8409.6,1.53668127711738556515904657680485
146,8527.53806560790825588603083728454185,8526.0,1.53806560790825588603083728454185
147,8644.73944048320315720216403351297391,8643.2,1.53944048320315720216403351297391
148,8762.74080603135036223494082027412036,8761.2,1.54080603135036223494082027412036
149,8881.54216237810217076727546569875752,8880.0,1.54216237810217076727546569875752
150,9001.14350964668446298999740111772256,8999.6,1.54350964668446298999740111772256
151,9121.54484795786393907022180325150731,9120.0,1.54484795786393907022180325150731
152,9242.74617743001313524085738909133351,9241.2,1.54617743001313524085738909133351
153,9364.74749817917330536092622923904711,9363.2,1.54749817917330536092622923904711
154,9487.54881031911525184591713565642632,9486.0,1.54881031911525184591713565642632
155,9611.15011396139818420414540871229980,9609.6,1.55011396139818420414540871229980
156,9735.55140921542668304546137481311585,9734.0,1.55140921542668304546137481311585
157,9860.75269618850584060888984636970033,9859.2,1.55269618850584060888984636970033
158,9986.75397498589464962728104764885969,9985.2,1.55397498589464962728104764885969
159,10113.5552457108577042017847968810153,10112.0,1.5552457108577042017847968810153
160,10241.1565084647152790236647338078384,10239.6,1.5565084647152790236647338078384
161,10369.5577633468918454395503629744666,10368.0,1.5577633468918454395503629744666
162,10498.7590104549630838212052936202038,10497.2,1.5590104549630838212052936202038
163,10628.7602498847014470930879408548755,10627.2,1.5602498847014470930879408548755
164,10759.5614817301203300542770107234085,10758.0,1.5614817301203300542770107234085
165,10891.1627060835168930949566694981724,10889.6,1.5627060835168930949566694981724
166,11023.5639230355135908230271758186778,11022.0,1.5639230355135908230271758186778
167,11156.7651326750984528331380106674196,11155.2,1.5651326750984528331380106674196
168,11290.7663350896641593070346360904043,11289.2,1.5663350896641593070346360904043
169,11425.5675303650459565072866029953564,11424.0,1.5675303650459565072866029953564
170,11561.1687185855584519074910093597799,11559.6,1.5687185855584519074910093597799
171,11697.5698998340313291533891981355742,11696.0,1.5698998340313291533891981355742
172,11834.7710741918440207215328951607354,11833.2,1.5710741918440207215328951607354
173,11972.7722417389593736778081360702834,11971.2,1.5722417389593736778081360702834
174,12111.5734025539563443793091811127874,12110.0,1.5734025539563443793091811127874
175,12251.1745567140617561044733968463878,12249.6,1.5745567140617561044733968463878
176,12391.5757042951811493178081521640252,12390.0,1.5757042951811493178081521640252
177,12532.7768453719287578297253343153304,12531.2,1.5768453719287578297253343153304
178,12674.7779800176566400058580810947148,12673.2,1.5779800176566400058580810947148
179,12817.5791083044829914707838666903485,12816.0,1.5791083044829914707838666903485
180,12961.1802303033196702525314991792142,12959.6,1.5802303033196702525314991792142
181,13105.5813460838989570164365818754525,13104.0,1.5813460838989570164365818754525
182,13250.7824557147995780837094252714609,13249.2,1.5824557147995780837094252714609
183,13396.7835592634720142839682894413144,13395.2,1.5835592634720142839682894413144
184,13543.5846567962631198832524301786623,13542.0,1.5846567962631198832524301786623
185,13691.1857483784400733956175437155661,13689.6,1.5857483784400733956175437155661
186,13839.5868340742136812469110294701858,13838.0,1.5868340742136812469110294701858
187,13988.7879139467610580912041588680537,13987.2,1.5879139467610580912041588680537
188,14138.7889880582476992161738097615616,14137.2,1.5889880582476992161738097615616
189,14289.5900564698489687685005733713285,14288.0,1.5900564698489687685005733713285
190,14441.1911192417710194503366905576944,14439.6,1.5911192417710194503366905576944
191,14593.5921764332711629093711435202688,14592.0,1.5921764332711629093711435202688
192,14746.7932281026777072046701127217834,14745.2,1.5932281026777072046701127217834
193,14900.7942743074092796521150184840967,14899.2,1.5942743074092796521150184840967
194,15055.5953151039936483901951437562028,15054.0,1.5953151039936483901951437562028
195,15211.1963505480860605984868405839069,15209.6,1.5963505480860605984868405839069
196,15367.5973806944871110606927473197363,15366.0,1.5973806944871110606927473197363
197,15524.7984055971601554475347039884481,15523.2,1.5984055971601554475347039884481
198,15682.7994253092482824814520148089064,15681.2,1.5994253092482824814520148089064
199,15841.6004398830908578169318660503996,15840.0,1.6004398830908578169318660503996
200,16001.2014493702396535766432822135549,15999.6,1.6014493702396535766432822135549
201,16161.6024538214745745197647202519376,16160.0,1.6024538214745745197647202519376
202,16322.8034532868189942186282947888031,16321.2,1.6034532868189942186282947888031
203,16484.8044478155547118983732192808326,16483.2,1.6044478155547118983732192808326
204,16647.6054374562365415544824257102876,16646.0,1.6054374562365415544824257102876
205,16811.2064222567065433135252432233949,16809.6,1.6064222567065433135252432233949
206,16975.6074022641079100558154422669467,16974.0,1.6074022641079100558154422669467
207,17140.8083775248985151706219439489718,17139.2,1.6083775248985151706219439489718
208,17306.8093480848641356653490248351034,17305.2,1.6093480848641356653490248351034
209,17473.6103139891313563715256739922829,17472.0,1.6103139891313563715256739922829
210,17641.2112752821801667432160647294326,17639.6,1.6112752821801667432160647294326
211,17809.6122320078562576068195184487475,17808.0,1.6122320078562576068195184487475
212,17978.8131842093830280893954230257276,17977.2,1.6131842093830280893954230257276
213,18148.8141319293733071034138723155514,18147.2,1.6141319293733071034138723155514
214,18319.6150752098408043636283097583007,18318.0,1.6150752098408043636283097583007
215,18491.2160140922112901423085280683116,18489.6,1.6160140922112901423085280683116
216,18663.6169486173335177172981036366459,18662.0,1.6169486173335177172981036366459
217,18836.8178788254898924719446543636485,18835.2,1.6178788254898924719446543636485
218,19010.8188047564068966193603031443002,19009.2,1.6188047564068966193603031443002
219,19185.6197264492652728239550867499174,19184.0,1.6197264492652728239550867499174
220,19361.2206439427099792283777259234603,19359.6,1.6206439427099792283777259234603
221,19537.6215572748599137881610686062868,19536.0,1.6215572748599137881610686062868
222,19714.8224664833174251114445231423726,19713.2,1.6224664833174251114445231423726
223,19892.8233716051776033646120538815157,19891.2,1.6233716051776033646120538815157
224,20071.6242726770373663031512187319985,20070.0,1.6242726770373663031512187319985
225,20251.2251697350043429842832869315821,20249.6,1.6251697350043429842832869315821
226,20431.6260628147055586993128876656663,20430.0,1.6260628147055586993128876656663
227,20612.8269519512959297685506826681619,20611.2,1.6269519512959297685506826681619
228,20794.8278371794665700090171171523533,20793.2,1.6278371794665700090171171523533
229,20977.6287185334529160270780367664839,20976.0,1.6287185334529160270780367664839
230,21161.2295960470426760222564765498597,21159.6,1.6295960470426760222564765498597
231,21345.6304697535836038914921058957901,21344.0,1.6304697535836038914921058957901
232,21530.8313396859911090427688209164727,21529.2,1.6313396859911090427688209164727
233,21716.8322058767556969036159622516180,21715.2,1.6322058767556969036159622516180
234,21903.6330683579502562705493236013678,21902.0,1.6330683579502562705493236013678
235,22091.2339271612371866705528542381785,22089.6,1.6339271612371866705528542381785
236,22279.6347823178753754333700931935844,22278.0,1.6347823178753754333700931935844
237,22468.8356338587270280947326691564841,22467.2,1.6356338587270280947326691564841
238,22658.8364818142643538615380885861493,22657.2,1.6364818142643538615380885861493
