Eigenstate,Energy,Kinetic Energy,Potential Energy
1,0.500000000103414806228364952241264510,0.0,0.500000000103414806228364952241264510
2,1.84623093832615454310578369434798666,1.2,0.64623093832615454310578369434798666
3,3.93633761168785972931313581521983816,3.2,0.73633761168785972931313581521983816
4,6.79966528194438518529449870531875613,6.0,0.79966528194438518529449870531875613
5,10.4480465824400002994871373268046238,9.6,0.8480465824400002994871373268046238
6,14.8870660079410276895412489777309874,14.0,0.8870660079410276895412489777309874
7,20.1197208398911336419830432456095519,19.2,0.9197208398911336419830432456095519
8,26.1477838646701995056516421304484258,25.2,0.9477838646701995056516421304484258
9,32.9723835812862536957484889781836525,32.0,0.9723835812862536957484889781836525
10,40.5942802438890184279749803648660307,39.6,0.9942802438890184279749803648660307
11,49.0140094226203607869692399741406437,48.0,1.0140094226203607869692399741406437
12,58.2319622127855578506295577640274053,57.2,1.0319622127855578506295577640274053
13,68.2484327444509611676545390479283693,67.2,1.0484327444509611676545390479283693
14,79.0636477153002001179913578601245314,78.0,1.0636477153002001179913578601245314
15,90.6777855064483920394176604011763663,89.6,1.0777855064483920394176604011763663
16,103.090988987312603220679769890012710,102.0,1.090988987312603220679769890012710
17,116.303374349073363702770561536869488,115.2,1.103374349073363702770561536869488
18,130.315037355680873853641384778239462,129.2,1.115037355680873853641384778239462
19,145.126057866958986957946503553396100,144.0,1.126057866958986957946503553396100
20,160.736503176239149218427555631678157,159.6,1.136503176239149218427555631678157
21,177.146430516442099533875232331315430,176.0,1.146430516442099533875232331315430
22,194.355888971236611566617575219790533,193.2,1.155888971236611566617575219790533
23,212.364920952976019861761739106389306,211.2,1.164920952976019861761739106389306
24,231.173563360098643132557167171416666,230.0,1.173563360098643132557167171416666
25,250.781848493923711531906055925395384,249.6,1.181848493923711531906055925395384
26,271.189804792458955100833844673227205,270.0,1.189804792458955100833844673227205
27,292.397457423363180165576434500577136,291.2,1.197457423363180165576434500577136
28,314.404828767305309633572369255539814,313.2,1.204828767305309633572369255539814
29,337.211938815166335308661137628639278,336.0,1.211938815166335308661137628639278
30,360.818805496881142770525824393320946,359.6,1.218805496881142770525824393320946
31,385.225444955571230859087472681904310,384.0,1.225444955571230859087472681904310
32,410.431871777541448216766277298901080,409.2,1.231871777541448216766277298901080
33,436.438099186404221535160398301456458,435.2,1.238099186404221535160398301456458
34,463.244139207844203884896072623654340,462.0,1.244139207844203884896072623654340
35,490.850002810197076440489889752685527,489.6,1.250002810197076440489889752685527
36,519.255700024982758032611055898567954,518.0,1.255700024982758032611055898567954
37,548.461240050729192410936347940205998,547.2,1.261240050729192410936347940205998
38,578.466631342792464357134314415826973,577.2,1.266631342792464357134314415826973
39,609.271881691381147137602984732739895,608.0,1.271881691381147137602984732739895
40,640.876998289596963001735362804619483,639.6,1.276998289596963001735362804619483
41,673.281987792987088157528334691151114,672.0,1.281987792987088157528334691151114
42,706.486856371848441054659077050143194,705.2,1.286856371848441054659077050143194
43,740.491609757317806460089704218492501,739.2,1.291609757317806460089704218492501
44,775.296253282113553795639897057851542,774.0,1.296253282113553795639897057851542
45,810.900791916657138637877330973352326,809.6,1.300791916657138637877330973352326
46,847.305230301189439998007631449031263,846.0,1.305230301189439998007631449031263
47,884.509572774403509387053758361460291,883.2,1.309572774403509387053758361460291
48,922.513823399037721307318165480182678,921.2,1.313823399037721307318165480182678
49,961.317985984808652267184550140230933,960.0,1.317985984808652267184550140230933
50,1000.92206410900889270263011911142220,999.6,1.32206410900889270263011911142220
51,1041.32606113504952922632014960080942,1040.0,1.32606113504952922632014960080942
52,1082.52998022918868941083459448222345,1081.2,1.32998022918868941083459448222345
53,1124.53382437565509119401202018896180,1123.2,1.33382437565509119401202018896180
54,1167.33759639034797786292459276914041,1166.0,1.33759639034797786292459276914041
55,1210.94129893327134408047277126759272,1209.6,1.34129893327134408047277126759272
56,1255.34493451984028384845242433641906,1254.0,1.34493451984028384845242433641906
57,1300.54850553118009233581855445412764,1299.2,1.34850553118009233581855445412764
58,1346.55201422352395631457158900067271,1345.2,1.35201422352395631457158900067271
59,1393.35546273680231399840965369951102,1392.0,1.35546273680231399840965369951102
60,1440.95885310250594057158296789757690,1439.6,1.35885310250594057158296789757690
61,1489.36218725089525146787679643332072,1488.0,1.36218725089525146787679643332072
62,1538.56546701762001445453201362942580,1537.2,1.36546701762001445453201362942580
63,1588.56869414980641968688800908060156,1587.2,1.36869414980641968688800908060156
64,1639.37187031166214441960766269686848,1638.0,1.37187031166214441960766269686848
65,1690.97499708964451422036896751229933,1689.6,1.37499708964451422036896751229933
66,1743.37807599723201519285110073371545,1742.0,1.37807599723201519285110073371545
67,1796.58110847933514942451535174540045,1795.2,1.38110847933514942451535174540045
68,1850.58409591637886971387100750477301,1849.2,1.38409591637886971387100750477301
69,1905.38703962808551696118827931046500,1904.0,1.38703962808551696118827931046500
70,1960.98994087698425533835449727863892,1959.6,1.38994087698425533835449727863892
71,2017.39280087167040164983865260962622,2016.0,1.39280087167040164983865260962622
72,2074.59562076983574705434744319309424,2073.2,1.39562076983574705434744319309424
73,2132.59840168108891631035282088723683,2131.2,1.39840168108891631035282088723683
74,2191.40114466958299086011674558361130,2190.0,1.40114466958299086011674558361130
75,2251.00385075646599096573594612837906,2249.6,1.40385075646599096573594612837906
76,2311.40652092216836255397310593426805,2310.0,1.40652092216836255397310593426805
77,2372.60915610854031202822302283361261,2371.2,1.40915610854031202822302283361261
78,2434.61175722085066650778141496435914,2433.2,1.41175722085066650778141496435914
79,2497.41432512965789013459163448884215,2496.0,1.41432512965789013459163448884215
80,2561.01686067256294896199966054083510,2559.6,1.41686067256294896199966054083510
81,2625.41936465585286759857149620252828,2624.0,1.41936465585286759857149620252828
82,2690.62183785604305932947295027952829,2689.2,1.42183785604305932947295027952829
83,2756.62428102132582270412221431687568,2755.2,1.42428102132582270412221431687568
84,2823.42669487293177328710959212870444,2822.0,1.42669487293177328710959212870444
85,2891.02908010641041999320496189885579,2889.6,1.42908010641041999320496189885579
86,2959.43143739283557956188402090126047,2958.0,1.43143739283557956188402090126047
87,3028.63376737994086525600521639893307,3027.2,1.43376737994086525600521639893307
88,3098.63607069319006249153275329471715,3097.2,1.43607069319006249153275329471715
89,3169.43834793678682060304041032630376,3168.0,1.43834793678682060304041032630376
90,3241.04059969462774673300123107642361,3239.6,1.44059969462774673300123107642361
91,3313.44282653120266638081817152077917,3312.0,1.44282653120266638081817152077917
92,3386.64502899244552685001109716990463,3385.2,1.44502899244552685001109716990463
93,3460.64720760653915757692084537210057,3459.2,1.44720760653915757692084537210057
94,3535.44936288467685839555254137343304,3534.0,1.44936288467685839555254137343304
95,3611.05149532178356563915194707786231,3609.6,1.45149532178356563915194707786231
96,3687.45360539719914415699219801002962,3686.0,1.45360539719914415699219801002962
97,3764.65569357532616898273929951907858,3763.2,1.45569357532616898273929951907858
98,3842.65776030624438751646951359469210,3841.2,1.45776030624438751646951359469210
99,3921.45980602629389961022413775051464,3920.0,1.45980602629389961022413775051464
100,4001.06183115862894660657005714028647,3999.6,1.46183115862894660657005714028647
101,4081.46383611374407107548134943306984,4080.0,1.46383611374407107548134943306984
102,4162.66582128997428342013581955347109,4161.2,1.46582128997428342013581955347109
103,4244.66778707397076360860780288127888,4243.2,1.46778707397076360860780288127888
104,4327.46973384115351902372924510161841,4326.0,1.46973384115351902372924510161841
105,4411.07166195614232634963328139934953,4409.6,1.47166195614232634963328139934953
106,4495.47357177316719464925214979791990,4494.0,1.47357177316719464925214979791990
107,4580.67546363645950870508587706452992,4579.2,1.47546363645950870508587706452992
108,4666.67733788062493245600403674398352,4665.2,1.47733788062493245600403674398352
109,4753.47919483099908376930950699730179,4752.0,1.47919483099908376930950699730179
110,4841.08103480398692936716778190072932,4839.6,1.48103480398692936716778190072932
111,4929.48285810738678286530811909175593,4928.0,1.48285810738678286530811909175593
112,5018.68466504069973944826896656212607,5017.2,1.48466504069973944826896656212607
113,5108.68645589542532516966701309484464,5107.2,1.48645589542532516966701309484464
114,5199.48823095534409010821292931683253,5198.0,1.48823095534409010821292931683253
115,5291.08999049678783416169487319151756,5289.6,1.48999049678783416169487319151756
116,5383.49173478889810592950308810106853,5382.0,1.49173478889810592950308810106853
117,5476.69346409387358342126245937557681,5475.2,1.49346409387358342126245937557681
118,5570.69517866720690429803494091898389,5569.2,1.49517866720690429803494091898389
119,5665.49687875791147963883763303853563,5664.0,1.49687875791147963883763303853563
120,5761.09856460873879938298851730033037,5759.6,1.49856460873879938298851730033037
121,5857.50023645638669933154695220005476,5856.0,1.50023645638669933154695220005476
122,5954.70189453169904067798472156524922,5953.2,1.50189453169904067798472156524922
123,6052.70353905985722084529163082851858,6051.2,1.50353905985722084529163082851858
124,6151.50517026056391672691107457494871,6150.0,1.50517026056391672691107457494871
125,6251.10678834821943186263921615255823,6249.6,1.50678834821943186263921615255823
126,6351.50839353209100388332362214294645,6350.0,1.50839353209100388332362214294645
127,6452.70998601647540798031162521626573,6451.2,1.50998601647540798031162521626573
128,6554.71156600085516956840958542317742,6553.2,1.51156600085516956840958542317742
129,6657.51313368004868723787617161251895,6656.0,1.51313368004868723787617161251895
130,6761.11468924435454870910639819033278,6759.6,1.51468924435454870910639819033278
131,6865.51623287969030709954554535030001,6864.0,1.51623287969030709954554535030001
132,6970.71776476772596983517234197385391,6969.2,1.51776476772596983517234197385391
133,7076.71928508601244075730584395018988,7075.2,1.51928508601244075730584395018988
134,7183.52079400810514469953464008947927,7182.0,1.52079400810514469953464008947927
135,7291.12229170368304570122305021729803,7289.6,1.52229170368304570122305021729803
136,7399.52377833866326633651983595645602,7398.0,1.52377833866326633651983595645602
137,7508.72525407531150232985265337759900,7507.2,1.52525407531150232985265337759900
138,7618.72671907234841301690070848526938,7617.2,1.52671907234841301690070848526938
139,7729.52817348505216610413333607772767,7728.0,1.52817348505216610413333607772767
140,7841.12961746535729973403487018789490,7839.6,1.52961746535729973403487018789490
141,7953.53105116195006030564617093163388,7952.0,1.53105116195006030564617093163388
142,8066.73247472036036642678790102861057,8065.2,1.53247472036036642678790102861057
143,8180.73388828305054072416104077418535,8179.2,1.53388828305054072416104077418535
144,8295.53529198950094405788428441689007,8294.0,1.53529198950094405788428441689007
145,8411.13668597629264249926929961255106,8409.6,1.53668597629264249926929961255106
146,8527.53807037718722956188522322162327,8526.0,1.53807037718722956188522322162327
147,8644.73944532320391797299792573776392,8643.2,1.53944532320391797299792573776392
148,8762.74081094269401631443677538391110,8761.2,1.54081094269401631443677538391110
149,8881.54216736141289233386934886329677,8880.0,1.54216736141289233386934886329677
150,9001.14351470258952656738604185589239,8999.6,1.54351470258952656738604185589239
151,9121.54485308699375218767621815900960,9120.0,1.54485308699375218767621815900960
152,9242.74618263300127137699086859859751,9241.2,1.54618263300127137699086859859751
153,9364.74750345665653717461315966145945,9363.2,1.54750345665653717461315966145945
154,9487.54881567173358469810544540862756,9486.0,1.54881567173358469810544540862756
155,9611.15011938979488997435357706782781,9609.6,1.55011938979488997435357706782781
156,9735.55141472024833424679994593419212,9734.0,1.55141472024833424679994593419212
157,9860.75270177040234480549603310978368,9859.2,1.55270177040234480549603310978368
158,9986.75398064551928415810606133384370,9985.2,1.55398064551928415810606133384370
159,10113.5552514488671512147242452729065,10112.0,1.5552514488671512147242452729065
160,10241.1565142817696608240743983538321,10239.6,1.5565142817696608240743983538321
161,10369.5577692436547601572424350472618,10368.0,1.5577692436547601572424350472618
162,10498.7590164321016414000737567039265,10497.2,1.5590164321016414000737567039265
163,10628.7602559428863056075659490817979,10627.2,1.5602559428863056075659490817979
164,10759.5614878700257323568849807547066,10758.0,1.5614878700257323568849807547066
165,10891.1627123058207037992556715836353,10889.6,1.5627123058207037992556715836353
166,11023.5639293408973336263493944117676,11022.0,1.5639293408973336263493944117676
167,11156.7651390642473481835240257500717,11155.2,1.5651390642473481835240257500717
168,11290.7663415632671624188666778782077,11289.2,1.5663415632671624188666778782077
169,11425.5675369237957957301663989068858,11424.0,1.5675369237957957301663989068858
170,11561.1687252301516674529721982902851,11559.6,1.5687252301516674529721982902851
171,11697.5699065651683121842361941889688,11696.0,1.5699065651683121842361941889688
172,11834.7710810102290528082404740504525,11833.2,1.5710810102290528082404740504525
173,11972.7722486453006666271807949748470,11971.2,1.5722486453006666271807949748470
174,12111.5734095489660804399641567979288,12110.0,1.5734095489660804399641567979288
175,12251.1745637984561285541969047841912,12249.6,1.5745637984561285541969047841912
176,12391.5757114696804034377620535424818,12390.0,1.5757114696804034377620535424818
177,12532.7768526372572322705694092491824,12531.2,1.5768526372572322705694092491824
178,12674.7779873745428085509227685717892,12673.2,1.5779873745428085509227685717892
179,12817.5791157536595052014987151361449,12816.0,1.5791157536595052014987151361449
180,12961.1802378455234001213865348958578,12959.6,1.5802378455234001213865348958578
181,13105.5813537198710368328262894444983,13104.0,1.5813537198710368328262894444983
182,13250.7824634452854479180835275584189,13249.2,1.5824634452854479180835275584189
183,13396.7835670892214642957885770619758,13395.2,1.5835670892214642957885770619758
184,13543.5846647180303345783317702749258,13542.0,1.5846647180303345783317702749258
185,13691.1857563969836763184951952100863,13689.6,1.5857563969836763184951952100863
186,13839.5868421902967801139966687405879,13838.0,1.5868421902967801139966687405879
187,13988.7879221611512903705044482380019,13987.2,1.5879221611512903705044482380019
188,14138.7889963717172781594970632943664,14137.2,1.5889963717172781594970632943664
189,14289.5900648831747299021175561359717,14288.0,1.5900648831747299021175561359717
190,14441.1911277557344675301609220707976,14439.6,1.5911277557344675301609220707976
191,14593.5921850486585193468080408614382,14592.0,1.5921850486585193468080408614382
192,14746.7932368202799579693709526171423,14745.2,1.5932368202799579693709526171423
193,14900.7942831280222236579618579848474,14899.2,1.5942831280222236579618579848474
194,15055.5953240284179463709319632989528,15054.0,1.5953240284179463709319632989528
195,15211.1963595771272844795054426131321,15209.6,1.5963595771272844795054426131321
196,15367.5973898289557938335741713874111,15366.0,1.5973898289557938335741713874111
197,15524.7984148378718415540428019997933,15523.2,1.5984148378718415540428019997933
198,15682.7994346570235787137722396291511,15681.2,1.5994346570235787137722396291511
199,15841.6004493387554847410469877785349,15840.0,1.6004493387554847410469877785349
200,16001.2014589346244974858372972309671,15999.6,1.6014589346244974858372972309671
201,16161.6024634954157399253477989745369,16160.0,1.6024634954157399253477989745369
202,16322.8034630711578568850801557028041,16321.2,1.6034630711578568850801557028041
203,16484.8044577111379724302061852214671,16483.2,1.6044577111379724302061852214671
204,16647.6054474639162795422332581054129,16646.0,1.6054474639162795422332581054129
205,16811.2064323773402720463933368340805,16809.6,1.6064323773402720463933368340805
206,16975.6074124985586318085759744339218,16974.0,1.6074124985586318085759744339218
207,17140.8083878740347770725551793211048,17139.2,1.6083878740347770725551793211048
208,17306.8093585495600861590408838657851,17305.2,1.6093585495600861590408838657851
209,17473.6103245702668022695127761894361,17472.0,1.6103245702668022695127761894361
210,17641.2112859806406308905652549438725,17639.6,1.6112859806406308905652549438725
211,17809.6122428245330371578534336995623,17808.0,1.6122428245330371578534336995623
212,17978.8131951451732534068984953661984,17977.2,1.6131951451732534068984953661984
213,18148.8141429851800012887778268573799,18147.2,1.6141429851800012887778268573799
214,18319.6150863865729434265230144873042,18318.0,1.6150863865729434265230144873042
215,18491.2160253907838638185936770510832,18489.6,1.6160253907838638185936770510832
216,18663.6169600386675909440225110009695,18662.0,1.6169600386675909440225110009695
217,18836.8178903705126675284142178090004,18835.2,1.6178903705126675284142178090004
218,19010.8188164260517759433907482689846,19009.2,1.6188164260517759433907482689846
219,19185.6197382444719225125658974537742,19184.0,1.6197382444719225125658974537742
220,19361.2206558644243932323230242456950,19359.6,1.6206558644243932323230242456950
221,19537.6215693240344788098378847818351,19536.0,1.6215693240344788098378847818351
222,19714.8224786609109862158640334334195,19713.2,1.6224786609109862158640334334195
223,19892.8233839121555303132691553970744,19891.2,1.6233839121555303132691553970744
224,20071.6242851143716206207778839865652,20070.0,1.6242851143716206207778839865652
225,20251.2251823036735457686257178830317,20249.6,1.6251823036735457686257178830317
226,20431.6260755156950591842296818395436,20430.0,1.6260755156950591842296818395436
227,20612.8269647855978746508875206473829,20611.2,1.6269647855978746508875206473829
228,20794.8278501480799735498769270906237,20793.2,1.6278501480799735498769270906237
229,20977.6287316373837309382708820155991,20976.0,1.6287316373837309382708820155991
230,21161.2296092873038651488806580685232,21159.6,1.6296092873038651488806580685232
231,21345.6304831311952127017704335843072,21344.0,1.6304831311952127017704335843072
232,21530.8313532019803389364378889209949,21529.2,1.6313532019803389364378889209949
233,21716.8322195321569793503437266986714,21715.2,1.6322195321569793503437266986714
234,21903.6330821538053277900375861932031,21902.0,1.6330821538053277900375861932031
235,22091.2339410985951646661644318940562,22089.6,1.6339410985951646661644318940562
236,22279.6347963977928348913084759338511,22278.0,1.6347963977928348913084759338511
237,22468.8356480822680791609928466651277,22467.2,1.6356480822680791609928466651277
238,22658.8364961825007203090412822783392,22657.2,1.6364961825007203090412822783392
