Eigenstate,Energy,Kinetic Energy,Potential Energy
1,0.500000000015532998989442676740269456,0.0,0.500000000015532998989442676740269456
2,1.84623093775250591138503785114010253,1.2,0.64623093775250591138503785114010253
3,3.93633761000280407358411638862707417,3.2,0.73633761000280407358411638862707417
4,6.79966527843458072760087982109891072,6.0,0.79966527843458072760087982109891072
5,10.4480465763602435020175630550581669,9.6,0.8480465763602435020175630550581669
6,14.8870659985330367804729435510484420,14.0,0.8870659985330367804729435510484420
7,20.1197208263904646823558368790714940,19.2,0.9197208263904646823558368790714940
8,26.1477838463091262526614984808684526,25.2,0.9477838463091262526614984808684526
9,32.9723835572951026780141598519155917,32.0,0.9723835572951026780141598519155917
10,40.5942802134968428095368889580745770,39.6,0.9942802134968428095368889580745770
11,49.0140093850553029580005005752492967,48.0,1.0140093850553029580005005752492967
12,58.2319621672750533928140620416935994,57.2,1.0319621672750533928140620416935994
13,68.2484326902218564581195564675217983,67.2,1.0484326902218564581195564675217983
14,79.0636476515788202268118148908507749,78.0,1.0636476515788202268118148908507749
15,90.6777854324605786348130698833442576,89.6,1.0777854324605786348130698833442576
16,103.090988902283733629069391335601412,102.0,1.090988902283733629069391335601412
17,116.303374252228357704758473861335236,115.2,1.103374252228357704758473861335236
18,130.315037246244192249776506568347237,129.2,1.115037246244192249776506568347237
19,145.126057744154624459331228645492449,144.0,1.126057744154624459331228645492449
20,160.736503039290623328101415697152744,159.6,1.136503039290623328101415697152744
21,177.146430364572436533393258738437870,176.0,1.146430364572436533393258738437870
22,194.355888803668330370546523483264711,193.2,1.155888803668330370546523483264711
23,212.364920768931114272895709939590148,211.2,1.164920768931114272895709939590148
24,231.173563158798562876938521804615728,230.0,1.173563158798562876938521804615728
25,250.781848274589342347864680200297480,249.6,1.181848274589342347864680200297480
26,271.189804554310598083376991305969945,270.0,1.189804554310598083376991305969945
27,292.397457165620530515953519453030486,291.2,1.197457165620530515953519453030486
28,314.404828489187434926870836826550820,313.2,1.204828489187434926870836826550820
29,337.211938515891653365377812068001760,336.0,1.211938515891653365377812068001760
30,360.818805175667399198209592578565005,359.6,1.218805175667399198209592578565005
31,385.225444611635476315331654876934607,384.0,1.225444611635476315331654876934607
32,410.431871410100015433642740459333466,409.2,1.231871410100015433642740459333466
33,436.438098794672702136653715580457262,435.2,1.238098794672702136653715580457262
34,463.244138791037425022322224942672158,462.0,1.244138791037425022322224942672158
35,490.850002367529077265773602521212335,489.6,1.250002367529077265773602521212335
36,519.255699555666766025289121182958428,518.0,1.255699555666766025289121182958428
37,548.461239553977599571587294253833355,547.2,1.261239553977599571587294253833355
38,578.466630817816803277412813492609207,577.2,1.266630817816803277412813492609207
39,609.271881137392066955034455553040743,608.0,1.271881137392066955034455553040743
40,640.876997705804205245792503763030599,639.6,1.276997705804205245792503763030599
41,673.281987178599462492183638474823463,672.0,1.281987178599462492183638474823463
42,706.486855726073800921521474458947630,705.2,1.286855726073800921521474458947630
43,740.491609079363024625340170080262499,739.2,1.291609079363024625340170080262499
44,775.296252571184497803242017029335538,774.0,1.296252571184497803242017029335538
45,810.900791171958646170924111607446313,809.6,1.300791171958646170924111607446313
46,847.305229521925294149551817913588675,846.0,1.305229521925294149551817913588675
47,884.509571959776413841337132023199920,883.2,1.309571959776413841337132023199920
48,922.513822548249275431950256102330147,921.2,1.313822548249275431950256102330147
49,961.317985097059326116511599052601904,960.0,1.317985097059326116511599052601904
50,1000.92206318349800193227108812767741,999.6,1.32206318349800193227108812767741
51,1041.32606017097520991862003753302922,1040.0,1.32606017097520991862003753302922
52,1082.52997922574787281079057797089330,1081.2,1.32997922574787281079057797089330
53,1124.53382333204347835505934595015898,1123.2,1.33382333204347835505934595015898
54,1167.33759530576001420182250697253992,1166.0,1.33759530576001420182250697253992
55,1210.94129780690019384040288801175121,1209.6,1.34129780690019384040288801175121
56,1255.34493335087780446932952884526814,1254.0,1.34493335087780446932952884526814
57,1300.54850431881680873071498310965712,1299.2,1.34850431881680873071498310965712
58,1346.55201296694903505106817321092678,1345.2,1.35201296694903505106817321092678
59,1393.35546143520353738360844391758564,1392.0,1.35546143520353738360844391758564
60,1440.95885175506968063944670826437290,1439.6,1.35885175506968063944670826437290
61,1489.36218585680644386749720552103701,1488.0,1.36218585680644386749720552103701
62,1538.56546557606213223787180518195205,1537.2,1.36546557606213223787180518195205
63,1588.56869265996144699448986818807637,1587.2,1.36869265996144699448986818807637
64,1639.37186877271055006271601976333521,1638.0,1.37186877271055006271601976333521
65,1690.97499550076522515786654145408263,1689.6,1.37499550076522515786654145408263
66,1743.37807435760238990137213202651824,1742.0,1.37807435760238990137213202651824
67,1796.58110678813095116005985021172407,1795.2,1.38110678813095116005985021172407
68,1850.58409417277423966320932668351842,1849.2,1.38409417277423966320932668351842
69,1905.38703783125294728131218988639904,1904.0,1.38703783125294728131218988639904
70,1960.98993902609456208220032562200648,1959.6,1.38993902609456208220032562200648
71,2017.39279896589269757647783466131620,2016.0,1.39279896589269757647783466131620
72,2074.59561880833741432181232571372074,2073.2,1.39561880833741432181232571372074
73,2132.59839966303557904923795690341257,2131.2,1.39839966303557904923795690341257
74,2191.40114259413848762607027911131990,2190.0,1.40114259413848762607027911131990
75,2251.00384862279234706893017579608823,2249.6,1.40384862279234706893017579608823
76,2311.40651872942576226361920737807573,2310.0,1.40651872942576226361920737807573
77,2372.60915385588707065017077717241927,2371.2,1.40915385588707065017077717241927
78,2434.61175490744320233322149816176162,2433.2,1.41175490744320233322149816176162
79,2497.41432275465069625785507085771985,2496.0,1.41432275465069625785507085771985
80,2561.01685823510856496542666472983737,2559.6,1.41685823510856496542666472983737
81,2625.41936215510185110239929071140324,2624.0,1.41936215510185110239929071140324
82,2690.62183529114395740467023889525037,2689.2,1.42183529114395740467023889525037
83,2756.62427839142514314607606814678545,2755.2,1.42427839142514314607606814678545
84,2823.42669217717395574804857322018757,2822.0,1.42669217717395574804857322018757
85,2891.02907734393780697122052554935641,2889.6,1.42907734393780697122052554935641
86,2959.43143456278838724439072750815657,2958.0,1.43143456278838724439072750815657
87,3028.63376448145715421545806207252231,3027.2,1.43376448145715421545806207252231
88,3098.63606772540570823119858093007887,3097.2,1.43606772540570823119858093007887
89,3169.43834489883548395059820180778643,3168.0,1.43834489883548395059820180778643
90,3241.04059658564084407972432028503989,3239.6,1.44059658564084407972432028503989
91,3313.44282335030933976406898365421912,3312.0,1.44282335030933976406898365421912
92,3386.64502573877261387675715644270475,3385.2,1.44502573877261387675715644270475
93,3460.64720427921116118595799609701057,3459.2,1.44720427921116118595799609701057
94,3535.44935948281591645609896587695042,3534.0,1.44935948281591645609896587695042
95,3611.05149184450942038345360815030036,3609.6,1.45149184450942038345360815030036
96,3687.45360184362911144455740363493133,3686.0,1.45360184362911144455740363493133
97,3764.65568994457510739379650544098459,3763.2,1.45568994457510739379650544098459
98,3842.65775659742466727221949036842960,3841.2,1.45775659742466727221949036842960
99,3921.45980223851537131743308797181693,3920.0,1.45980223851537131743308797181693
100,4001.06182729099890982402684877197034,3999.6,1.46182729099890982402684877197034
101,4081.46383216536724269981718115182464,4080.0,1.46383216536724269981718115182464
102,4162.66581725995276588848014936185944,4161.2,1.46581725995276588848014936185944
103,4244.66778296140401291552953528639878,4243.2,1.46778296140401291552953528639878
104,4327.46972964513831254988624436034689,4326.0,1.46972964513831254988624436034689
105,4411.07165767577273049952826493200581,4409.6,1.47165767577273049952826493200581
106,4495.47356740753453229546666081761842,4494.0,1.47356740753453229546666081761842
107,4580.67545918465232643633767302297235,4579.2,1.47545918465232643633767302297235
108,4666.67733334172896762634662088015002,4665.2,1.47733334172896762634662088015002
109,4753.47919020409723134576512096471751,4752.0,1.47919020409723134576512096471751
110,4841.08103008815920857305811224774106,4839.6,1.48103008815920857305811224774106
111,4929.48285330171030361651862288987433,4928.0,1.48285330171030361651862288987433
112,5018.68466014424866857965475193620574,5017.2,1.48466014424866857965475193620574
113,5108.68645090727085244877927880564016,5107.2,1.48645090727085244877927880564016
114,5199.48822587455439403349595014623002,5198.0,1.48822587455439403349595014623002
115,5291.08998532242804754227393419925056,5289.6,1.48998532242804754227393419925056
116,5383.49172952003028124365372210684106,5382.0,1.49172952003028124365372210684106
117,5476.69345872955665795062096422164288,5475.2,1.49345872955665795062096422164288
118,5570.69517320649666503457918654384729,5569.2,1.49517320649666503457918654384729
119,5665.49687319986052796163602256937038,5664.0,1.49687319986052796163602256937038
120,5761.09855895239651550168261155570779,5759.6,1.49855895239651550168261155570779
121,5857.50023070079920649350159771398394,5856.0,1.50023070079920649350159771398394
122,5954.70188867590916913600636226274525,5953.2,1.50188867590916913600636226274525
123,6052.70353310290447158278213973403266,6051.2,1.50353310290447158278213973403266
124,6151.50516420148442493729099411510403,6150.0,1.50516420148442493729099411510403
125,6251.10678218604593017983953235045866,6249.6,1.50678218604593017983953235045866
126,6351.50838726585278536011066776153772,6350.0,1.50838726585278536011066776153772
127,6452.70997964519828881117435268059588,6451.2,1.50997964519828881117435268059588
128,6554.71155952356145155370230367973731,6553.2,1.51155952356145155370230367973731
129,6657.51312709575711998587364659342021,6656.0,1.51312709575711998587364659342021
130,6761.11468255208029157259113175738504,6759.6,1.51468255208029157259113175738504
131,6865.51622607844489084350950249056813,6864.0,1.51622607844489084350950249056813
132,6970.71775785651725803217676982882817,6969.2,1.51775785651725803217676982882817
133,7076.71927806384459090700527148147990,7075.2,1.51927806384459090700527148147990
134,7183.52078687397856906883041953308254,7182.0,1.52078687397856906883041953308254
135,7291.12228445659437188147264696667297,7289.6,1.52228445659437188147264696667297
136,7399.52377097760529751418767414079928,7398.0,1.52377097760529751418767414079928
137,7508.72524659927317726694659341905248,7507.2,1.52524659927317726694659341905248
138,7618.72671148031476573749672246404563,7617.2,1.52671148031476573749672246404563
139,7729.52816577600428528324851841260505,7728.0,1.52816577600428528324851841260505
140,7841.12960963827228778506559930215265,7839.6,1.52960963827228778506559930215265
141,7953.53104321580099216254497703133981,7952.0,1.53104321580099216254497703133981
142,8066.73246665411624801710745835494777,8065.2,1.53246665411624801710745835494777
143,8180.73388009567626712904898473263620,8179.2,1.53388009567626712904898473263620
144,8295.53528367995725735506656143859363,8294.0,1.53528367995725735506656143859363
145,8411.13667754353608928501349755729344,8409.6,1.53667754353608928501349755729344
146,8527.53806182017011814788758612771015,8526.0,1.53806182017011814788758612771015
147,8644.73943664087427525408994799451301,8643.2,1.53943664087427525408994799451301
148,8762.74080213399554430295893152451453,8761.2,1.54080213399554430295893152451453
149,8881.54215842528492435650908788247250,8880.0,1.54215842528492435650908788247250
150,9001.14350563796698312022817268813621,8999.6,1.54350563796698312022817268813621
151,9121.54484389280709644516122209392147,9120.0,1.54484389280709644516122209392147
152,9242.74617330817646435042620339089423,9241.2,1.54617330817646435042620339089423
153,9364.74749400011499251582900228247154,9363.2,1.54749400011499251582900228247154
154,9487.54880608239212314379358610866097,9486.0,1.54880608239212314379358610866097
155,9611.15010966656569342657329741434622,9609.6,1.55010966656569342657329741434622
156,9735.55140486203889948507926954533569,9734.0,1.55140486203889948507926954533569
157,9860.75269177611543682590186346270998,9859.2,1.55269177611543682590186346270998
158,9986.75397051405288913459855215132001,9985.2,1.55397051405288913459855215132001
159,10113.5552411791144290780537101083137,10112.0,1.5552411791144290780537101083137
160,10241.1565038726188974534200014159027,10239.6,1.5565038726188974534200014159027
161,10369.5577586939893191797323341812524,10368.0,1.5577586939893191797323341812524
162,10498.7590057407999155932657544035670,10497.2,1.5590057407999155932657544035670
163,10628.7602451088216678999066154579710,10627.2,1.5602451088216678999066154579710
164,10759.5614768920664864211019263537423,10758.0,1.5614768920664864211019263537423
165,10891.1627011828300342335745294238378,10889.6,1.5627011828300342335745294238378
166,11023.5639180717332557183628268302534,11022.0,1.5639180717332557183628268302534
167,11156.7651276477626572514744383315577,11155.2,1.5651276477626572514744383315577
168,11290.7663299983093827250372287528905,11289.2,1.5663299983093827250372287528905
169,11425.5675252092071289610082985350920,11424.0,1.5675252092071289610082985350920
170,11561.1687133647689407605264983583095,11559.6,1.5687133647689407605264983583095
171,11697.5698945478229257833392227651066,11696.0,1.5698945478229257833392227651066
172,11834.7710688397469271239312733228310,11833.2,1.5710688397469271239312733228310
173,11972.7722363205021889866564392809781,11971.2,1.5722363205021889866564392809781
174,12111.5733970686660513033556587312689,12110.0,1.5733970686660513033556587312689
175,12251.1745511614637072783646097355962,12249.6,1.5745511614637072783646097355962
176,12391.5756986747990535672333654282686,12390.0,1.5756986747990535672333654282686
177,12532.7768396832846663496654072378369,12531.2,1.5768396832846663496654072378369
178,12674.7779742602709324510419587970381,12673.2,1.5779742602709324510419587970381
179,12817.5791024778743619574472075705429,12816.0,1.5791024778743619574472075705429
180,12961.1802244070051132705630483710936,12959.6,1.5802244070051132705630483710936
181,13105.5813401173937532509892018616879,13104.0,1.5813401173937532509892018616879
182,13250.7824496776172801453437245879054,13249.2,1.5824496776172801453437245879054
183,13396.7835531551244323463874798833734,13395.2,1.5835531551244323463874798833734
184,13543.5846506162603072276781196439851,13542.0,1.5846506162603072276781196439851
185,13691.1857421262903118608463907027379,13689.6,1.5857421262903118608463907027379
186,13839.5868277494234665840835238772016,13838.0,1.5868277494234665840835238772016
187,13988.7879075488350852223063036502178,13987.2,1.5879075488350852223063036502178
188,14138.7889815866888473952834867803802,14137.2,1.5889815866888473952834867803802
189,14289.5900499241582866447801991754670,14288.0,1.5900499241582866447801991754670
190,14441.1911126214477100317639497911664,14439.6,1.5911126214477100317639497911664
191,14593.5921697378125684261895835825590,14592.0,1.5921697378125684261895835825590
192,14746.7932213315792938715309767740334,14745.2,1.5932213315792938715309767740334
193,14900.7942674601646223278716943545035,14899.2,1.5942674601646223278716943545035
194,15055.5953081800944151343008010112690,15054.0,1.5953081800944151343008010112690
195,15211.1963435470219971229356045371761,15209.6,1.5963435470219971229356045371761
196,15367.5973736157460250764337225869340,15366.0,1.5973736157460250764337225869340
197,15524.7983984402279009042774321677054,15523.2,1.5983984402279009042774321677054
198,15682.7994180736087436997711177383940,15681.2,1.5994180736087436997711177383940
199,15841.6004325682259335115670085230483,15840.0,1.6004325682259335115670085230483
200,16001.2014419756292407698798834723489,15999.6,1.6014419756292407698798834723489
201,16161.6024463465965523437692302908884,16160.0,1.6024463465965523437692302908884
202,16322.8034457311492076055997938158652,16321.2,1.6034457311492076055997938158652
203,16484.8044401785669551573623082842117,16483.2,1.6044401785669551573623082842117
204,16647.6054297374025418337155053393955,16646.0,1.6054297374025418337155053393955
205,16811.2064144554959439470611251888461,16809.6,1.6064144554959439470611251888461
206,16975.6073943799882537933485174129532,16974.0,1.6073943799882537933485174129532
207,17140.8083695573352272892339235905308,17139.2,1.6083695573352272892339235905308
208,17306.8093400333205069619987687833834,17305.2,1.6093400333205069619987687833834
209,17473.6103058530685260350541725461604,17472.0,1.6103058530685260350541725461604
210,17641.2112670610571051046303477733839,17639.6,1.6112670610571051046303477733839
211,17809.6122237011297487666069546293202,17808.0,1.6122237011297487666069546293202
212,17978.8131758165076524206061363277257,17977.2,1.6131758165076524206061363277257
213,18148.8141234498014236292357463089815,18147.2,1.6141234498014236292357463089815
214,18319.6150666430225330081660044433177,18318.0,1.6150666430225330081660044433177
215,18491.2160054375944938532638198753060,18489.6,1.6160054375944938532638198753060
216,18663.6169398743637844592349039592226,18662.0,1.6169398743637844592349039592226
217,18836.8178699936105170888087229134793,18835.2,1.6178699936105170888087229134793
218,19010.8187958350588625649087638520262,19009.2,1.6187958350588625649087638520262
219,19185.6197174378872337587365611325160,19184.0,1.6197174378872337587365611325160
220,19361.2206348407382404818896965029733,19359.6,1.6206348407382404818896965029733
221,19537.6215480817284136847958729878415,19536.0,1.6215480817284136847958729878415
222,19714.8224571984577161588207326452587,19713.2,1.6224571984577161588207326452587
223,19892.8233622280188333028726651069341,19891.2,1.6233622280188333028726651069341
224,20071.6242632070062590137947628162937,20070.0,1.6242632070062590137947628162937
225,20251.2251601715251792570783198508294,20249.6,1.6251601715251792570783198508294
226,20431.6260531572001568558304518452535,20430.0,1.6260531572001568558304518452535
227,20612.8269421991836261408340154913210,20611.2,1.6269421991836261408340154913210
228,20794.8278273321641992718907171776797,20793.2,1.6278273321641992718907171776797
229,20977.6287085903747913825823472607221,20976.0,1.6287085903747913825823472607221
230,21161.2295860076005692346780272614691,21159.6,1.6295860076005692346780272614691
231,21345.6304596171867251714414492693945,21344.0,1.6304596171867251714414492693945
232,21530.8313294520460867787422301002649,21529.2,1.6313294520460867787422301002649
233,21716.8321955446665572394590770747259,21715.2,1.6321955446665572394590770747259
234,21903.6330579271184025272237430679767,21902.0,1.6330579271184025272237430679767
235,22091.2339166310613786105887097832922,22089.6,1.6339166310613786105887097832922
236,22279.6347716877517083663696171042561,22278.0,1.6347716877517083663696171042561
237,22468.8356231280489118222719112673736,22467.2,1.6356231280489118222719112673736
238,22658.8364709824224914597948808430289,22657.2,1.6364709824224914597948808430289
