Eigenstate,Energy,Kinetic Energy,Potential Energy
1,0.500000000610225687363470563565830210,0.0,0.500000000610225687363470563565830210
2,1.84623094163442834907039701429143576,1.2,0.64623094163442834907039701429143576
3,3.93633762140599597840441600542819736,3.2,0.73633762140599597840441600542819736
4,6.79966530218714899650636214400781950,6.0,0.79966530218714899650636214400781950
5,10.4480466175068074913540321479272637,9.6,0.8480466175068074913540321479272637
6,14.8870660622079329034720360035315870,14.0,0.8870660622079329034720360035315870
7,20.1197209177712581680490083064265541,19.2,0.9197209177712581680490083064265541
8,26.1477839705974363418140601561900586,25.2,0.9477839705974363418140601561900586
9,32.9723837197078819987598547282468636,32.0,0.9723837197078819987598547282468636
10,40.5942804192621318570819682276026282,39.6,0.9942804192621318570819682276026282
11,49.0140096394100917234553254618478128,48.0,1.0140096394100917234553254618478128
12,58.2319624754642172477879491505938278,57.2,1.0319624754642172477879491505938278
13,68.2484330574976773633708187750837231,67.2,1.0484330574976773633708187750837231
14,79.0636480832008453012440734358501609,78.0,1.0636480832008453012440734358501609
15,90.6777859336956827624923306909403546,89.6,1.0777859336956827624923306909403546
16,103.090989478406310756416425298551328,102.0,1.090989478406310756416425298551328
17,116.303374908520596380375244332292660,115.2,1.103374908520596380375244332292660
18,130.315037987996408197749257482861618,129.2,1.115037987996408197749257482861618
19,145.126058576665632984833561014817106,144.0,1.126058576665632984833561014817106
20,160.736503967868140372006836387396739,159.6,1.136503967868140372006836387396739
21,177.146431394533500925612271050963544,176.0,1.146431394533500925612271050963544
22,194.355889940339742212655339839115242,193.2,1.155889940339742212655339839115242
23,212.364922017649885937407995122969422,211.2,1.164922017649885937407995122969422
24,231.173564524912380151667942975890863,230.0,1.173564524912380151667942975890863
25,250.781849763457033964412222039945391,249.6,1.181849763457033964412222039945391
26,271.189806171302612362890054558994118,270.0,1.189806171302612362890054558994118
27,292.397458916119418214809560962930254,291.2,1.197458916119418214809560962930254
28,314.404830378588337616082131063939336,313.2,1.204830378588337616082131063939336
29,337.211940549602796860636775989958473,336.0,1.211940549602796860636775989958473
30,360.818807359110591692855478557599403,359.6,1.218807359110591692855478557599403
31,385.225446950246610969872435036532494,384.0,1.225446950246610969872435036532494
32,410.431873909329577252285949081467105,409.2,1.231873909329577252285949081467105
33,436.438101459986279020211158857997277,435.2,1.238101459986279020211158857997277
34,463.244141627916222932544093866691151,462.0,1.244141627916222932544093866691151
35,490.850005381470439471999634199304791,489.6,1.250005381470439471999634199304791
36,519.255702752184696432712952293445731,518.0,1.255702752184696432712952293445731
37,548.461242938603290153203243786548163,547.2,1.261242938603290153203243786548163
38,578.466634396099165650169969313730777,577.2,1.266634396099165650169969313730777
39,609.271884914898268155851064927724770,608.0,1.271884914898268155851064927724770
40,640.877001688120207775627956867666882,639.6,1.277001688120207775627956867666882
41,673.281991371330568706890229713791072,672.0,1.281991371330568706890229713791072
42,706.486860134845201857139581408341772,705.2,1.286860134845201857139581408341772
43,740.491613709820353353192352703244105,739.2,1.291613709820353353192352703244105
44,775.296257428994387416883327353868401,774.0,1.296257428994387416883327353868401
45,810.900796262809292512923658146920316,809.6,1.300796262809292512923658146920316
46,847.305234851527023391374867122258953,846.0,1.305234851527023391374867122258953
47,884.509577533862255034393897361288329,883.2,1.309577533862255034393897361288329
48,922.513828372575538152281941537270713,921.2,1.313828372575538152281941537270713
49,961.317991177406183329676122848014286,960.0,1.317991177406183329676122848014286
50,1000.92206952567007820883703118094745,999.6,1.32206952567007820883703118094745
51,1041.32606678080217513433380557537824,1040.0,1.32606678080217513433380557537824
52,1082.52998610908504146898975718038887,1081.2,1.32998610908504146898975718038887
53,1124.53383049477241467230296297212479,1123.2,1.33383049477241467230296297212479
54,1167.33760275378914310102773235921738,1166.0,1.33760275378914310102773235921738
55,1210.94130554616541799904033125555897,1209.6,1.34130554616541799904033125555897
56,1255.34494138734312757345923501791790,1254.0,1.34494138734312757345923501791790
57,1300.54851265847496508885807565158032,1299.2,1.34851265847496508885807565158032
58,1346.55202161582212572512584386394930,1345.2,1.35202161582212572512584386394930
59,1393.35547039934367299726359977611229,1392.0,1.35547039934367299726359977611229
60,1440.95886104055963102773701078246063,1439.6,1.35886104055963102773701078246063
61,1489.36219546976029473453358628586938,1488.0,1.36219546976029473453358628586938
62,1538.56547552262594899300686182532869,1537.2,1.36547552262594899300686182532869
63,1588.56870294631394594061989182267517,1587.2,1.36870294631394594061989182267517
64,1639.37187940506377711383981996970051,1638.0,1.37187940506377711383981996970051
65,1690.97500648536524226652964350922802,1689.6,1.37500648536524226652964350922802
66,1743.37808570072996938019816965578399,1742.0,1.37808570072996938019816965578399
67,1796.58111849610227808522269695220605,1795.2,1.38111849610227808522269695220605
68,1850.58410625194162255143180983152066,1849.2,1.38410625194162255143180983152066
69,1905.38705028800553723579875119501099,1904.0,1.38705028800553723579875119501099
70,1960.98995186685908060681664599488882,1959.6,1.38995186685908060681664599488882
71,2017.39281219713417326150178439052303,2016.0,1.39281219713417326150178439052303
72,2074.59563243655992860868116599773329,2073.2,1.39563243655992860868116599773329
73,2132.59841369478302128593169721377952,2131.2,1.39841369478302128593169721377952
74,2191.40115703599531962908599105804048,2190.0,1.40115703599531962908599105804048
75,2251.00386348138437741223681813808019,2249.6,1.40386348138437741223681813808019
76,2311.40653401142093051952754607773425,2310.0,1.40653401142093051952754607773425
77,2372.60916956799624181172498701205845,2371.2,1.40916956799624181172498701205845
78,2434.61177105642097165251308383435617,2433.2,1.41177105642097165251308383435617
79,2497.41433934729620473958480418429832,2496.0,1.41433934729620473958480418429832
80,2561.01687527826632576009664886032537,2559.6,1.41687527826632576009664886032537
81,2625.41937965566258704871703643239735,2624.0,1.41937965566258704871703643239735
82,2690.62185325604544997608386193485661,2689.2,1.42185325604544997608386193485661
83,2756.62429682765309306184805895338850,2755.2,1.42429682765309306184805895338850
84,2823.42671109176285551491400013537013,2822.0,1.42671109176285551491400013537013
85,2891.02909674397182562747261391902403,2889.6,1.42909674397182562747261391902403
86,2959.43145445540226758419299895227072,2958.0,1.43145445540226758419299895227072
87,3028.63378487383712277730901888622392,3027.2,1.43378487383712277730901888622392
88,3098.63608862479039834077126606411875,3097.2,1.43608862479039834077126606411875
89,3169.43836631251687211465035157388933,3168.0,1.43836631251687211465035157388933
90,3241.04061852096520003443352823549171,3239.6,1.44061852096520003443352823549171
91,3313.44284581467819048799393447174146,3312.0,1.44284581467819048799393447174146
92,3386.64504873964372188566531052343858,3385.2,1.44504873964372188566531052343858
93,3460.64722782409951743400372994313536,3459.2,1.44722782409951743400372994313536
94,3535.44938357929474817528227873832383,3534.0,1.44938357929474817528227873832383
95,3611.05151650021121420095509609245889,3609.6,1.45151650021121420095509609245889
96,3687.45362706624665212542305070891798,3686.0,1.45362706624665212542305070891798
97,3764.65571574186253256455972981750801,3763.2,1.45571574186253256455972981750801
98,3842.65778297719853848938789210799472,3841.2,1.45778297719853848938789210799472
99,3921.45982920865576185335453056912955,3920.0,1.45982920865576185335453056912955
100,4001.06185485945050955148361725400080,3999.6,1.46185485945050955148361725400080
101,4081.46386034014048046578966692430749,4080.0,1.46386034014048046578966692430749
102,4162.66584604912494977687769341284326,4161.2,1.46584604912494977687769341284326
103,4244.66781237312048880831785917345498,4243.2,1.46781237312048880831785917345498
104,4327.46975968761364140595851293282168,4326.0,1.46975968761364140595851293282168
105,4411.07168835729188478086793240999726,4409.6,1.47168835729188478086793240999726
106,4495.47359873645411198066274799004366,4494.0,1.47359873645411198066274799004366
107,4580.67549116940179507233070196705240,4579.2,1.47549116940179507233070196705240
108,4666.67736599081190888042369819958698,4665.2,1.47736599081190888042369819958698
109,4753.47922352609262653129730160723745,4752.0,1.47922352609262653129730160723745
110,4841.08106409172273563428803475487450,4839.6,1.48106409172273563428803475487450
111,4929.48288799557565806987678516068322,4928.0,1.48288799557565806987678516068322
112,5018.68469553722890692161914060508619,5017.2,1.48469553722890692161914060508619
113,5108.68648700825975855320698273054605,5107.2,1.48648700825975855320698273054605
114,5199.48826269252786907466403441721236,5198.0,1.48826269252786907466403441721236
115,5291.09002286644552399357243270824879,5289.6,1.49002286644552399357243270824879
116,5383.49176779923616151600515670367575,5382.0,1.49176779923616151600515670367575
117,5476.69349775318177824925745589390696,5475.2,1.49349775318177824925745589390696
118,5570.69521298385978502781627318397558,5569.2,1.49521298385978502781627318397558
119,5665.49691374036984687074923582502000,5664.0,1.49691374036984687074923582502000
120,5761.09860026555121523693870125379517,5759.6,1.49860026555121523693870125379517
121,5857.50027279619102247783817514047322,5856.0,1.50027279619102247783817514047322
122,5954.70193156322398947480232444081801,5953.2,1.50193156322398947480232444081801
123,6052.70357679192396525564490974526147,6051.2,1.50357679192396525564490974526147
124,6151.50520870208769970580911542960616,6150.0,1.50520870208769970580911542960616
125,6251.10682750821122092385148255482612,6249.6,1.50682750821122092385148255482612
126,6351.50843341965917357421626601240326,6350.0,1.50843341965917357421626601240326
127,6452.71002664082745401300474170971759,6451.2,1.51002664082745401300474170971759
128,6554.71160737129945537588525210619855,6553.2,1.51160737129945537588525210619855
129,6657.51317580599622374469629857358743,6656.0,1.51317580599622374469629857358743
130,6761.11473213532080812810716746798029,6759.6,1.51473213532080812810716746798029
131,6865.51627654529707158828137227548342,6864.0,1.51627654529707158828137227548342
132,6970.71780921770321586901093303359720,6969.2,1.51780921770321586901093303359720
133,7076.71933033020026009994956815987833,7075.2,1.51933033020026009994956815987833
134,7183.52084005645570287640702037788322,7182.0,1.52084005645570287640702037788322
135,7291.12233856626257890661285432036855,7289.6,1.52233856626257890661285432036855
136,7399.52382602565411773167354333988238,7398.0,1.52382602565411773167354333988238
137,7508.72530259701419871636969802130294,7507.2,1.52530259701419871636969802130294
138,7618.72676843918378289784420305553618,7617.2,1.52676843918378289784420305553618
139,7729.52822370756350017425809604135579,7728.0,1.52822370756350017425809604135579
140,7841.12966855421255487049756259535621,7839.6,1.52966855421255487049756259535621
141,7953.53110312794410816151510996598443,7952.0,1.53110312794410816151510996598443
142,8066.73252757441728776167487669265327,8065.2,1.53252757441728776167487669265327
143,8180.73394203622596663937700486842776,8179.2,1.53394203622596663937700486842776
144,8295.53534665298444533771871469715277,8294.0,1.53534665298444533771871469715277
145,8411.13674156141016829535728369553319,8409.6,1.53674156141016829535728369553319
146,8527.53812689540359669419997212478830,8526.0,1.53812689540359669419997212478830
147,8644.73950278612535215883324930213458,8643.2,1.53950278612535215883324930213458
148,8762.74086936207074667586911271516792,8761.2,1.54086936207074667586911271516792
149,8881.54222674914180057468220517952461,8880.0,1.54222674914180057468220517952461
150,9001.14357507071685225231663940968207,8999.6,1.54357507071685225231663940968207
151,9121.54491444771785560021216859462373,9120.0,1.54491444771785560021216859462373
152,9242.74624499867545547680572271956843,9241.2,1.54624499867545547680572271956843
153,9364.74756683979193022218734647097152,9363.2,1.54756683979193022218734647097152
154,9487.54888008500208516217294104100506,9486.0,1.54888008500208516217294104100506
155,9611.15018484603217538761537249147558,9609.6,1.55018484603217538761537249147558
156,9735.55148123245693572693184695365330,9734.0,1.55148123245693572693184695365330
157,9860.75276935175478901190175550755773,9859.2,1.55276935175478901190175550755773
158,9986.75404930936130451022163138845688,9985.2,1.55404930936130451022163138845688
159,10113.5553212087209702550314943429983,10112.0,1.5553212087209702550314943429983
160,10241.1565851513373456684251051429533,10239.6,1.5565851513373456684251051429533
161,10369.5578412368216530366962688442531,10368.0,1.5578412368216530366962688442531
162,10498.7590895629398673623239473274794,10497.2,1.5590895629398673623239473274794
163,10628.7603302256583595122424608916522,10627.2,1.5603302256583595122424608916522
164,10759.5615633191881473676991783910329,10758.0,1.5615633191881473676991783910329
165,10891.1627889360278036471737636821307,10889.6,1.5627889360278036471737636821307
166,11023.5640071670050709918598434746348,11022.0,1.5640071670050709918598434746348
167,11156.7652181013172316227329233575383,11155.2,1.5652181013172316227329233575383
168,11290.7664218265702743376999000811055,11289.2,1.5664218265702743376999000811055
169,11425.5676184288169039935173704917263,11424.0,1.5676184288169039935173704917263
170,11561.1688079925934333013552729780635,11559.6,1.5688079925934333013552729780635
171,11697.5699906009555972194815154241284,11696.0,1.5699906009555972194815154241284
172,11834.7711663355133279021906714258636,11833.2,1.5711663355133279021906714258636
173,11972.7723352764645257033199063688490,11971.2,1.5723352764645257033199063688490
174,12111.5734975026278621776299858211392,12110.0,1.5734975026278621776299858211392
175,12251.1746530914746491686267683968649,12249.6,1.5746530914746491686267683968649
176,12391.5758021191598037968916719600740,12390.0,1.5758021191598037968916719600740
177,12532.7769446605519427214080497160659,12531.2,1.5769446605519427214080497160659
178,12674.7780807892626349446820555209435,12673.2,1.5780807892626349446820555209435
179,12817.5792105776748397276278299860101,12816.0,1.5792105776748397276278299860101
180,12961.1803340969705606864901509149906,12959.6,1.5803340969705606864901509149906
181,13105.5814514171577388513263045495633,13104.0,1.5814514171577388513263045495633
182,13250.7825626070964125176561934738154,13249.2,1.5825626070964125176561934738154
183,13396.7836677345241670823432366328742,13395.2,1.5836677345241670823432366328742
184,13543.5847668660808992527820006363505,13542.0,1.5847668660808992527820006363505
185,13691.1858600673329175911501088040630,13689.6,1.5858600673329175911501088040630
186,13839.5869474027964005223114336370769,13838.0,1.5869474027964005223114336370769
187,13988.7880289359602357724704973142834,13987.2,1.5880289359602357724704973142834
188,14138.7891047293082568484595796456304,14137.2,1.5891047293082568484595796456304
189,14289.5901748443409004695919312273477,14288.0,1.5901748443409004695919312273477
190,14441.1912393415963007916269660091529,14439.6,1.5912393415963007916269660091529
191,14593.5922982806708398418684499680050,14592.0,1.5922982806708398418684499680050
192,14746.7933517202391707524434995908476,14745.2,1.5933517202391707524434995908476
193,14900.7943997180737323092519715627761,14899.2,1.5943997180737323092519715627761
194,15055.5954423310637683802040711052189,15054.0,1.5954423310637683802040711052189
195,15211.1964796152338703876126212075282,15209.6,1.5964796152338703876126212075282
196,15367.5975116257620567593051286912879,15366.0,1.5975116257620567593051286912879
197,15524.7985384169974039870503565991623,15523.2,1.5985384169974039870503565991623
198,15682.7995600424772437187573447871393,15681.2,1.5995600424772437187573447871393
199,15841.6005765549439389944927909895613,15840.0,1.6005765549439389944927909895613
200,16001.2015880063612538550290038189378,15999.6,1.6015880063612538550290038189378
201,16161.6025944479303276008191770117937,16160.0,1.6025944479303276008191770117937
202,16322.8035959301052673926199025767914,16321.2,1.6035959301052673926199025767914
203,16484.8045925026083701778570862185608,16483.2,1.6045925026083701778570862185608
204,16647.6055842144449859020700330106302,16646.0,1.6055842144449859020700330106302
205,16811.2065711139180323310144672371084,16809.6,1.6065711139180323310144672371084
206,16975.6075532486421748790737636473257,16974.0,1.6075532486421748790737636473257
207,17140.8085306655576777090501721463415,17139.2,1.6085306655576777090501721463415
208,17306.8095034109439407376465491340222,17305.2,1.6095034109439407376465491340222
209,17473.6104715304327287218189528248612,17472.0,1.6104715304327287218189528248612
210,17641.2114350690211043743725542388563,17639.6,1.6114350690211043743725542388563
211,17809.6123940710840733421688529563998,17808.0,1.6123940710840733421688529563998
212,17978.8133485803869517711426692458143,17977.2,1.6133485803869517711426692458143
213,18148.8142986400974613571378240160957,18147.2,1.6142986400974613571378240160957
214,18319.6152442927975674045980122107067,18318.0,1.6152442927975674045980122107067
215,18491.2161855804950596724218221242541,18489.6,1.6161855804950596724218221242541
216,18663.6171225446348905626592231163617,18662.0,1.6171225446348905626592231163617
217,18836.8180552261102752420552021485803,18835.2,1.6180552261102752420552021485803
218,19010.8189836652735633312871029915158,19009.2,1.6189836652735633312871029915158
219,19185.6199079019468861304056404155841,19184.0,1.6199079019468861304056404155841
220,19361.2208279754325926192672092230379,19359.6,1.6208279754325926192672092230379
221,19537.6217439245234729030166143895320,19536.0,1.6217439245234729030166143895320
222,19714.8226557875127871069791356435842,19713.2,1.6226557875127871069791356435842
223,19892.8235636022040941303239853493942,19891.2,1.6235636022040941303239853493942
224,20071.6244674059208962102675220715312,20070.0,1.6244674059208962102675220715312
225,20251.2253672355161027923841254936906,20249.6,1.6253672355161027923841254936906
226,20431.6262631273813182332725326481972,20430.0,1.6262631273813182332725326481972
227,20612.8271551174559630189996921708016,20611.2,1.6271551174559630189996921708016
228,20794.8280432412362314054639546117153,20793.2,1.6280432412362314054639546117153
229,20977.6289275337838937875520421890509,20976.0,1.6289275337838937875520421890509
230,21161.2298080297349497003260294033663,21159.6,1.6298080297349497003260294033663
231,21345.6306847633081345247014779959833,21344.0,1.6306847633081345247014779959833
232,21530.8315577683132916599848314678058,21529.2,1.6315577683132916599848314678058
233,21716.8324270781596065768091534396903,21715.2,1.6324270781596065768091534396903
234,21903.6332927258637204039254718403279,21902.0,1.6332927258637204039254718403279
235,22091.2341547440577178116378049498430,22089.6,1.6341547440577178116378049498430
236,22279.6350131649970005720574862005135,22278.0,1.6350131649970005720574862005135
237,22468.8358680205680521931447804321904,22467.2,1.6358680205680521931447804321904
238,22658.8367193422960972360336364079658,22657.2,1.6367193422960972360336364079658
