Eigenstate,Energy,Kinetic Energy,Potential Energy
1,0.500000000044134540389727284174999639,0.0,0.500000000044134540389727284174999639
2,1.84623093793920194465234849173860904,1.2,0.64623093793920194465234849173860904
3,3.93633761055120895498587887712391183,3.2,0.73633761055120895498587887712391183
4,6.79966527957684647021609417534236885,6.0,0.79966527957684647021609417534236885
5,10.4480465783388837114201063753304241,9.6,0.8480465783388837114201063753304241
6,14.8870660015948107264472395819651710,14.0,0.8870660015948107264472395819651710
7,20.1197208307841236872584254846208912,19.2,0.9197208307841236872584254846208912
8,26.1477838522844736779308410603904924,25.2,0.9477838522844736779308410603904924
9,32.9723835651025566660950571127406861,32.0,0.9723835651025566660950571127406861
10,40.5942802233872142170678227960464836,39.6,0.9942802233872142170678227960464836
11,49.0140093972796745912540170403625938,48.0,1.0140093972796745912540170403625938
12,58.2319621820847108652662104326580086,57.2,1.0319621820847108652662104326580086
13,68.2484327078682471513423552344448010,67.2,1.0484327078682471513423552344448010
14,79.0636476723135284249203809816108488,78.0,1.0636476723135284249203809816108488
15,90.6777854565353104161687262029915113,89.6,1.0777854565353104161687262029915113
16,103.090988929950307887079057931390183,102.0,1.090988929950307887079057931390183
17,116.303374283738701155655471727820253,115.2,1.103374283738701155655471727820253
18,130.315037281850337114266184669134124,129.2,1.115037281850337114266184669134124
19,145.126057784108707986251513431650875,144.0,1.126057784108707986251513431650875
20,160.736503083844888617620623940448505,159.6,1.136503083844888617620623940448505
21,177.146430413979234296754096851216050,176.0,1.146430413979234296754096851216050
22,194.355888858180121377823306081467620,193.2,1.155888858180121377823306081467620
23,212.364920828800472315058249587276636,211.2,1.164920828800472315058249587276636
24,231.173563224278178118541308155734530,230.0,1.173563224278178118541308155734530
25,250.781848345932024980809271249864491,249.6,1.181848345932024980809271249864491
26,271.189804631769282215913073291857053,270.0,1.189804631769282215913073291857053
27,292.397457249448278247845815516019650,291.2,1.197457249448278247845815516019650
28,314.404828579637440573688871493880273,313.2,1.204828579637440573688871493880273
29,337.211938613217247803622461440387964,336.0,1.211938613217247803622461440387964
30,360.818805280122054309448595109533365,359.6,1.218805280122054309448595109533365
31,385.225444723472809512337104236589444,384.0,1.225444723472809512337104236589444
32,410.431871529573794255162661341403722,409.2,1.231871529573794255162661341403722
33,436.438098922036848900225615201208017,435.2,1.238098922036848900225615201208017
34,463.244138926546021526674389790648718,462.0,1.244138926546021526674389790648718
35,490.850002511436369536021530572983942,489.6,1.250002511436369536021530572983942
36,519.255699708227169095436842692978329,518.0,1.255699708227169095436842692978329
37,548.461239715445702299872394488086036,547.2,1.261239715445702299872394488086036
38,578.466630988447373190853064717063353,577.2,1.266630988447373190853064717063353
39,609.271881317440055120190585745192993,608.0,1.271881317440055120190585745192993
40,640.876997895524751163291579406429015,639.6,1.276997895524751163291579406429015
41,673.281987378247899012977797023368983,672.0,1.281987378247899012977797023368983
42,706.486855935905659183208317493179740,705.2,1.286855935905659183208317493179740
43,740.491609299634039007159937206235496,739.2,1.291609299634039007159937206235496
44,775.296252802150610898605174085172258,774.0,1.296252802150610898605174085172258
45,810.900791413876013776521033168812023,809.6,1.300791413876013776521033168812023
46,847.305229775050290270261493881521684,846.0,1.305229775050290270261493881521684
47,884.509572224365635710290255132647163,883.2,1.309572224365635710290255132647163
48,922.513822824559548545218691684397983,921.2,1.313822824559548545218691684397983
49,961.317985385347709281994787321960117,960.0,1.317985385347709281994787321960117
50,1000.92206348402179233243361976124010,999.6,1.32206348402179233243361976124010
51,1041.32606048399194818680604396144428,1040.0,1.32606048399194818680604396144428
52,1082.52997955151534812090160048664000,1081.2,1.32997955151534812090160048664000
53,1124.53382367081973352443478659308380,1123.2,1.33382367081973352443478659308380
54,1167.33759565780335080720701603292349,1166.0,1.33759565780335080720701603292349
55,1210.94129817246917734692412936482358,1209.6,1.34129817246917734692412936482358
56,1255.34493373023126937244374769943871,1254.0,1.34493373023126937244374769943871
57,1300.54850471221386371110734524422689,1299.2,1.34850471221386371110734524422689
58,1346.55201337464906814252078695874000,1345.2,1.35201337464906814252078695874000
59,1393.35546185746622115387155342377780,1392.0,1.35546185746622115387155342377780
60,1440.95885219215497738416857460671574,1439.6,1.35885219215497738416857460671574
61,1489.36218630897461081728575480983168,1488.0,1.36218630897461081728575480983168
62,1538.56546604357372677857679105457541,1537.2,1.36546604357372677857679105457541
63,1588.56869314307733190080810657104628,1587.2,1.36869314307733190080810657104628
64,1639.37186927169189874523458566686791,1638.0,1.37186927169189874523458566686791
65,1690.97499601587352692366994977285399,1689.6,1.37499601587352692366994977285399
66,1743.37807488909945522834939261107941,1742.0,1.37807488909945522834939261107941
67,1796.58110733627891698505620129032708,1795.2,1.38110733627891698505620129032708
68,1850.58409473783557468417555095822079,1849.2,1.38409473783557468417555095822079
69,1905.38703841349045727361177813983296,1904.0,1.38703841349045727361177813983296
70,1960.98993962577139522924124737213503,1959.6,1.38993962577139522924124737213503
71,2017.39279958327234981484197866803492,2016.0,1.39279958327234981484197866803492
72,2074.59561944368373470106101242742436,2073.2,1.39561944368373470106101242742436
73,2132.59840031661277510657722636295134,2131.2,1.39840031661277510657722636295134
74,2191.40114326621113077606426277793946,2190.0,1.40114326621113077606426277793946
75,2251.00384931362537800845532844964531,2249.6,1.40384931362537800845532844964531
76,2311.40651943928449639225615019036630,2310.0,1.40651943928449639225615019036630
77,2372.60915458503720350623436720153334,2371.2,1.40915458503720350623436720153334
78,2434.61175565615081504563329080118869,2433.2,1.41175565615081504563329080118869
79,2497.41432352318226101406569590714810,2496.0,1.41432352318226101406569590714810
80,2561.01685902373095049559871959548726,2559.6,1.41685902373095049559871959548726
81,2625.41936296408232818006446352388371,2624.0,1.41936296408232818006446352388371
82,2690.62183612075020436407713143186095,2689.2,1.42183612075020436407713143186095
83,2756.62427924192525141644793545179067,2755.2,1.42427924192525141644793545179067
84,2823.42669304883643540497278107367926,2822.0,1.42669304883643540497278107367926
85,2891.02907823703159230539405940530847,2889.6,1.42907823703159230539405940530847
86,2959.43143547758284234794841704737723,2958.0,1.43143547758284234794841704737723
87,3028.63376541822207858611260728605006,3027.2,1.43376541822207858611260728605006
88,3098.63606868441134239442366951339420,3097.2,1.43606868441134239442366951339420
89,3169.43834588035251510008818524630798,3168.0,1.43834588035251510008818524630798
90,3241.04059758994041173636609350833846,3239.6,1.44059758994041173636609350833846
91,3313.44282437766304145366380773022730,3312.0,1.44282437766304145366380773022730
92,3386.64502678945251082673218442726446,3385.2,1.44502678945251082673218442726446
93,3460.64720535348978404130932548395806,3459.2,1.44720535348978404130932548395806
94,3535.44936058096627101480997974247217,3534.0,1.44936058096627101480997974247217
95,3611.05149296680499335163439449696442,3609.6,1.45149296680499335163439449696442
96,3687.45360299034387621155288638857481,3686.0,1.45360299034387621155288638857481
97,3764.65569111598352982751299070290464,3763.2,1.45569111598352982751299070290464
98,3842.65775779380171153492104707027656,3841.2,1.45775779380171153492104707027656
99,3921.45980346013650570226129760167513,3920.0,1.45980346013650570226129760167513
100,4001.06182853814011261249915639278037,3999.6,1.46182853814011261249915639278037
101,4081.46383343830500804056109687048694,4080.0,1.46383343830500804056109687048694
102,4162.66581855896410969746237939103138,4161.2,1.46581855896410969746237939103138
103,4244.66778428676647879804092354458893,4243.2,1.46778428676647879804092354458893
104,4327.46973099712997774454550883803954,4326.0,1.46973099712997774454550883803954
105,4411.07165905467221184456913893737121,4409.6,1.47165905467221184456913893737121
106,4495.47356881362099221757509907699449,4494.0,1.47356881362099221757509907699449
107,4580.67546061820547896230763813940490,4579.2,1.47546061820547896230763813940490
108,4666.67733480302908441782480700672263,4665.2,1.47733480302908441782480700672263
109,4753.47919169342514775735700467616478,4752.0,1.47919169342514775735700467616478
110,4841.08103160579632973406951055924008,4839.6,1.48103160579632973406951055924008
111,4929.48285484793861053660894945097490,4928.0,1.48285484793861053660894945097490
112,5018.68466171935072427868009641638866,5017.2,1.48466171935072427868009641638866
113,5108.68645251152980811110534558864345,5107.2,1.48645251152980811110534558864345
114,5199.48822750825399518706294709707962,5198.0,1.48822750825399518706294709707962
115,5291.08998698585264026269736415405630,5289.6,1.48998698585264026269736415405630
116,5383.49173121346481838364716141660014,5382.0,1.49173121346481838364716141660014
117,5476.69346045328670539502888552312529,5475.2,1.49346045328670539502888552312529
118,5570.69517496080840798130982478757977,5569.2,1.49517496080840798130982478757977
119,5665.49687498504077722878646877571132,5664.0,1.49687498504077722878646877571132
120,5761.09856076873271386115039600932575,5759.6,1.49856076873271386115039600932575
121,5857.50023254857943503137897779346387,5856.0,1.50023254857943503137897779346387
122,5954.70189055542215364005578884173429,5953.2,1.50189055542215364005578884173429
123,6052.70353501443958895729342841047629,6051.2,1.50353501443958895729342841047629
124,6151.50516614533170964562288509539606,6150.0,1.50516614533170964562288509539606
125,6251.10678416249608071495054836790831,6249.6,1.50678416249608071495054836790831
126,6351.50838927519717074338634760622445,6350.0,1.50838927519717074338634760622445
127,6452.70998168772895511986014141625634,6451.2,1.50998168772895511986014141625634
128,6554.71156159957112847725369245317984,6553.2,1.51156159957112847725369245317984
129,6657.51312920553922741153736213234047,6656.0,1.51312920553922741153736213234047
130,6761.11468469592894620053347319773725,6759.6,1.51468469592894620053347319773725
131,6865.51622825665491283181022449886158,6864.0,1.51622825665491283181022449886158
132,6970.71776006938417767200948382322596,6969.2,1.51776006938417767200948382322596
133,7076.71928031166465532832722561380142,7075.2,1.51928031166465532832722561380142
134,7183.52078915704874897690740674368385,7182.0,1.52078915704874897690740674368385
135,7291.12228677521236832456703679474582,7289.6,1.52228677521236832456703679474582
136,7399.52377333206954868273983033006929,7398.0,1.52377333206954868273983033006929
137,7508.72524898988286532458273634130279,7507.2,1.52524898988286532458273634130279
138,7618.72671390736982368419853034513915,7617.2,1.52671390736982368419853034513915
139,7729.52816823980540385102252915728505,7728.0,1.52816823980540385102252915728505
140,7841.12961213912092236645286166619726,7839.6,1.52961213912092236645286166619726
141,7953.53104575399936977231405341721327,7952.0,1.53104575399936977231405341721327
142,8066.73246922996737428747651133398063,8065.2,1.53246922996737428747651133398063
143,8180.73388270948393333878533746540127,8179.2,1.53388270948393333878533746540127
144,8295.53528633202604749281486081477973,8294.0,1.53528633202604749281486081477973
145,8411.13668023417138714720617475995007,8409.6,1.53668023417138714720617475995007
146,8527.53806454967811447159416283953190,8526.0,1.53806454967811447159416283953190
147,8644.73943940956197488516457601167315,8643.2,1.53943940956197488516457601167315
148,8762.74080494217077339984818350604442,8761.2,1.54080494217077339984818350604442
149,8881.54216127325633763008507846521176,8880.0,1.54216127325633763008507846521176
150,9001.14350852604407111001464981218569,8999.6,1.54350852604407111001464981218569
151,9121.54484682130019283232364800057488,9120.0,1.54484682130019283232364800057488
152,9242.74617627739675330789933284146504,9241.2,1.54617627739675330789933284146504
153,9364.74749701037451609595871268683381,9363.2,1.54749701037451609595871268683381
154,9487.54880913400378870387258854415032,9486.0,1.54880913400378870387258854415032
155,9611.15011275984328109265344578284038,9609.6,1.55011275984328109265344578284038
156,9735.55140799729706965444644663749380,9734.0,1.55140799729706965444644663749380
157,9860.75269495366973770860219695676120,9859.2,1.55269495366973770860219695676120
158,9986.75397373421976433440815763269989,9985.2,1.55397373421976433440815763269989
159,10113.5552444422112252132871914299144,10112.0,1.5552444422112252132871914299144
160,10241.1565071789638718179762403616650,10239.6,1.5565071789638718179762403616650
161,10369.5577620439016474447793882909611,10368.0,1.5577620439016474447793882909611
162,10498.7590091345996995499700166131259,10497.2,1.5590091345996995499700166131259
163,10628.7602485468299432436143922801212,10627.2,1.5602485468299432436143922801212
164,10759.5614803746052305773855630337415,10758.0,1.5614803746052305773855630337415
165,10891.1627047102221742265582521903085,10889.6,1.5627047102221742265582521903085
166,11023.5639216443026760817469396022578,11022.0,1.5639216443026760817469396022578
167,11156.7651312658342079826800593299449,11155.2,1.5651312658342079826800593299449
168,11290.7663336622088872828974903517114,11289.2,1.5663336622088872828974903517114
169,11425.5675289192613923074351334916272,11424.0,1.5675289192613923074351334916272
170,11561.1687171213057574465862152464362,11559.6,1.5687171213057574465862152464362
171,11697.5698983511710880801733626092952,11696.0,1.5698983511710880801733626092952
172,11834.7710726902362331989631727961996,11833.2,1.5710726902362331989631727961996
173,11972.7722402184634511255275873930648,11971.2,1.5722402184634511255275873930648
174,12111.5734010144311041780397508360361,12110.0,1.5734010144311041780397508360361
175,12251.1745551553654162619111736422224,12249.6,1.5745551553654162619111736422224
176,12391.5757027171713230955965112161079,12390.0,1.5757027171713230955965112161079
177,12532.7768437744624483310773540515225,12531.2,1.5768437744624483310773540515225
178,12674.7779784005902347233949098336117,12673.2,1.5779784005902347233949098336117
179,12817.5791066676722567941511550554950,12816.0,1.5791066676722567941511550554950
180,12961.1802286466197459353512754436183,12959.6,1.5802286466197459353512754436183
181,13105.5813444071643506021472514963918,13104.0,1.5813444071643506021472514963918
182,13250.7824540178841592898418046652590,13249.2,1.5824540178841592898418046652590
183,13396.7835575462290093444005960913138,13395.2,1.5835575462290093444005960913138
184,13543.5846550585451058479823110316634,13542.0,1.5846550585451058479823110316634
185,13691.1857466200989723875841291403319,13689.6,1.5857466200989723875841291403319
186,13839.5868322951007546753950914002438,13838.0,1.5868322951007546753950914002438
187,13988.7879121467269008213291006458023,13987.2,1.5879121467269008213291006458023
188,14138.7889862371422336940251726458572,14137.2,1.5889862371422336940251726458572
189,14289.5900546275214391013763776891219,14288.0,1.5900546275214391013763776891219
190,14441.1911173780699854416355734308321,14439.6,1.5911173780699854416355734308321
191,14593.5921745480444940476198853344651,14592.0,1.5921745480444940476198853344651
192,14746.7932261957725766061866179539070,14745.2,1.5932261957725766061866179539070
193,14900.7942723786721579567972129712388,14899.2,1.5942723786721579567972129712388
194,15055.5953131532702976099206147100946,15054.0,1.5953131532702976099206147100946
195,15211.1963485752215279176024290704120,15209.6,1.5963485752215279176024290704120
196,15367.5973786993257225880673539040764,15366.0,1.5973786993257225880673539040764
197,15524.7984035795455099196426634163929,15523.2,1.5984035795455099196426634163929
198,15682.7994232690232449159486953870528,15681.2,1.5994232690232449159486953870528
199,15841.6004378200975531161766451266760,15840.0,1.6004378200975531161766451266760
200,16001.2014472843194600806195137643330,15999.6,1.6014472843194600806195137643330
201,16161.6024517124681175078395957160490,16160.0,1.6024517124681175078395957160490
202,16322.8034511545661393595894113874599,16321.2,1.6034511545661393595894113874599
203,16484.8044456598945586481723893363012,16483.2,1.6044456598945586481723893363012
204,16647.6054352770074165011104956241986,16646.0,1.6054352770074165011104956241986
205,16811.2064200537459934684355004934952,16809.6,1.6064200537459934684355004934952
206,16975.6074000372526960913063030142574,16974.0,1.6074000372526960913063030142574
207,17140.8083752739846046025828964116735,17139.2,1.6083752739846046025828964116735
208,17306.8093458097266959807670031835362,17305.2,1.6093458097266959807670031835362
209,17473.6103116896047481001422900223386,17472.0,1.6103116896047481001422900223386
210,17641.2112729580979364727186609799410,17639.6,1.6112729580979364727186609799410
211,17809.6122296590511309409425219318724,17808.0,1.6122296590511309409425219318724
212,17978.8131818356869025483006488054585,17977.2,1.6131818356869025483006488054585
213,18148.8141295306172449657113695336685,18147.2,1.6141295306172449657113695336685
214,18319.6150727858550254493922108827209,18318.0,1.6150727858550254493922108827209
215,18491.2160116428251645364343321432999,18489.6,1.6160116428251645364343321432999
216,18663.6169461423755584325404305546106,18662.0,1.6169461423755584325404305546106
217,18836.8178763247877480509670452029208,18835.2,1.6178763247877480509670452029208
218,19010.8188022297873436751204073614746,19009.2,1.6188022297873436751204073614746
219,19185.6197238965542085177406671614563,19184.0,1.6197238965542085177406671614563
220,19361.2206413637324136848010516492456,19359.6,1.6206413637324136848010516492456
221,19537.6215546694399624464112645602202,19536.0,1.6215546694399624464112645602202
222,19714.8224638512783010120885731697973,19713.2,1.6224638512783010120885731697973
223,19892.8233689463416093712273927585360,19891.2,1.6233689463416093712273927585360
224,20071.6242699912258872580638749041894,20070.0,1.6242699912258872580638749041894
225,20251.2251670220378377976772352713041,20249.6,1.6251670220378377976772352713041
226,20431.6260600744035523709671132437533,20430.0,1.6260600744035523709671132437533
227,20612.8269491834770053414522784846632,20611.2,1.6269491834770053414522784846632
228,20794.8278343839483604540888971049212,20793.2,1.6278343839483604540888971049212
229,20977.6287157100520960582506153392913,20976.0,1.6287157100520960582506153392913
230,21161.2295931955749538411053539153922,21159.6,1.6295931955749538411053539153922
231,21345.6304668738637128606507186365030,21344.0,1.6304668738637128606507186365030
232,21530.8313367778327992873192406483059,21529.2,1.6313367778327992873192406483059
233,21716.8322029399717268396491581232273,21715.2,1.6322029399717268396491581232273
234,21903.6330653923523840600773557981991,21902.0,1.6330653923523840600773557981991
235,22091.2339241666361616019449217926121,22089.6,1.6339241666361616019449217926121
236,22279.6347792940809292264746636830290,22278.0,1.6347792940809292264746636830290
237,22468.8356308055478661298378441146514,22467.2,1.6356308055478661298378441146514
238,22658.8364787315081463313114495432886,22657.2,1.6364787315081463313114495432886
