Eigenstate,Energy,Kinetic Energy,Potential Energy
1,0.500000000017547480075949409977998766,0.0,0.500000000017547480075949409977998766
2,1.84623093776565537659665149880451952,1.2,0.64623093776565537659665149880451952
3,3.93633761004142948680317405487549323,3.2,0.73633761004142948680317405487549323
4,6.79966527851503282520508526149847094,6.0,0.79966527851503282520508526149847094
5,10.4480465764996024959102483393997678,9.6,0.8480465764996024959102483393997678
6,14.8870659987486814876868839314097913,14.0,0.8870659987486814876868839314097913
7,20.1197208266999136875863757021936796,19.2,0.9197208266999136875863757021936796
8,26.1477838467299715908430673022839397,25.2,0.9477838467299715908430673022839397
9,32.9723835578449789271784594143147286,32.0,0.9723835578449789271784594143147286
10,40.5942802141934113400648320202568478,39.6,0.9942802141934113400648320202568478
11,49.0140093859162433167699278905420897,48.0,1.0140093859162433167699278905420897
12,58.2319621683180583231417115770580506,57.2,1.0319621683180583231417115770580506
13,68.2484326914646288990035949554076150,67.2,1.0484326914646288990035949554076150
14,79.0636476530390714512260047506031729,78.0,1.0636476530390714512260047506031729
15,90.6777854341560270751307526266523639,89.6,1.0777854341560270751307526266523639
16,103.090988904232104134070723571802330,102.0,1.090988904232104134070723571802330
17,116.303374254447381077339911805656762,115.2,1.103374254447381077339911805656762
18,130.315037248751604972869722848434119,129.2,1.115037248751604972869722848434119
19,145.126057746968168551435277274243425,144.0,1.126057746968168551435277274243425
20,160.736503042428046290213026273470365,159.6,1.136503042428046290213026273470365
21,177.146430368051491361761715463606217,176.0,1.146430368051491361761715463606217
22,194.355888807506775617741060460807917,193.2,1.155888807506775617741060460807917
23,212.364920773146714144943492217688742,211.2,1.164920773146714144943492217688742
24,231.173563163409087357814614463770537,230.0,1.173563163409087357814614463770537
25,250.781848279612567345019166591098918,249.6,1.181848279612567345019166591098918
26,271.189804559764305589654839595528601,270.0,1.189804559764305589654839595528601
27,292.397457171522508784443326093481942,291.2,1.197457171522508784443326093481942
28,314.404828495555478656065827692436050,313.2,1.204828495555478656065827692436050
29,337.211938522743563892649221601800504,336.0,1.211938522743563892649221601800504
30,360.818805183020984700047377533153964,359.6,1.218805183020984700047377533153964
31,385.225444619508552013147014712710470,384.0,1.225444619508552013147014712710470
32,410.431871418510403804183196860030526,409.2,1.231871418510403804183196860030526
33,436.438098803638233126276979682288102,435.2,1.238098803638233126276979682288102
34,463.244138800575936264525630817248888,462.0,1.244138800575936264525630817248888
35,490.850002377658414301492890145696526,489.6,1.250002377658414301492890145696526
36,519.255699566404782525572052271545913,518.0,1.255699566404782525572052271545913
37,548.461239565342157562320038052677149,547.2,1.261239565342157562320038052677149
38,578.466630829825773365834701947475762,577.2,1.266630829825773365834701947475762
39,609.271881150063328557822927114385944,608.0,1.271881150063328557822927114385944
40,640.876997719155646818537355144803890,639.6,1.276997719155646818537355144803890
41,673.281987192648981760099975962551197,672.0,1.281987192648981760099975962551197
42,706.486855740839305111275493385504859,705.2,1.286855740839305111275493385504859
43,740.491609094862430697882201661073678,739.2,1.291609094862430697882201661073678
44,775.296252587435732687558051786580422,774.0,1.296252587435732687558051786580422
45,810.900791188979646998630927246541154,809.6,1.300791188979646998630927246541154
46,847.305229539734008490272448453347383,846.0,1.305229539734008490272448453347383
47,884.509571978390799938803131772876729,883.2,1.309571978390799938803131772876729
48,922.513822567687302440785397681074955,921.2,1.313822567687302440785397681074955
49,961.317985117338974339658551255145129,960.0,1.317985117338974339658551255145129
50,1000.92206320463726305902848198125584,999.6,1.32206320463726305902848198125584
51,1041.32606019299208726326232344999736,1040.0,1.32606019299208726326232344999736
52,1082.52997924866038155174733913922881,1081.2,1.32997924866038155174733913922881
53,1124.53382335586964577463439356865388,1123.2,1.33382335586964577463439356865388
54,1167.33759533051787992643623095671282,1166.0,1.33759533051787992643623095671282
55,1210.94129783260781008134405623281490,1209.6,1.34129783260781008134405623281490
56,1255.34493337755323626400508027385743,1254.0,1.34493337755323626400508027385743
57,1300.54850434647813418438840649241305,1299.2,1.34850434647813418438840649241305
58,1346.55201299561434557907884751705200,1345.2,1.35201299561434557907884751705200
59,1393.35546146489093795406587087110490,1392.0,1.35546146489093795406587087110490
60,1440.95885178579729001639493310289179,1439.6,1.35885178579729001639493310289179
61,1489.36218588859239485454592163866444,1488.0,1.36218588859239485454592163866444
62,1538.56546560892457192229169596478002,1537.2,1.36546560892457192229169596478002
63,1588.56869269391853699177067216948451,1587.2,1.36869269391853699177067216948451
64,1639.37186880778046676158662670914585,1638.0,1.37186880778046676158662670914585
65,1690.97499553696615996577717138261352,1689.6,1.37499553696615996577717138261352
66,1743.37807439495254949043929276366663,1742.0,1.37807439495254949043929276366663
67,1796.58110682664855771347535481614443,1795.2,1.38110682664855771347535481614443
68,1850.58409421247753112211517337309282,1849.2,1.38409421247753112211517337309282
69,1905.38703787216017759214357829054164,1904.0,1.38703787216017759214357829054164
70,1960.98993906822400144449949234367298,1959.6,1.38993906822400144449949234367298
71,2017.39279900926263269118178431523603,2016.0,1.39279900926263269118178431523603
72,2074.59561885296614864001785893183863,2073.2,1.39561885296614864001785893183863
73,2132.59839970894143302144771900996465,2131.2,1.39839970894143302144771900996465
74,2191.40114264133979895192382678534529,2190.0,1.40114264133979895192382678534529
75,2251.00384867130747094742431726237939,2249.6,1.40384867130747094742431726237939
76,2311.40651877927307164382210091933804,2310.0,1.40651877927307164382210091933804
77,2372.60915390708495648243448695425104,2371.2,1.40915390708495648243448695425104
78,2434.61175496001007382089790050247917,2433.2,1.41175496001007382089790050247917
79,2497.41432280860498110952018394185583,2496.0,1.41432280860498110952018394185583
80,2561.01685829046870964761864432968801,2559.6,1.41685829046870964761864432968801
81,2625.41936221188632109287547232014473,2624.0,1.41936221188632109287547232014473
82,2690.62183534937123744618876039025523,2689.2,1.42183534937123744618876039025523
83,2756.62427845111373750070773159808655,2755.2,1.42427845111373750070773159808655
84,2823.42669223834238845202472851463042,2822.0,1.42669223834238845202472851463042
85,2891.02907740660462209032287249913912,2889.6,1.42907740660462209032287249913912
86,2959.43143462697214912988903039993945,2958.0,1.43143462697214912988903039993945
87,3028.63376454717644776060188311372024,3027.2,1.43376454717644776060188311372024
88,3098.63606779267913912826922507297223,3097.2,1.43606779267913912826922507297223
89,3169.43834496768167894852715178513418,3168.0,1.43834496768167894852715178513418
90,3241.04059665607845124228452749607895,3239.6,1.44059665607845124228452749607895
91,3313.44282342235702872864545935958587,3312.0,1.44282342235702872864545935958587
92,3386.64502581244907611370337980521356,3385.2,1.44502581244907611370337980521356
93,3460.64720435453511025854473290793535,3459.2,1.44720435453511025854473290793535
94,3535.44935955980608828106214916757941,3534.0,1.44935955980608828106214916757941
95,3611.05149192318457349214801665545524,3609.6,1.45149192318457349214801665545524
96,3687.45360192400802724472291072111211,3686.0,1.45360192400802724472291072111211
97,3764.65569002667659043194375594296828,3763.2,1.45569002667659043194375594296828
98,3842.65775668126754549664190537249192,3841.2,1.45775668126754549664190537249192
99,3921.45980232411849634185216336803012,3920.0,1.45980232411849634185216336803012
100,4001.06182737838115719187776372454246,3999.6,1.46182737838115719187776372454246
101,4081.46383225454751214918178448810855,4080.0,1.46383225454751214918178448810855
102,4162.66581735094998161767445207803186,4161.2,1.46581735094998161767445207803186
103,4244.66778305423712384935287445649537,4243.2,1.46778305423712384935287445649537
104,4327.46972973982629260653934798793977,4326.0,1.46972973982629260653934798793977
105,4411.07165777233457885820748780492776,4409.6,1.47165777233457885820748780492776
106,4495.47356750598927366464170988576817,4494.0,1.47356750598927366464170988576817
107,4580.67545928501901132272018743977830,4579.2,1.47545928501901132272018743977830
108,4666.67733344402667260455701894694045,4665.2,1.47733344402667260455701894694045
109,4753.47919030834505932870517953417531,4752.0,1.47919030834505932870517953417531
110,4841.08103019437628908299677489090122,4839.6,1.48103019437628908299677489090122
111,4929.48285340991579305689858209276844,4928.0,1.48285340991579305689858209276844
112,5018.68466025446175050762741140175144,5017.2,1.48466025446175050762741140175144
113,5108.68645101951073784847571935479047,5107.2,1.48645101951073784847571935479047
114,5199.48822598884032159004158709093388,5198.0,1.48822598884032159004158709093388
115,5291.08998543877928391655458920848456,5289.6,1.48998543877928391655458920848456
116,5383.49172963846612134784087543376973,5382.0,1.49172963846612134784087543376973
117,5476.69345885009642522446400145514942,5475.2,1.49345885009642522446400145514942
118,5570.69517332915971172247248787170447,5569.2,1.49517332915971172247248787170447
119,5665.49687332466623539046879823065737,5664.0,1.49687332466623539046879823065737
120,5761.09855907936429435947942039282526,5759.6,1.49855907936429435947942039282526
121,5857.50023082994849710886152874352522,5856.0,1.50023082994849710886152874352522
122,5954.70188880725944175834891477312150,5953.2,1.50188880725944175834891477312150
123,6052.70353323647522666340786317112570,6051.2,1.50353323647522666340786317112570
124,6151.50516433729519341126499899985349,6150.0,1.50516433729519341126499899985349
125,6251.10678232411627374870603886636171,6249.6,1.50678232411627374870603886636171
126,6351.50838740620229677544678049361005,6350.0,1.50838740620229677544678049361005
127,6452.70997978784659215899130981146583,6451.2,1.50997978784659215899130981146583
128,6554.71155966852820253970248765348968,6553.2,1.51155966852820253970248765348968
129,6657.51312724306200622157168609413333,6656.0,1.51312724306200622157168609413333
130,6761.11468270174303286230747283739408,6759.6,1.51468270174303286230747283739408
131,6865.51622623048523947224486322483404,6864.0,1.51622623048523947224486322483404
132,6970.71775801095499905437595362484628,6969.2,1.51775801095499905437595362484628
133,7076.71927822069954243621883366839260,7075.2,1.51927822069954243621883366839260
134,7183.52078703327058256828275972060127,7182.0,1.52078703327058256828275972060127
135,7291.12228461834333245554511328783481,7289.6,1.52228461834333245554511328783481
136,7399.52377114183112420082533165168704,7398.0,1.52377114183112420082533165168704
137,7508.72524676599582333099735155521320,7507.2,1.52524676599582333099735155521320
138,7618.72671164955421896499155412318385,7617.2,1.52671164955421896499155412318385
139,7729.52816594778056827663156089857624,7728.0,1.52816594778056827663156089857624
140,7841.12960981260545825938297714097260,7839.6,1.52960981260545825938297714097260
141,7953.53104339271114324260121168889484,7952.0,1.53104339271114324260121168889484
142,8066.73246683362350853559840636069638,8065.2,1.53246683362350853559840636069638
143,8180.73388027780080192568027673789407,8179.2,1.53388027780080192568027673789407
144,8295.53528386471926757666657429411587,8294.0,1.53528386471926757666657429411587
145,8411.13667773095581268664991409935705,8409.6,1.53667773095581268664991409935705
146,8527.53806201026782939499669313587248,8526.0,1.53806201026782939499669313587248
147,8644.73943683367028622562783710487519,8643.2,1.53943683367028622562783710487519
148,8762.74080232951020439558381565882635,8761.2,1.54080232951020439558381565882635
149,8881.54215862353862078980402733464332,8880.0,1.54215862353862078980402733464332
150,9001.14350583898014124297351878406648,8999.6,1.54350583898014124297351878406648
151,9121.54484409660018004266618179889525,9120.0,1.54484409660018004266618179889525
152,9242.74617351476997595292891905893604,9241.2,1.54617351476997595292891905893604
153,9364.74749420952947370797468095017697,9363.2,1.54749420952947370797468095017697
154,9487.54880629464815487520015216554433,9486.0,1.54880629464815487520015216554433
155,9611.15010988168389632349419551095374,9609.6,1.55010988168389632349419551095374
156,9735.55140508003993416317306677392266,9734.0,1.55140508003993416317306677392266
157,9860.75269199702000420411832421862925,9859.2,1.55269199702000420411832421862925
158,9986.75397073788173075019096430630733,9985.2,1.55397073788173075019096430630733
159,10113.5552414058883274027272502857408,10112.0,1.5552414058883274027272502857408
160,10241.1565041023586762106260036109128,10239.6,1.5565041023586762106260036109128
161,10369.5577589267158436631183933476575,10368.0,1.5577589267158436631183933476575
162,10498.7590059765340929862916457384411,10497.2,1.5590059765340929862916457384411
163,10628.7602453475844475966360362876604,10627.2,1.5602453475844475966360362876604
164,10759.5614771338788603481801877843905,10758.0,1.5614771338788603481801877843905
165,10891.1627014277130371734023380316763,10889.6,1.5627014277130371734023380316763
166,11023.5639183197079656334763518695277,11022.0,1.5639183197079656334763518695277
167,11156.7651278988501956101419420063296,11155.2,1.5651278988501956101419420063296
168,11290.7663302525309148280826085649878,11289.2,1.5663302525309148280826085649878
169,11425.5675254665838642698719016662345,11424.0,1.5675254665838642698719016662345
170,11561.1687136253221332265736841122347,11559.6,1.5687136253221332265736841122347
171,11697.5698948115738741784271771122108,11696.0,1.5698948115738741784271771122108
172,11834.7710691067169753722446486772823,11833.2,1.5710691067169753722446486772823
173,11972.7722365907127264978224745225376,11971.2,1.5722365907127264978224745225376
174,12111.5733973421385133068494477643674,12110.0,1.5733973421385133068494477643674
175,12251.1745514382195751592153274928952,12249.6,1.5745514382195751592153274928952
176,12391.5756989548598552030422574679209,12390.0,1.5756989548598552030422574679209
177,12532.7768399666719764489464507662290,12531.2,1.5768399666719764489464507662290
178,12674.7779745470063728928961458636478,12673.2,1.5779745470063728928961458636478
179,12817.5791027679796021325814899380942,12816.0,1.5791027679796021325814899380942
180,12961.1802247005018704236650414429876,12959.6,1.5802247005018704236650414429876
181,13105.5813404143037928244688072524875,13104.0,1.5813404143037928244688072524875
182,13250.7824499779624161244529073717561,13249.2,1.5824499779624161244529073717561
183,13396.7835534589265276057294871598295,13395.2,1.5835534589265276057294871598295
184,13543.5846509235412738791175469357574,13542.0,1.5846509235412738791175469357574
185,13691.1857424370721116028315079472013,13689.6,1.5857424370721116028315079472013
186,13839.5868280637281110523923711996560,13838.0,1.5868280637281110523923711996560
187,13988.7879078666846363422281789646336,13987.2,1.5879078666846363422281789646336
188,14138.7889819081054177352474324925370,14137.2,1.5889819081054177352474324925370
189,14289.5900502491640397714422537196487,14288.0,1.5900502491640397714422537196487
190,14441.1911129500648608665649576371229,14439.6,1.5911129500648608665649576371229
191,14593.5921700700633836033954237450001,14592.0,1.5921700700633836033954237450001
192,14746.7932216674860920977672023056414,14745.2,1.5932216674860920977672023056414
193,14900.7942677997497747431645704648094,14899.2,1.5942677997497747431645704648094
194,15055.5953085233803456746368794136744,15054.0,1.5953085233803456746368794136744
195,15211.1963438940311828843519851126545,15209.6,1.5963438940311828843519851126545
196,15367.5973739665009966806513022630311,15366.0,1.5973739665009966806513022630311
197,15524.7983987947512428658894320608449,15523.2,1.5983987947512428658894320608449
198,15682.7994184319230947949993446404192,15681.2,1.5994184319230947949993446404192
199,15841.6004329303539871485983334827448,15840.0,1.6004329303539871485983334827448
200,16001.2014423415937453607955300004457,15999.6,1.6014423415937453607955300004457
201,16161.6024467164203116780794951115934,16160.0,1.6024467164203116780794951115934
202,16322.8034461048550812253970038857355,16321.2,1.6034461048550812253970038857355
203,16484.8044405561778587341047783177641,16483.2,1.6044405561778587341047783177641
204,16647.6054301189414475466554446368649,16646.0,1.6054301189414475466554446368649
205,16811.2064148409858808633294835055575,16809.6,1.6064148409858808633294835055575
206,16975.6073947694523082497098274421089,16974.0,1.6073947694523082497098274421089
207,17140.8083699507965432755243342906493,17139.2,1.6083699507965432755243342906493
208,17306.8093404308022865062605006517142,17305.2,1.6093404308022865062605006517142
209,17473.6103062545940295903797491125184,17472.0,1.6103062545940295903797491125184
210,17641.2112674666496519377300290474432,17639.6,1.6112674666496519377300290474432
211,17809.6122241108127173481128967304340,17808.0,1.6122241108127173481128967304340
212,17978.8131762303044808171268531135593,17977.2,1.6131762303044808171268531135593
213,18148.8141238677356098971746323235573,18147.2,1.6141238677356098971746323235573
214,18319.6150670651176355893176605261202,18318.0,1.6150670651176355893176605261202
215,18491.2160058638741319722020843009131,18489.6,1.6160058638741319722020843009131
216,18663.6169403048516385225065720348544,18662.0,1.6169403048516385225065720348544
217,18836.8178704283303290859470255729264,18835.2,1.6178704283303290859470255729264
218,19010.8187962740344364712807621210578,19009.2,1.6187962740344364712807621210578
219,19185.6197178811424359402387361547718,19184.0,1.6197178811424359402387361547718
220,19361.2206352882970001015060844919414,19359.6,1.6206352882970001015060844919414
221,19537.6215485336147231110332244821474,19536.0,1.6215485336147231110332244821474
222,19714.8224576546956313760352138309762,19713.2,1.6224576546956313760352138309762
223,19892.8233626886324743235028092453838,19891.2,1.6233626886324743235028092453838
224,20071.6242636720198102925154081887655,20070.0,1.6242636720198102925154081887655
225,20251.2251606409628901068903775365774,20249.6,1.6251606409628901068903775365774
226,20431.6260536310863418661014985784699,20430.0,1.6260536310863418661014985784699
227,20612.8269426775426655973047514207796,20611.2,1.6269426775426655973047514207796
228,20794.8278278150205395786624795013933,20793.2,1.6278278150205395786624795013933
229,20977.6287090777529454861009484573688,20976.0,1.6287090777529454861009484573688
230,21161.2295864995251170497293059460708,21159.6,1.6295864995251170497293059460708
231,21345.6304601136823140091740106918551,21344.0,1.6304601136823140091740106918551
232,21530.8313299531374317767329961294078,21529.2,1.6313299531374317767329961294078
233,21716.8321960503784417938373438203515,21715.2,1.6321960503784417938373438203515
234,21903.6330584374756787268695632871815,21902.0,1.6330584374756787268695632871815
235,22091.2339171460889676734215309308763,22089.6,1.6339171460889676734215309308763
236,22279.6347722074746010777432292172689,22278.0,1.6347722074746010777432292172689
237,22468.8356236524921689754918438800754,22467.2,1.6356236524921689754918438800754
238,22658.8364715116112442987745325625397,22657.2,1.6364715116112442987745325625397
