Eigenstate,Energy,Kinetic Energy,Potential Energy
1,0.500000000199226726122345388220360750,0.0,0.500000000199226726122345388220360750
2,1.84623093895157178510319340104016282,1.2,0.64623093895157178510319340104016282
3,3.93633761352500415722217758838642736,3.2,0.73633761352500415722217758838642736
4,6.79966528577103784430530326235287734,6.0,0.79966528577103784430530326235287734
5,10.4480465890687457349249003536518467,9.6,0.8480465890687457349249003536518467
6,14.8870660181987984299096853243901551,14.0,0.8870660181987984299096853243901551
7,20.1197208546116930439864175625554884,19.2,0.9197208546116930439864175625554884
8,26.1477838846910250463443921670401111,25.2,0.9477838846910250463443921670401111
9,32.9723836074471044819721690361072334,32.0,0.9723836074471044819721690361072334
10,40.5942802770312236171966579570810706,39.6,0.9942802770312236171966579570810706
11,49.0140094635864474065062916929221583,48.0,1.0140094635864474065062916929221583
12,58.2319622624190515955196653266300704,57.2,1.0319622624190515955196653266300704
13,68.2484328035962813954600367430933245,67.2,1.0484328035962813954600367430933245
14,79.0636477848026090811946465857852616,78.0,1.0636477848026090811946465857852616
15,90.6777855871539768658437253583018689,89.6,1.0777855871539768658437253583018689
16,103.090989080068278492529224412584670,102.0,1.090989080068278492529224412584670
17,116.303374454726887463071224206449692,115.2,1.103374454726887463071224206449692
18,130.315037475080872646083145884097363,129.2,1.115037475080872646083145884097363
19,145.126058000954987118335150002431137,144.0,1.126058000954987118335150002431137
20,160.736503325681612605423130465913548,159.6,1.136503325681612605423130465913548
21,177.146430682182462487994550666314508,176.0,1.146430682182462487994550666314508
22,194.355889154127326269949066568328318,193.2,1.155889154127326269949066568328318
23,212.364921153870597521542263124894374,211.2,1.164921153870597521542263124894374
24,231.173563579851698579377134355028450,230.0,1.173563579851698579377134355028450
25,250.781848733391008937674139870307080,249.6,1.181848733391008937674139870307080
26,271.189805052497454601117782078134217,270.0,1.189805052497454601117782078134217
27,292.397457704831085227119642826985397,291.2,1.197457704831085227119642826985397
28,314.404829071062115048117604154934208,313.2,1.204829071062115048117604154934208
29,337.211939142072875723580032105019830,336.0,1.211939142072875723580032105019830
30,360.818805847799641688420666017976969,359.6,1.218805847799641688420666017976969
31,385.225445331365350054714474639140390,384.0,1.225445331365350054714474639140390
32,410.431872179076337531854256155300128,409.2,1.231872179076337531854256155300128
33,436.438099614546569021032203852298707,435.2,1.238099614546569021032203852298707
34,463.244139663462286269997558192385177,462.0,1.244139663462286269997558192385177
35,490.850003294160809905533964475967517,489.6,1.250003294160809905533964475967517
36,519.255700538163749280444794312226079,518.0,1.255700538163749280444794312226079
37,548.461240594000790021724922331076557,547.2,1.261240594000790021724922331076557
38,578.466631917029810422239043933672257,577.2,1.266631917029810422239043933672257
39,609.271882297461229167771335509904374,608.0,1.271882297461229167771335509904374
40,640.876998928398666107037755287705036,639.6,1.276998928398666107037755287705036
41,673.281988465391247497961280494961136,672.0,1.281988465391247497961280494961136
42,706.486857078737894561556159037171518,705.2,1.286857078737894561556159037171518
43,740.491610499577447829495035461958116,739.2,1.291610499577447829495035461958116
44,775.296254060630385755644561336943252,774.0,1.296254060630385755644561336943252
45,810.900792732320326492630968932339473,809.6,1.300792732320326492630968932339473
46,847.305231154890365451720345481277813,846.0,1.305231154890365451720345481277813
47,884.509573667035824651818174062367409,883.2,1.309573667035824651818174062367409
48,922.513824331497403499024354215532598,921.2,1.313824331497403499024354215532598
49,961.317986957994058094184293752157105,960.0,1.317986957994058094184293752157105
50,1000.92206512382081345214241978105990,999.6,1.32206512382081345214241978105990
51,1041.32606219239124605386545058677803,1040.0,1.32606219239124605386545058677803
52,1082.52998132996602893824752693330859,1081.2,1.32998132996602893824752693330859
53,1124.53382552077648142181759466455721,1123.2,1.33382552077648142181759466455721
54,1167.33759758072450440307513192945340,1166.0,1.33759758072450440307513192945340
55,1210.94130016981680671563630211729464,1209.6,1.34130016981680671563630211729464
56,1255.34493580347125342422097443442951,1254.0,1.34493580347125342422097443442951
57,1300.54850686281596799236930847353163,1299.2,1.34850686281596799236930847353163
58,1346.55201560408702306446788657685246,1345.2,1.35201560408702306446788657685246
59,1393.35546416721780065737310838768856,1392.0,1.35546416721780065737310838768856
60,1440.95885458370207804920546693208211,1439.6,1.35885458370207804920546693208211
61,1489.36218878380333142537197678115171,1488.0,1.36218878380333142537197678115171
62,1538.56546860317444833675199862979961,1537.2,1.36546860317444833675199862979961
63,1588.56869578894479813595285302555913,1587.2,1.36869578894479813595285302555913
64,1639.37187200532529707761342311467751,1638.0,1.37187200532529707761342311467751
65,1690.97499883877656992875660314325972,1689.6,1.37499883877656992875660314325972
66,1743.37807780278046259613203260090029,1742.0,1.37807780278046259613203260090029
67,1796.58111034225089798616203051755288,1795.2,1.38111034225089798616203051755288
68,1850.58409783761631115229227767014862,1849.2,1.38409783761631115229227767014862
69,1905.38704160860258711382037883451968,1904.0,1.38704160860258711382037883451968
70,1960.98994291774249646200822927693445,1959.6,1.38994291774249646200822927693445
71,2017.39280297363502516555484423436494,2016.0,1.39280297363502516555484423436494
72,2074.59562293397569674512229841590293,2073.2,1.39562293397569674512229841590293
73,2132.59840390837693198020727436953148,2131.2,1.39840390837693198020727436953148
74,2191.40114696099567246309478998739936,2190.0,1.40114696099567246309478998739936
75,2251.00385311298386321353074167590989,2249.6,1.40385311298386321353074167590989
76,2311.40652334477594001099264574570535,2310.0,1.40652334477594001099264574570535
77,2372.60915859822616470302312828305126,2371.2,1.40915859822616470302312828305126
78,2434.61175977860748594990992655647557,2433.2,1.41175977860748594990992655647557
79,2497.41432775648255604600608908687967,2496.0,1.41432775648255604600608908687967
80,2561.01686336945659633233985968243161,2559.6,1.41686336945659633233985968243161
81,2625.41936742382095437369050877369138,2624.0,1.41936742382095437369050877369138
82,2690.62184069609543462275268668858331,2689.2,1.42184069609543462275268668858331
83,2756.62428393447679556022541663858277,2755.2,1.42428393447679556022541663858277
84,2823.42669786020018200794697771713181,2822.0,1.42669786020018200794697771713181
85,2891.02908316881970203602578566331497,2889.6,1.42908316881970203602578566331497
86,2959.43144053141384201952972837880897,2958.0,1.43144053141384201952972837880897
87,3028.63377059572095592949982632757260,3027.2,1.43377059572095592949982632757260
88,3098.63607398720964156531971568959819,3097.2,1.43607398720964156531971568959819
89,3169.43835131008843293331430971285251,3168.0,1.43835131008843293331430971285251
90,3241.04060314825889475972381836839043,3239.6,1.44060314825889475972381836839043
91,3313.44283006621588367415193526607989,3312.0,1.44283006621588367415193526607989
92,3386.64503260989845230204997577509051,3385.2,1.44503260989845230204997577509051
93,3460.64721130749461024974670085549061,3459.2,1.44721130749461024974670085549061
94,3535.44936667020291303679788210849117,3534.0,1.44936667020291303679788210849117
95,3611.05149919295362887640440578095106,3609.6,1.45149919295362887640440578095106
96,3687.45360935509203138253327102529670,3686.0,1.45360935509203138253327102529670
97,3764.65569762102618194027143666254109,3763.2,1.45569762102618194027143666254109
98,3842.65776444084139260164850364682520,3841.2,1.45776444084139260164850364682520
99,3921.45981025088340689698131973363374,3920.0,1.45981025088340689698131973363374
100,4001.06183547431218961137843205455578,3999.6,1.46183547431218961137843205455578
101,4081.46384052162808727189358730104972,4080.0,1.46384052162808727189358730104972
102,4162.66582579117199551609819591786576,4161.2,1.46582579117199551609819591786576
103,4244.66779166960106159923483398398052,4243.2,1.46779166960106159923483398398052
104,4327.46973853234134303240736629103128,4326.0,1.46973853234134303240736629103128
105,4411.07166674401875027050874126478402,4409.6,1.47166674401875027050874126478402
106,4495.47357665886951060434958158253260,4494.0,1.47357665886951060434958158253260
107,4580.67546862113131232949851952366986,4579.2,1.47546862113131232949851952366986
108,4666.67734296541620902479469242208003,4665.2,1.47734296541620902479469242208003
109,4753.47920001706629517996404062477354,4752.0,1.47920001706629517996404062477354
110,4841.08104009249310199164902605697086,4839.6,1.48104009249310199164902605697086
111,4929.48286349950159628596804065158031,4928.0,1.48286349950159628596804065158031
112,5018.68467053759961609209222205954353,5017.2,1.48467053759961609209222205954353
113,5108.68646149829352085553668902674463,5107.2,1.48646149829352085553668902674463
114,5199.48823666537078552211276553874228,5198.0,1.48823666537078552211276553874228
115,5291.08999631517022727498973627918699,5289.6,1.48999631517022727498973627918699
116,5383.49174071684050537567097741800837,5382.0,1.49174071684050537567097741800837
117,5476.69347013258750284668787259411063,5475.2,1.49347013258750284668787259411063
118,5570.69518481791115770271449940645848,5569.2,1.49518481791115770271449940645848
119,5665.49688502183227772309493333005718,5664.0,1.49688502183227772309493333005718
120,5761.09857098710984691654550803204573,5759.6,1.49857098710984691654550803204573
121,5857.50024295044929356155553274065591,5856.0,1.50024295044929356155553274065591
122,5954.70190114270217079288244651963680,5953.2,1.50190114270217079288244651963680
123,6052.70354578905766851161155483398154,6051.2,1.50354578905766851161155483398154
124,6151.50517710922635771644723380627060,6150.0,1.50517710922635771644723380627060
125,6251.10679531761653878764585204110268,6249.6,1.50679531761653878764585204110268
126,6351.50840062350355005770847041217612,6350.0,1.50840062350355005770847041217612
127,6452.70999323119237242507143558638517,6451.2,1.50999323119237242507143558638517
128,6554.71157334017384317984972976654490,6553.2,1.51157334017384317984972976654490
129,6657.51314114527478013745569805214504,6656.0,1.51314114527478013745569805214504
130,6761.11469683680229879405518132209504,6759.6,1.51469683680229879405518132209504
131,6865.51624060068258981371210666280323,6864.0,1.51624060068258981371210666280323
132,6970.71777261859440917987910882516548,6969.2,1.51777261859440917987910882516548
133,7076.71929306809752156231202528788782,7075.2,1.51929306809752156231202528788782
134,7183.52080212275632617453853502355835,7182.0,1.52080212275632617453853502355835
135,7291.12229995225887628867320933544124,7289.6,1.52229995225887628867320933544124
136,7399.52378672253149988684795291801096,7398.0,1.52378672253149988684795291801096
137,7508.72526259584921562059421557556421,7507.2,1.52526259584921562059421557556421
138,7618.72672773094212463752529121754502,7617.2,1.52672773094212463752529121754502
139,7729.52818228309795672877477091948227,7728.0,1.52818228309795672877477091948227
140,7841.12962640426093380468333175208035,7839.6,1.52962640426093380468333175208035
141,7953.53106024312710914874510479214643,7952.0,1.53106024312710914874510479214643
142,8066.73248394523633282656769375170530,8065.2,1.53248394523633282656769375170530
143,8180.73389765306098497643778487151056,8179.2,1.53389765306098497643778487151056
144,8295.53530150609161152845659703804452,8294.0,1.53530150609161152845659703804452
145,8411.13669564091959271145865364656644,8409.6,1.53669564091959271145865364656644
146,8527.53808019131696683818785595299608,8526.0,1.53808019131696683818785595299608
147,8644.73945528831352365624540151986377,8643.2,1.53945528831352365624540151986377
148,8762.74082106027128259430160379544965,8761.2,1.54082106027128259430160379544965
149,8881.54217763295645770500067960334592,8880.0,1.54217763295645770500067960334592
150,9001.14352512960901294591655985363271,8999.6,1.54352512960901294591655985363271
151,9121.54486367100990371330995249549209,9120.0,1.54486367100990371330995249549209
152,9242.74619337554609492835639027870140,9241.2,1.54619337554609492835639027870140
153,9364.74751435927344462605446036240524,9363.2,1.54751435927344462605446036240524
154,9487.54882673597753694657869257613011,9486.0,1.54882673597753694657869257613011
155,9611.15013061723254276560481300327444,9609.6,1.55013061723254276560481300327444
156,9735.55142611245818583051713507998843,9734.0,1.55142611245818583051713507998843
157,9860.75271332897488544965646056775442,9859.2,1.55271332897488544965646056775442
158,9986.75399237205714755328057203288534,9985.2,1.55399237205714755328057203288534
159,10113.5552633449852677996493257877506,10112.0,1.5552633449852677996493257877506
160,10241.1565263490954130643676498059405,10239.6,1.5565263490954130643676498059405
161,10369.5577814838281398097097192512755,10368.0,1.5577814838281398097097192512755
162,10498.7590288467754087956438658450348,10497.2,1.5590288467754087956438658450348
163,10628.7602685337261509864872915266811,10627.2,1.5602685337261509864872915266811
164,10759.5615006387104392904310694319633,10758.0,1.5615006387104392904310694319633
165,10891.1627252540423147328110148305224,10889.6,1.5627252540423147328110148305224
166,11023.5639424703613175793851799862454,11022.0,1.5639424703613175793851799862454
167,11156.7651523766727706426255461801767,11155.2,1.5651523766727706426255461801767
168,11290.7663550603868574606402081825287,11289.2,1.5663550603868574606402081825287
169,11425.5675506073565404115332979045838,11424.0,1.5675506073565404115332979045838
170,11561.1687391019143585070534632752990,11559.6,1.5687391019143585070534632752990
171,11697.5699206269081450607398844427724,11696.0,1.5699206269081450607398844427724
172,11834.7710952637357030979909802083286,11833.2,1.5710952637357030979909802083286
173,11972.7722630923784739111686480012204,11971.2,1.5722630923784739111686480012204
174,12111.5734241914342346040533102169225,12110.0,1.5734241914342346040533102169225
175,12251.1745786381488586113998619178453,12249.6,1.5745786381488586113998619178453
176,12391.5757265084471689007841550206299,12390.0,1.5757265084471689007841550206299
177,12532.7768678769629171181311181599024,12531.2,1.5768678769629171181311181599024
178,12674.7780028170679178321951403773025,12673.2,1.5780028170679178321951403773025
179,12817.5791314009003643238303643289415,12816.0,1.5791314009003643238303643289415
180,12961.1802536993923568673644212121148,12959.6,1.5802536993923568673644212121148
181,13105.5813697822966661535930744828764,13104.0,1.5813697822966661535930744828764
182,13250.7824797182127595507356594620510,13249.2,1.5824797182127595507356594620510
183,13396.7835835746121132536014286884766,13395.2,1.5835835746121132536014286884766
184,13543.5846814178628345634990175042999,13542.0,1.5846814178628345634990175042999
185,13691.1857733132536161080330949151645,13689.6,1.5857733132536161080330949151645
186,13839.5868593250170429704479449206545,13838.0,1.5868593250170429704479449206545
187,13988.7879395163522765300833496680837,13987.2,1.5879395163522765300833496680837
188,14138.7890139494471304513463299244142,14137.2,1.5890139494471304513463299244142
189,14289.5900826854995625534008371720352,14288.0,1.5900826854995625534008371720352
190,14441.1911457847385982127893846001127,14439.6,1.5911457847385982127893846001127
191,14593.5922033064447045227019470486650,14592.0,1.5922033064447045227019470486650
192,14746.7932553089696315922821742541186,14745.2,1.5932553089696315922821742541186
193,14900.7943018497557392910344680733566,14899.2,1.5943018497557392910344680733566
194,15055.5953429853548227803562423874404,15054.0,1.5953429853548227803562423874404
195,15211.1963787714464547658250365946002,15209.6,1.5963787714464547658250365946002
196,15367.5974092628558581634387012183070,15366.0,1.5974092628558581634387012183070
197,15524.7984345135713235564596824571190,15523.2,1.5984345135713235564596824571190
198,15682.7994545767611856062000373898023,15681.2,1.5994545767611856062000373898023
199,15841.6004695047903712519945483618528,15840.0,1.6004695047903712519945483618528
200,16001.2014793492365336419813283312463,15999.6,1.6014793492365336419813283312463
201,16161.6024841609057827725645400366815,16160.0,1.6024841609057827725645400366815
202,16322.8034839898480262142022791283564,16321.2,1.6034839898480262142022791283564
203,16484.8044788853719305797606328426604,16483.2,1.6044788853719305797606328426604
204,16647.6054688960595153519005222780482,16646.0,1.6054688960595153519005222780482
205,16811.2064540697803890364416737716301,16809.6,1.6064540697803890364416737716301
206,16975.6074344537056406620786444963503,16974.0,1.6074344537056406620786444963503
207,17140.8084100943213924987865019857682,17139.2,1.6084100943213924987865019857682
208,17306.8093810374420282180736352848994,17305.2,1.6093810374420282180736352848994
209,17473.6103473282231022397050685810690,17472.0,1.6103473282231022397050685810690
210,17641.2113090111739417623298191804206,17639.6,1.6113090111739417623298191804206
211,17809.6122661301699488388477895674428,17808.0,1.6122661301699488388477895674428
212,17978.8132187284646127255631611323874,17977.2,1.6132187284646127255631611323874
213,18148.8141668487012368849802587708798,18147.2,1.6141668487012368849802587708798
214,18319.6151105329243956199394984484416,18318.0,1.6151105329243956199394984484416
215,18491.2160498225911195473825705117416,18489.6,1.6160498225911195473825705117416
216,18663.6169847585818238683097300331877,18662.0,1.6169847585818238683097300331877
217,18836.8179153812109833951255949826204,18835.2,1.6179153812109833951255949826204
218,19010.8188417302375633110314061972685,19009.2,1.6188417302375633110314061972685
219,19185.6197638448752089366609112685328,19184.0,1.6197638448752089366609112685328
220,19361.2206817638022070144015507998786,19359.6,1.6206817638022070144015507998786
221,19537.6215955251712164150613978897981,19536.0,1.6215955251712164150613978897981
222,19714.8225051666187854666764440370265,19713.2,1.6225051666187854666764440370265
223,19892.8234107252746494687764466928026,19891.2,1.6234107252746494687764466928026
224,20071.6243122377708234539549555289753,20070.0,1.6243122377708234539549555289753
225,20251.2252097402504927558981991988504,20249.6,1.6252097402504927558981991988504
226,20431.6261032683767049244865896698030,20430.0,1.6261032683767049244865896698030
227,20612.8269928573408716335561602239255,20611.2,1.6269928573408716335561602239255
228,20794.8278785418710823943281676270634,20793.2,1.6278785418710823943281676270634
229,20977.6287603562402372295276292858593,20976.0,1.6287603562402372295276292858593
230,21161.2296383342740029973763734388210,21159.6,1.6296383342740029973763734388210
231,21345.6305125093585951577468242572692,21344.0,1.6305125093585951577468242572692
232,21530.8313829144483953924876465085411,21529.2,1.6313829144483953924876465085411
233,21716.8322495820734000685942407152371,21715.2,1.6322495820734000685942407152371
234,21903.6331125443465156935391334045342,21902.0,1.6331125443465156935391334045342
235,22091.2339718329706945371911632915621,22089.6,1.6339718329706945371911632915621
236,22279.6348274792459201225087226379696,22278.0,1.6348274792459201225087226379696
237,22468.8356795140760462086353506676289,22467.2,1.6356795140760462086353506676289
238,22658.8365279679754910009997398609529,22657.2,1.6365279679754910009997398609529
