Eigenstate,Energy,Kinetic Energy,Potential Energy
1,0.500000000031734288840213352405669002,0.0,0.500000000031734288840213352405669002
2,1.84623093785825945095627453365041028,1.2,0.64623093785825945095627453365041028
3,3.93633761031344639191111737924262548,3.2,0.73633761031344639191111737924262548
4,6.79966527908161271868870425389954502,6.0,0.79966527908161271868870425389954502
5,10.4480465774810342410385107441125888,9.6,0.8480465774810342410385107441125888
6,14.8870660002673587807273482554373323,14.0,0.8870660002673587807273482554373323
7,20.1197208288792169539505038215783908,19.2,0.9197208288792169539505038215783908
8,26.1477838496938014460531236359558712,25.2,0.9477838496938014460531236359558712
9,32.9723835617175390120750361749330288,32.0,0.9723835617175390120750361749330288
10,40.5942802190990978939776371271490300,39.6,0.9942802190990978939776371271490300
11,49.0140093919795849979350310715721515,48.0,1.0140093919795849979350310715721515
12,58.2319621756636816342463651428830418,57.2,1.0319621756636816342463651428830418
13,68.2484327002172375521548152696882788,67.2,1.0484327002172375521548152696882788
14,79.0636476633234337549783457675268135,78.0,1.0636476633234337549783457675268135
15,90.6777854460969681609729467294170810,89.6,1.0777854460969681609729467294170810
16,103.090988917954501222729483498825865,102.0,1.090988917954501222729483498825865
17,116.303374270076160722359357733171924,115.2,1.103374270076160722359357733171924
18,130.315037266411741630120101868658156,129.2,1.115037266411741630120101868658156
19,145.126057766784684061919791530875424,144.0,1.126057766784684061919791530875424
20,160.736503064526010007074257986738712,159.6,1.136503064526010007074257986738712
21,177.146430392556020741416919334735691,176.0,1.146430392556020741416919334735691
22,194.355888834543037151848319429349420,193.2,1.155888834543037151848319429349420
23,212.364920802839924547015572731745120,211.2,1.164920802839924547015572731745120
24,231.173563195884514943110430991231262,230.0,1.173563195884514943110430991231262
25,250.781848314995533559271272143773155,249.6,1.181848314995533559271272143773155
26,271.189804598180186653955486326889359,270.0,1.189804598180186653955486326889359
27,292.397457213096737431925588890851959,291.2,1.197457213096737431925588890851959
28,314.404828540413545941983156622739574,313.2,1.204828540413545941983156622739574
29,337.211938571011021063800249263572709,336.0,1.211938571011021063800249263572709
30,360.818805234823445112696100432389385,359.6,1.218805234823445112696100432389385
31,385.225444674971693090979588329566522,384.0,1.225444674971693090979588329566522
32,410.431871477759969029647533442031677,409.2,1.231871477759969029647533442031677
33,436.438098866800034060028072930063122,435.2,1.238098866800034060028072930063122
34,463.244138867775854588759879523733391,462.0,1.244138867775854588759879523733391
35,490.850002449022403883778774295832360,489.6,1.250002449022403883778774295832360
36,519.255699642058871500430434864188447,518.0,1.255699642058871500430434864188447
37,548.461239645412450428317692850541096,547.2,1.261239645412450428317692850541096
38,578.466630914438453096360866515741483,577.2,1.266630914438453096360866515741483
39,609.271881239344658724044280836153202,608.0,1.271881239344658724044280836153202
40,640.876997813231973723289589170672651,639.6,1.276997813231973723289589170672651
41,673.281987291646736581687446999270111,672.0,1.281987291646736581687446999270111
42,706.486855844885006056324735921209646,705.2,1.286855844885006056324735921209646
43,740.491609204082685162538233521213257,739.2,1.291609204082685162538233521213257
44,775.296252701957239426430611981288019,774.0,1.296252701957239426430611981288019
45,810.900791308929198300995917608523306,809.6,1.300791308929198300995917608523306
46,847.305229665238492363115708650396824,846.0,1.305229665238492363115708650396824
47,884.509572109577202296362233059904749,883.2,1.309572109577202296362233059904749
48,922.513822704682709300302891033388064,921.2,1.313822704682709300302891033388064
49,961.317985260270574023108873244875982,960.0,1.317985260270574023108873244875982
50,1000.92206335363234840062211872348088,999.6,1.32206335363234840062211872348088
51,1041.32606034817805782256613162566705,1040.0,1.32606034817805782256613162566705
52,1082.52997941016474583229007515887606,1081.2,1.32997941016474583229007515887606
53,1124.53382352382002344789238490347167,1123.2,1.33382352382002344789238490347167
54,1167.33759550504200406111645248535790,1166.0,1.33759550504200406111645248535790
55,1210.94129801383352937790112344402436,1209.6,1.34129801383352937790112344402436
56,1255.34493356560851729434541465658824,1254.0,1.34493356560851729434541465658824
57,1300.54850454149106363672932274277193,1299.2,1.34850454149106363672932274277193
58,1346.55201319771313250794308265929492,1345.2,1.35201319771313250794308265929492
59,1393.35546167420391603540310099378330,1392.0,1.35546167420391603540310099378330
60,1440.95885200245291980783163558600374,1439.6,1.35885200245291980783163558600374
61,1489.36218611271926606077350703512028,1488.0,1.36218611271926606077350703512028
62,1538.56546584065140566561045410485254,1537.2,1.36546584065140566561045410485254
63,1588.56869293337418808781377436160172,1587.2,1.36869293337418808781377436160172
64,1639.37186905509392600025440754472077,1638.0,1.37186905509392600025440754472077
65,1690.97499579226655639741726003091769,1689.6,1.37499579226655639741726003091769
66,1743.37807465836915271731290877307261,1742.0,1.37807465836915271731290877307261
67,1796.58110709831078018655436026901089,1795.2,1.38110709831078018655436026901089
68,1850.58409449251493044325828842156574,1849.2,1.38409449251493044325828842156574
69,1905.38703816070245882170369530167651,1904.0,1.38703816070245882170369530167651
70,1960.98993936540101941441703697057270,1959.6,1.38993936540101941441703697057270
71,2017.39279931520439432362205447598981,2016.0,1.39279931520439432362205447598981
72,2074.59561916780281527161273238038788,2073.2,1.39561916780281527161273238038788
73,2132.59840003280332273320456196443131,2131.2,1.39840003280332273320456196443131
74,2191.40114297435738890486655591580944,2190.0,1.40114297435738890486655591580944
75,2251.00384901361139972403358123584403,2249.6,1.40384901361139972403358123584403
76,2311.40651913099414159534334822732829,2310.0,1.40651913099414159534334822732829
77,2372.60915426835413608212439416134761,2371.2,1.40915426835413608212439416134761
78,2434.61175533095850002328120514477262,2433.2,1.41175533095850002328120514477262
79,2497.41432318936396171573044270894813,2496.0,1.41432318936396171573044270894813
80,2561.01685868116972567689774655383975,2559.6,1.41685868116972567689774655383975
81,2625.41936261266102916030809098887482,2624.0,1.41936261266102916030809098887482
82,2690.62183576035147214674907755612846,2689.2,1.42183576035147214674907755612846
83,2756.62427887243151379969691058009651,2755.2,1.42427887243151379969691058009651
84,2823.42669267012990408197870018200329,2822.0,1.42669267012990408197870018200329
85,2891.02907784899425995447101849461587,2889.6,1.42907784899425995447101849461587
86,2959.43143508009647971224527801088134,2958.0,1.43143508009647971224527801088134
87,3028.63376501116823154277071909326570,3027.2,1.43376501116823154277071909326570
88,3098.63606826767132901304997854698832,3097.2,1.43606826767132901304997854698832
89,3169.43834545380742269040076229317280,3168.0,1.43834545380742269040076229317280
90,3241.04059715347109388486783674227868,3239.6,1.44059715347109388486783674227868
91,3313.44282393115011504919888855159796,3312.0,1.44282393115011504919888855159796
92,3386.64502633277635307477858176953952,3385.2,1.44502633277635307477858176953952
93,3460.64720488653052946685960922518441,3459.2,1.44720488653052946685960922518441
94,3535.44936010360380845369131996801026,3534.0,1.44936010360380845369131996801026
95,3611.05149247891896293011758278676889,3609.6,1.45149247891896293011758278676889
96,3687.45360249181366631409899857243701,3686.0,1.45360249181366631409899857243701
97,3764.65569060668827405250510870170883,3763.2,1.45569060668827405250510870170883
98,3842.65775727362028563822735217952517,3841.2,1.45775727362028563822735217952517
99,3921.45980292894752452847459100088339,3920.0,1.45980292894752452847459100088339
100,4001.06182799582192701369677300604642,3999.6,1.46182799582192701369677300604642
101,4081.46383288473570178242792872213631,4080.0,1.46383288473570178242792872213631
102,4162.66581799402149635261859642528917,4161.2,1.46581799402149635261859642528917
103,4244.66778371032809862641479918484998,4243.2,1.46778371032809862641479918484998
104,4327.46973040907309456063048456781526,4326.0,1.46973040907309456063048456781526
105,4411.07165845487380987140317960348274,4409.6,1.47165845487380987140317960348274
106,4495.47356820195777292727910291506548,4494.0,1.47356820195777292727910291506548
107,4580.67545999455385790301847992286109,4579.2,1.47545999455385790301847992286109
108,4666.67733416726518802685739475457958,4665.2,1.47733416726518802685739475457958
109,4753.47919104542481016042844758102092,4752.0,1.47919104542481016042844758102092
110,4841.08103094543508953041729921332048,4839.6,1.48103094543508953041729921332048
111,4929.48285417509170756983377355449241,4928.0,1.48285417509170756983377355449241
112,5018.68466103389309639314267689003109,5017.2,1.48466103389309639314267689003109
113,5108.68645181333608789370537159714204,5107.2,1.48645181333608789370537159714204
114,5199.48822679719850669422689644141781,5198.0,1.48822679719850669422689644141781
115,5291.08998626180939573240079024797344,5289.6,1.48998626180939573240079024797344
116,5383.49173047630751493229557656722177,5382.0,1.49173047630751493229557656722177
117,5476.69345970288872169902009231586371,5475.2,1.49345970288872169902009231586371
118,5570.69517419704280094309933061529838,5569.2,1.49517419704280094309933061529838
119,5665.49687420778027862727607794627996,5664.0,1.49687420778027862727607794627996
120,5761.09855997784972698621876324377554,5759.6,1.49855997784972698621876324377554
121,5857.50023174394603130237161660731013,5856.0,1.50023174394603130237161660731013
122,5954.70188973691006920805050824361961,5953.2,1.50188973691006920805050824361961
123,6052.70353418192022129095582407044761,6051.2,1.50353418192022129095582407044761
124,6151.50516529867611410046508168468192,6150.0,1.50516529867611410046508168468192
125,6251.10678330157496708580491564784264,6249.6,1.50678330157496708580491564784264
126,6351.50838839988089979990442555143269,6350.0,1.50838839988089979990442555143269
127,6452.70998079788753512484560411127867,6451.2,1.50998079788753512484560411127867
128,6554.71156069507421168763663735247595,6553.2,1.51156069507421168763663735247595
129,6657.51312828625610656179566176695511,6656.0,1.51312828625610656179566176695511
130,6761.11468376172855096836546522377131,6759.6,1.51468376172855096836546522377131
131,6865.51622730740580628586146052183521,6864.0,1.51622730740580628586146052183521
132,6970.71775910495455270145454376336694,6969.2,1.51775910495455270145454376336694
133,7076.71927933192233105410627948597121,7075.2,1.51927933192233105410627948597121
134,7183.52078816186116714441536289271735,7182.0,1.52078816186116714441536289271735
135,7291.12228576444658967759156739445792,7289.6,1.52228576444658967759156739445792
136,7399.52377230559224931844296844935525,7398.0,1.52377230559224931844296844935525
137,7508.72524794756033302931899936055126,7507.2,1.52524794756033302931899936055126
138,7618.72671284906795424996093410611965,7617.2,1.52671284906795424996093410611965
139,7729.52816716538969737230599166790274,7728.0,1.52816716538969737230599166790274
140,7841.12961104845647951732295289003858,7839.6,1.52961104845647951732295289003858
141,7953.53104464695088806346713979085923,7952.0,1.53104464695088806346713979085923
142,8066.73246810639914430307574396123531,8065.2,1.53246810639914430307574396123531
143,8180.73388156925983495285496307603161,8179.2,1.53388156925983495285496307603161
144,8295.53528517500954606497361571967518,8294.0,1.53528517500954606497361571967518
145,8411.13667906022552969751870828889111,8409.6,1.53667906022552969751870828889111
146,8527.53806335866552583431757576600298,8526.0,1.53806335866552583431757576600298
147,8644.73943820134485384116518735282330,8643.2,1.53943820134485384116518735282330
148,8762.74080371661088878746184682559444,8761.2,1.54080371661088878746184682559444
149,8881.54216003021502443419236949343720,8880.0,1.54216003021502443419236949343720
150,9001.14350726538222652910046936280943,8999.6,1.54350726538222652910046936280943
151,9121.54484554287827232328845032269817,9120.0,1.54484554287827232328845032269817
152,9242.74617498107476660838757242004989,9241.2,1.54617498107476660838757242004989
153,9364.74749569601202322396792234481156,9363.2,1.54749569601202322396792234481156
154,9487.54880780145989593440440755974877,9486.0,1.54880780145989593440440755974877
155,9611.15011140897663691116596725421019,9609.6,1.55011140897663691116596725421019
156,9735.55140662796586068686502141494915,9734.0,1.55140662796586068686502141494915
157,9860.75269356573168462764381930507912,9859.2,1.55269356573168462764381930507912
158,9986.75397232753211774197236688308448,9985.2,1.55397232753211774197236688308448
159,10113.5552430166307614986642944487660,10112.0,1.5552430166307614986642944487660
160,10241.1565057343468889916213755674166,10239.6,1.5565057343468889916213755674166
161,10369.5577605801039609473988076957308,10368.0,1.5577605801039609473988076957308
162,10498.7590076514766380366635754800062,10497.2,1.5590076514766380366635754800062
163,10628.7602470442363443428162816968441,10627.2,1.5602470442363443428162816968441
164,10759.5614788523954366243425614413823,10758.0,1.5614788523954366243425614413823
165,10891.1627031682500279710827245985762,10889.6,1.5627031682500279710827245985762
166,11023.5639200824215163699794138190028,11022.0,1.5639200824215163699794138190028
167,11156.7651296838968654125937918060909,11155.2,1.5651296838968654125937918060909
168,11290.7663320600676798332749400381445,11289.2,1.5663320600676798332749400381445
169,11425.5675272967681209400439233387332,11424.0,1.5675272967681209400439233387332
170,11561.1687154783117016812795825979753,11559.6,1.5687154783117016812795825979753
171,11697.5698966875270015426376336126610,11696.0,1.5698966875270015426376336126610
172,11834.7710710057923391408322847270482,11833.2,1.5710710057923391408322847270482
173,11972.7722385130694379165820066629207,11971.2,1.5722385130694379165820066629207
174,12111.5733992879361207702046794605519,12110.0,1.5733992879361207702046794605519
175,12251.1745534076180676247660648498292,12249.6,1.5745534076180676247660648498292
176,12391.5757009480196656231055040743979,12390.0,1.5757009480196656231055040743979
177,12532.7768419837539852192473634184239,12531.2,1.5768419837539852192473634184239
178,12674.7779765881719113185654261437041,12673.2,1.5779765881719113185654261437041
179,12817.5791048333904559116170594752899,12816.0,1.5791048333904559116170594752899
180,12961.1802267903202831480170833328308,12959.6,1.5802267903202831480170833328308
181,13105.5813425286924694989084833973702,13104.0,1.5813425286924694989084833973702
182,13250.7824521170845267033862275281411,13249.2,1.5824521170845267033862275281411
183,13396.7835556229457105481191369558314,13395.2,1.5835556229457105481191369558314
184,13543.5846531126216397216766480147082,13542.0,1.5846531126216397216766480147082
185,13691.1857446513782465516547412853577,13689.6,1.5857446513782465516547412853577
186,13839.5868303034250805931908572772563,13838.0,1.5868303034250805931908572772563
187,13988.7879101319379888693361827481444,13987.2,1.5879101319379888693361827481444
188,14138.7889841990811881995699519733791,14137.2,1.5889841990811881995699519733791
189,14289.5900525660287533475141101688141,14288.0,1.5900525660287533475141101688141
190,14441.1911152929855366388932326867605,14439.6,1.5911152929855366388932326867605
191,14593.5921724392075382722584493362668,14592.0,1.5921724392075382722584493362668
192,14746.7932240630217437046447211192841,14745.2,1.5932240630217437046447211192841
193,14900.7942702218454464159750757887048,14899.2,1.5942702218454464159750757887048
194,15055.5953109722050693929594589563446,15054.0,1.5953109722050693929594589563446
195,15211.1963463697545032648115240584468,15209.6,1.5963463697545032648115240584468
196,15367.5973764692929747826472300247626,15366.0,1.5973764692929747826472300247626
197,15524.7984013247824600178497697040019,15523.2,1.5984013247824600178497697040019
198,15682.7994209893646564413430679330970,15681.2,1.5994209893646564413430679330970
199,15841.6004355153775267175908177579367,15840.0,1.6004355153775267175908177579367
200,16001.2014449543714281534830707598016,15999.6,1.6014449543714281534830707598016
201,16161.6024493571248387784905438658846,16160.0,1.6024493571248387784905438658846
202,16322.8034487736596934321993496838114,16321.2,1.6034487736596934321993496838114
203,16484.8044432532563405139092503842044,16483.2,1.6044432532563405139092503842044
204,16647.6054328444681310091584926445150,16646.0,1.6054328444681310091584926445150
205,16811.2064175951356497584883312230078,16809.6,1.6064175951356497584883312230078
206,16975.6073975524006019871457202962515,16974.0,1.6073975524006019871457202962515
207,17140.8083727627193609663508460355350,17139.2,1.6083727627193609663508460355350
208,17306.8093432718761910275355831012312,17305.2,1.6093432718761910275355831012312
209,17473.6103091249961516723817927041910,17472.0,1.6103091249961516723817927041910
210,17641.2112703665576942742599416393305,17639.6,1.6112703665576942742599416393305
211,17809.6122270404049587300257774432777,17808.0,1.6122270404049587300257774432777
212,17978.8131791897597802892985766875407,17977.2,1.6131791897597802892985766875407
213,18148.8141268572334109391104963645388,18147.2,1.6141268572334109391104963645388
214,18319.6150700848379703196117722020037,18318.0,1.6150700848379703196117722020037
215,18491.2160089139976253770580737242070,18489.6,1.6160089139976253770580737242070
216,18663.6169433855595127085319787086197,18662.0,1.6169433855595127085319787086197
217,18836.8178735398044075574353648828893,18835.2,1.6178735398044075574353648828893
218,19010.8187994164571484321972423093881,19009.2,1.6187994164571484321972423093881
219,19185.6197210546968206211273791595261,19184.0,1.6197210546968206211273791595261
220,19361.2206384931667111115378330437176,19359.6,1.6206384931667111115378330437176
221,19537.6215517699840328154164288766975,19536.0,1.6215517699840328154164288766975
222,19714.8224609227494352990119866610721,19713.2,1.6224609227494352990119866610721
223,19892.8233659885562955771563577643155,19891.2,1.6233659885562955771563577643155
224,20071.6242670039998040316156056598481,20070.0,1.6242670039998040316156056598481
225,20251.2251640051858480100067869055779,20249.6,1.6251640051858480100067869055779
226,20431.6260570277396966432148400101660,20430.0,1.6260570277396966432148400101660
227,20612.8269461068144955241499966080102,20611.2,1.6269461068144955241499966080102
228,20794.8278312770995730580387036587513,20793.2,1.6278312770995730580387036587513
229,20977.6287125728285656363850445127755,20976.0,1.6287125728285656363850445127755
230,21161.2295900277873663208328794679073,21159.6,1.6295900277873663208328794679073
231,21345.6304636753218988261846868422953,21344.0,1.6304636753218988261846868422953
232,21530.8313335483457272114835777635839,21529.2,1.6313335483457272114835777635839
233,21716.8321996793474962646483635407933,21715.2,1.6321996793474962646483635407933
234,21903.6330621003982187267129333713008,21902.0,1.6330621003982187267129333713008
235,22091.2339208431584025267551624891218,22089.6,1.6339208431584025267551624891218
236,22279.6347759388850277262685808302679,22278.0,1.6347759388850277262685808302679
237,22468.8356274184383767930888565815838,22467.2,1.6356274184383767930888565815838
238,22658.8364753122887199358703610582663,22657.2,1.6364753122887199358703610582663
