Eigenstate,Energy,Kinetic Energy,Potential Energy
1,0.500000000130636796311018207775821596,0.0,0.500000000130636796311018207775821596
2,1.84623093850384704103748777040814431,1.2,0.64623093850384704103748777040814431
3,3.93633761220982409612171965578977365,3.2,0.73633761220982409612171965578977365
4,6.79966528303159731446661453456086254,6.0,0.79966528303159731446661453456086254
5,10.4480465843233182329805273293224558,9.6,0.8480465843233182329805273293224558
6,14.8870660108553776839349950963306615,14.0,0.8870660108553776839349950963306615
7,20.1197208440733722663549626176234502,19.2,0.9197208440733722663549626176234502
8,26.1477838703582259867231632931120322,25.2,0.9477838703582259867231632931120322
9,32.9723835887186007774685866730487663,32.0,0.9723835887186007774685866730487663
10,40.5942802533046480517709192534649122,39.6,0.9942802533046480517709192534649122
11,49.0140094342585561972638596838680319,48.0,1.0140094342585561972638596838680319
12,58.2319622268858648422652267180360681,57.2,1.0319622268858648422652267180360681
13,68.2484327612531560914572647424831942,67.2,1.0484327612531560914572647424831942
14,79.0636477350442732908545833960106618,78.0,1.0636477350442732908545833960106618
15,90.6777855293745404528818062313167004,89.6,1.0777855293745404528818062313167004
16,103.090989013661229095683355733661984,102.0,1.090989013661229095683355733661984
17,116.303374379085076852646804425804582,115.2,1.103374379085076852646804425804582
18,130.315037389596496606469323930034856,129.2,1.115037389596496606469323930034856
19,145.126057905019560847436169280997153,144.0,1.126057905019560847436169280997153
20,160.736503218685942927946809814668590,159.6,1.136503218685942927946809814668590
21,177.146430563516617749066012534410613,176.0,1.146430563516617749066012534410613
22,194.355889023180604500995724606942556,193.2,1.155889023180604500995724606942556
23,212.364921010031493290919713034448380,211.2,1.164921010031493290919713034448380
24,231.173563422507868820208203950876718,230.0,1.173563422507868820208203950876718
25,250.781848561929237963497948050505181,249.6,1.181848561929237963497948050505181
26,271.189804866303618463040041456452776,270.0,1.189804866303618463040041456452776
27,292.397457503290115525931233305446437,291.2,1.197457503290115525931233305446437
28,314.404828853557962285972168392990042,313.2,1.204828853557962285972168392990042
29,337.211938907988472258793824368840164,336.0,1.211938907988472258793824368840164
30,360.818805596516864341442641453533304,359.6,1.218805596516864341442641453533304
31,385.225445062264982401725578764703368,384.0,1.225445062264982401725578764703368
32,410.431871891538031913699387088079037,409.2,1.231871891538031913699387088079037
33,436.438099307948808288502472172400169,435.2,1.238099307948808288502472172400169
34,463.244139337182345281323597887104446,462.0,1.244139337182345281323597887104446
35,490.850002947574716787935674878694058,489.6,1.250002947574716787935674878694058
36,519.255700170646246464428071928402655,518.0,1.255700170646246464428071928402655
37,548.461240204925295054315763187480110,547.2,1.261240204925295054315763187480110
38,578.466631505768376563347809211897374,577.2,1.266631505768376563347809211897374
39,609.271881863384505772270923075190834,608.0,1.271881863384505772270923075190834
40,640.876998470875858793833455128290018,639.6,1.276998470875858793833455128290018
41,673.281987983790078106261799025990173,672.0,1.281987983790078106261799025990173
42,706.486856572424560893675008846328200,705.2,1.286856572424560893675008846328200
43,740.491609967916583178780442111860362,739.2,1.291609967916583178780442111860362
44,775.296253502985018217524612689500457,774.0,1.296253502985018217524612689500457
45,810.900792148051838056245222766536196,809.6,1.300792148051838056245222766536196
46,847.305230543358450869171197494580981,846.0,1.305230543358450869171197494580981
47,884.509573027598450081700388511501763,883.2,1.309573027598450081700388511501763
48,922.513823663510764920567549592367837,921.2,1.313823663510764920567549592367837
49,961.317986260812539488061654461085511,960.0,1.317986260812539488061654461085511
50,1000.92206439679694474375179232036892,999.6,1.32206439679694474375179232036892
51,1041.32606143487566081467023565353450,1040.0,1.32606143487566081467023565353450
52,1082.52998054130742184056962068584961,1081.2,1.32998054130742184056962068584961
53,1124.53382470032156544229876329124642,1123.2,1.33382470032156544229876329124642
54,1167.33759672781796776986340139753741,1166.0,1.33759672781796776986340139753741
55,1210.94129928380126959420754026125537,1209.6,1.34129928380126959420754026125537
56,1255.34493488368722433661041644077228,1254.0,1.34493488368722433661041644077228
57,1300.54850590860179996446165819861928,1299.2,1.34850590860179996446165819861928
58,1346.55201461477886949587575534324820,1345.2,1.35201461477886949587575534324820
59,1393.35546314214957090832143959891989,1392.0,1.35546314214957090832143959891989
60,1440.95885352220539273873216545536812,1439.6,1.35885352220539273873216545536812
61,1489.36218768520747743505201660943524,1488.0,1.36218768520747743505201660943524
62,1538.56546746680633351405248517771934,1537.2,1.36546746680633351405248517771934
63,1588.56869461412890569122968777131274,1587.2,1.36869461412890569122968777131274
64,1639.37187079138363966866546601306340,1638.0,1.37187079138363966866546601306340
65,1690.97499758502864342675976652469375,1689.6,1.37499758502864342675976652469375
66,1743.37807650854319952668398903544984,1742.0,1.37807650854319952668398903544984
67,1796.58110900683862063907692367722551,1795.2,1.38110900683862063907692367722551
68,1850.58409646034068435369415059632841,1849.2,1.38409646034068435369415059632841
69,1905.38704018877257065399330128406697,1904.0,1.38704018877257065399330128406697
70,1960.98994145466429717237113299844662,1959.6,1.38994145466429717237113299844662
71,2017.39280146661204863803740686368942,2016.0,1.39280146661204863803740686368942
72,2074.59562138230849868712790376208625,2073.2,1.39562138230849868712790376208625
73,2132.59840231136316919825614730580560,2131.2,1.39840231136316919825614730580560
74,2191.40114531793005346814854678462113,2190.0,1.40114531793005346814854678462113
75,2251.00385142315809844090517953623087,2249.6,1.40385142315809844090517953623087
76,2311.40652160747869164767163492195123,2310.0,1.40652160747869164767163492195123
77,2372.60915681274299611508985375919567,2371.2,1.40915681274299611508985375919567
78,2434.61175794422081070271498916347001,2433.2,1.41175794422081070271498916347001
79,2497.41432587247158650959299915983203,2496.0,1.41432587247158650959299915983203
80,2561.01686143509729186454881809823960,2559.6,1.41686143509729186454881809823960
81,2625.41936543838596907325929507584289,2624.0,1.41936543838596907325929507584289
82,2690.62183865885406464463043394254591,2689.2,1.42183865885406464463043394254591
83,2756.62428184469492598520994844010383,2755.2,1.42428184469492598520994844010383
84,2823.42669571714023325864958671130110,2822.0,1.42669571714023325864958671130110
85,2891.02908097174057583105857029821895,2889.6,1.42908097174057583105857029821895
86,2959.43143827957086685770018905158297,2958.0,1.43143827957086685770018905158297
87,3028.63376828836583209568448011386370,3027.2,1.43376828836583209568448011386370
88,3098.63607162359038564957410417042649,3097.2,1.43607162359038564957410417042649
89,3169.43834888944932185465975793953303,3168.0,1.43834888944932185465975793953303
90,3241.04060066984040928593239595598832,3239.6,1.44060066984040928593239595598832
91,3313.44282752925465142872993618753594,3312.0,1.44282752925465142872993618753594
92,3386.64503001362719024949640146344233,3385.2,1.44503001362719024949640146344233
93,3460.64720865114206665003762446411968,3459.2,1.44720865114206665003762446411968
94,3535.44936395299380885991913304468259,3534.0,1.44936395299380885991913304468259
95,3611.05149641410859866762397520920960,3609.6,1.45149641410859866762397520920960
96,3687.45360651382756356897198194396391,3686.0,1.45360651382756356897198194396391
97,3764.65569471655455856919395716111852,3763.2,1.45569471655455856919395716111852
98,3842.65776147237062850075854712113616,3841.2,1.45776147237062850075854712113616
99,3921.45980721761718824686325988534118,3920.0,1.45980721761718824686325988534118
100,4001.06183237544981192008378287854412,3999.6,1.46183237544981192008378287854412
101,4081.46383735636439274152339891146310,4080.0,1.46383735636439274152339891146310
102,4162.66582255869730979108315171420504,4161.2,1.46582255869730979108315171420504
103,4244.66778836910112988586158949840458,4243.2,1.46778836910112988586158949840458
104,4327.46973516299726557898380258125705,4326.0,1.46973516299726557898380258125705
105,4411.07166330500691719740219477766707,4409.6,1.47166330500691719740219477766707
106,4495.47357314936153607296984351958128,4494.0,1.47357314936153607296984351958128
107,4580.67546504029396803913196690413851,4579.2,1.47546504029396803913196690413851
108,4666.67733931241135702602760227494365,4665.2,1.47733931241135702602760227494365
109,4753.47919629105081999326077758803336,4752.0,1.47919629105081999326077758803336
110,4841.08103629261884201947575593718084,4839.6,1.48103629261884201947575593718084
111,4929.48285962491527450667342164129791,4928.0,1.48285962491527450667342164129791
112,5018.68466658744277002357406357526535,5017.2,1.48466658744277002357406357526535
113,5108.68645747170243177653762569180699,5107.2,1.48645747170243177653762569180699
114,5199.48823256147640693879783555848328,5198.0,1.48823256147640693879783555848328
115,5291.08999213309811262026512656579178,5289.6,1.48999213309811262026512656579178
116,5383.49173645571073492850565996114436,5382.0,1.49173645571073492850565996114436
117,5476.69346579151460985849807354684594,5475.2,1.49346579151460985849807354684594
118,5570.69518039600405371766572621862014,5569.2,1.49518039600405371766572621862014
119,5665.49688051819417707896593520002337,5664.0,1.49688051819417707896593520002337
120,5761.09856640083819041258494127379902,5759.6,1.49856640083819041258494127379902
121,5857.50023828063567127954343915540006,5856.0,1.50023828063567127954343915540006
122,5954.70189638843224405738606735808576,5953.2,1.50189638843224405738606735808576
123,6052.70354094941109097519780983265368,6051.2,1.50354094941109097519780983265368
124,6151.50517218327669555538200077667575,6150.0,1.50517218327669555538200077667575
125,6251.10679030443118999337382941454613,6249.6,1.50679030443118999337382941454613
126,6351.50839552214366280916574243129973,6350.0,1.50839552214366280916574243129973
127,6452.70998804071276252663681214241115,6451.2,1.50998804071276252663681214241115
128,6554.71156805962291054948931633741947,6553.2,1.51156805962291054948931633741947
129,6657.51313577369442432935883116470934,6656.0,1.51313577369442432935883116470934
130,6761.11469137322783353979809464962737,6759.6,1.51469137322783353979809464962737
131,6865.51623504414265656571868132575903,6864.0,1.51623504414265656571868132575903
132,6970.71776696811088964067504883352947,6969.2,1.51776696811088964067504883352947
133,7076.71928732268544918279138127630074,7075.2,1.51928732268544918279138127630074
134,7183.52079628142379660417732591729273,7182.0,1.52079628142379660417732591729273
135,7291.12229401400695676033475686002779,7289.6,1.52229401400695676033475686002779
136,7399.52378068635413751852968891718759,7398.0,1.52378068635413751852968891718759
137,7508.72525646073314461616255690332734,7507.2,1.52525646073314461616255690332734
138,7618.72672149586677236817954251757966,7617.2,1.52672149586677236817954251757966
139,7729.52817594703534867666378542021510,7728.0,1.52817594703534867666378542021510
140,7841.12961996617559734977968245725159,7839.6,1.52961996617559734977968245725159
141,7953.53105370197597617975342557826766,7952.0,1.53105370197597617975342557826766
142,8066.73247729996864115630912617639280,8065.2,1.53247729996864115630912617639280
143,8180.73389090261817854181130506646991,8179.2,1.53389090261817854181130506646991
144,8295.53529464940723935472950030151310,8294.0,1.53529464940723935472950030151310
145,8411.13668867691920662028310634265402,8409.6,1.53668867691920662028310634265402
146,8527.53807311891801787837595327124818,8526.0,1.53807311891801787837595327124818
147,8644.73944810642525723596560889109508,8643.2,1.53944810642525723596560889109508
148,8762.74081376779463229298022129772163,8761.2,1.54081376779463229298022129772163
149,8881.54217022878393774282507660665275,8880.0,1.54217022878393774282507660665275
150,9001.14351761262460928844290535254674,8999.6,1.54351761262460928844290535254674
151,9121.54485604008896378827377701041669,9120.0,1.54485604008896378827377701041669
152,9242.74618562955521593137404623927860,9241.2,1.54618562955521593137404623927860
153,9364.74750649707036039148179954371477,9363.2,1.54750649707036039148179954371477
154,9487.54881875641100335936474570438525,9486.0,1.54881875641100335936474570438525
155,9611.15012251914222168953974730066477,9609.6,1.55012251914222168953974730066477
156,9735.55141789467452752782466431588329,9734.0,1.55141789467452752782466431588329
157,9860.75270499031900946642541347919090,9859.2,1.55270499031900946642541347919090
158,9986.75398391134072204476116181181139,9985.2,1.55398391134072204476116181181139
159,10113.5552547610103872689635397089879,10112.0,1.5552547610103872689635397089879
160,10241.1565176406544744876948747487885,10239.6,1.5565176406544744876948747487885
161,10369.5577726497037171205109086361332,10368.0,1.5577726497037171205109086361332
162,10498.7590198857401256999787605578508,10497.2,1.5590198857401256999787605578508
163,10628.7602594445425520809591925259450,10627.2,1.5602594445425520809591925259450
164,10759.5614914201308594537622467453544,10758.0,1.5614914201308594537622467453544
165,10891.1627159048087467615091179035516,10889.6,1.5627159048087467615091179035516
166,11023.5639329892052780374069513792985,11022.0,1.5639329892052780374069513792985
167,11156.7651427623151638943768471862399,11155.2,1.5651427623151638943768471862399
168,11290.7663453115378378560722913548085,11289.2,1.5663453115378378560722913548085
169,11425.5675407227153725915038165676908,11424.0,1.5675407227153725915038165676908
170,11561.1687290801692757965152706813323,11559.6,1.5687290801692757965152706813323
171,11697.5699104667362059167032686014308,11696.0,1.5699104667362059167032686014308
172,11834.7710849638026455785719203956699,11833.2,1.5710849638026455785719203956699
173,11972.7722526513385681313912931087911,11971.2,1.5722526513385681313912931087911
174,12111.5734136079301331434136748562477,12110.0,1.5734136079301331434136748562477
175,12251.1745679108114448375228819136549,12249.6,1.5745679108114448375228819136549
176,12391.5757156358954031728167190732732,12390.0,1.5757156358954031728167190732732
177,12532.7768568578036808328085206949040,12531.2,1.5768568578036808328085206949040
178,12674.7779916498958552747958383385782,12673.2,1.5779916498958552747958383385782
179,12817.5791200842977222854991188421209,12816.0,1.5791200842977222854991188421209
180,12961.1802422319288219895268075104587,12959.6,1.5802422319288219895268075104587
181,13105.5813581625291999594156011808046,13104.0,1.5813581625291999594156011808046
182,13250.7824679446854311227965921136314,13249.2,1.5824679446854311227965921136314
183,13396.7835716458559295161309859159100,13395.2,1.5835716458559295161309859159100
184,13543.5846693323955681267226766336887,13542.0,1.5846693323955681267226766336887
185,13691.1857610695796306313089089017327,13689.6,1.5857610695796306313089089017327
186,13839.5868469216271160000254646806111,13838.0,1.5868469216271160000254646806111
187,13988.7879269517234197664297720079405,13987.2,1.5879269517234197664297720079405
188,14138.7890012220424074000820110805558,14137.2,1.5890012220424074000820110805558
189,14289.5900697937679035129627696226978,14288.0,1.5900697937679035129627696226978
190,14441.1911327271146125509973978226482,14439.6,1.5911327271146125509973978226482
191,14593.5921900813484901934341612433099,14592.0,1.5921900813484901934341612433099
192,14746.7932419148065818424779123547662,14745.2,1.5932419148065818424779123547662
193,14900.7942882849163465072303901580308,14899.2,1.5942882849163465072303901580308
194,15055.5953292482144794229253651674876,15054.0,1.5953292482144794229253651674876
195,15211.1963648603652513380286674726874,15209.6,1.5963648603652513380286674726874
196,15367.5973951761783781613162549775225,15366.0,1.5973951761783781613162549775225
197,15524.7984202496264353444704516118020,15523.2,1.5984202496264353444704516118020
198,15682.7994401338618311623954306875364,15681.2,1.5994401338618311623954306875364
199,15841.6004548812333517253340316355362,15840.0,1.6004548812333517253340316355362
200,16001.2014645433022916632163769161857,15999.6,1.6014645433022916632163769161857
201,16161.6024691708581814588946816844876,16160.0,1.6024691708581814588946816844876
202,16322.8034688139341248066577312703442,16321.2,1.6034688139341248066577312703442
203,16484.8044635218217566509902025889909,16483.2,1.6044635218217566509902025889909
204,16647.6054533430858335207316980881809,16646.0,1.6054533430858335207316980881809
205,16811.2064383255784661242428897857201,16809.6,1.6064383255784661242428897857201
206,16975.6074185164530072245779551374132,16974.0,1.6074185164530072245779551374132
207,17140.8083939621776006655973776094338,17139.2,1.6083939621776006655973776094338
208,17306.8093647085484057707377582302484,17305.2,1.6093647085484057707377582302484
209,17473.6103308007025028575872577857806,17472.0,1.6103308007025028575872577857806
210,17641.2112922831304913641902310444290,17639.6,1.6112922831304913641902310444290
211,17809.6122491996887879463687688382192,17808.0,1.6122491996887879463687688382192
212,17978.8132015936116347735218391375104,17977.2,1.6132015936116347735218391375104
213,18148.8141495075228224011348782073465,18147.2,1.6141495075228224011348782073465
214,18319.6150929834471421960322373337505,18318.0,1.6150929834471421960322373337505
215,18491.2160320628215675209562936931830,18489.6,1.6160320628215675209562936931830
216,18663.6169667865061776332882306580937,18662.0,1.6169667865061776332882306580937
217,18836.8178971947948282573158065142748,18835.2,1.6178971947948282573158065142748
218,19010.8188233274255778028707856644591,19009.2,1.6188233274255778028707856644591
219,19185.6197452235908725036505130930640,19184.0,1.6197452235908725036505130930640
220,19361.2206629219475029837370957414614,19359.6,1.6206629219475029837370957414614
221,19537.6215764606263301549971787149341,19536.0,1.6215764606263301549971787149341
222,19714.8224858772417976431300142988949,19713.2,1.6224858772417976431300142988949
223,19892.8233912089012243036031538476252,19891.2,1.6233912089012243036031538476252
224,20071.6242924922138918871910259859466,20070.0,1.6242924922138918871910259859466
225,20251.2251897632999304120846681914680,20249.6,1.6251897632999304120846681914680
226,20431.6260830577990047809468668601490,20430.0,1.6260830577990047809468668601490
227,20612.8269724108788112862000374837116,20611.2,1.6269724108788112862000374837116
228,20794.8278578572433858141994347818814,20793.2,1.6278578572433858141994347818814
229,20977.6287394311412309008932042638850,20976.0,1.6287394311412309008932042638850
230,21161.2296171663732663256748556735451,21159.6,1.6296171663732663256748556735451
231,21345.6304910963006050331699827629131,21344.0,1.6304910963006050331699827629131
232,21530.8313612538521647923576999785029,21529.2,1.6313612538521647923576999785029
233,21716.8322276715321105790205781948999,21715.2,1.6322276715321105790205781948999
234,21903.6330903814271438280899248671224,21902.0,1.6330903814271438280899248671224
235,22091.2339494152136317274949346624620,22089.6,1.6339494152136317274949346624620
236,22279.6348048041645862528047156579967,22278.0,1.6348048041645862528047156579967
237,22468.8356565791564965633222060845109,22467.2,1.6356565791564965633222060845109
238,22658.8365047706760164911804881871429,22657.2,1.6365047706760164911804881871429
