Eigenstate,Energy,Kinetic Energy,Potential Energy
1,0.500000000191624149523548367990240667,0.0,0.500000000191624149523548367990240667
2,1.84623093890194542202026490466118114,1.2,0.64623093890194542202026490466118114
3,3.93633761337922750439360846001445959,3.2,0.73633761337922750439360846001445959
4,6.79966528546739254542130059675721099,6.0,0.79966528546739254542130059675721099
5,10.4480465885427496848848041071543767,9.6,0.8480465885427496848848041071543767
6,14.8870660173848281659561224877248425,14.0,0.8870660173848281659561224877248425
7,20.1197208534435794900671812973515152,19.2,0.9197208534435794900671812973515152
8,26.1477838831023000852686526593955054,25.2,0.9477838831023000852686526593955054
9,32.9723836053711138852908709673275420,32.0,0.9723836053711138852908709673275420
10,40.5942802744011827700356180488634107,39.6,0.9942802744011827700356180488634107
11,49.0140094603354700998994790317738395,48.0,1.0140094603354700998994790317738395
12,58.2319622584801650913434886462437568,57.2,1.0319622584801650913434886462437568
13,68.2484327989024340150690081773762463,67.2,1.0484327989024340150690081773762463
14,79.0636477792866734883345919972056462,78.0,1.0636477792866734883345919972056462
15,90.6777855807487507488541191474107301,89.6,1.0777855807487507488541191474107301
16,103.090989072706483609710326881627450,102.0,1.090989072706483609710326881627450
17,116.303374446341167620071083632793096,115.2,1.103374446341167620071083632793096
18,130.315037465603790953792160553242392,129.2,1.115037465603790953792160553242392
19,145.126057990319022751841526507571243,144.0,1.126057990319022751841526507571243
20,160.736503313819157207657329817094598,159.6,1.136503313819157207657329817094598
21,177.146430669025816313975403152970949,176.0,1.146430669025816313975403152970949
22,194.355889139608694137114776448454946,193.2,1.155889139608694137114776448454946
23,212.364921137922084611755098588925886,211.2,1.164921137922084611755098588925886
24,231.173563562405306124888894906866171,230.0,1.173563562405306124888894906866171
25,250.781848714378629814263278968940268,249.6,1.181848714378629814263278968940268
26,271.189805031850868845300546950673543,270.0,1.189805031850868845300546950673543
27,292.397457682481955489878012408315529,291.2,1.197457682481955489878012408315529
28,314.404829046941981994385043146578608,313.2,1.204829046941981994385043146578608
29,337.211939116113153384394264566658630,336.0,1.211939116113153384394264566658630
30,360.818805819931612770931777975830088,359.6,1.218805819931612770931777975830088
31,385.225445301520161213950937776905972,384.0,1.225445301520161213950937776905972
32,410.431872147184994607177794652585552,409.2,1.231872147184994607177794652585552
33,436.438099580539932239470085208494824,435.2,1.238099580539932239470085208494824
34,463.244139627271065418067989913427249,462.0,1.244139627271065418067989913427249
35,490.850003255715559470733903837639741,489.6,1.250003255715559470733903837639741
36,519.255700497394863563218353956396134,518.0,1.255700497394863563218353956396134
37,548.461240550838498218452052325693785,547.2,1.261240550838498218452052325693785
38,578.466631871404171679561253111082831,577.2,1.266631871404171679561253111082831
39,609.271882249302127608391335544127522,608.0,1.271882249302127608391335544127522
40,640.876998877635805826983578678503658,639.6,1.276998877635805826983578678503658
41,673.281988411954147535185430566814302,672.0,1.281988411954147535185430566814302
42,706.486857022555883835641039397563386,705.2,1.286857022555883835641039397563386
43,740.491610440579660052153165832756660,739.2,1.291610440579660052153165832756660
44,775.296253998745754311632581582958924,774.0,1.296253998745754311632581582958924
45,810.900792667477579290637396583109345,809.6,1.300792667477579290637396583109345
46,847.305231087018019744736667320908913,846.0,1.305231087018019744736667320908913
47,884.509573596062181826459316266246427,883.2,1.309573596062181826459316266246427
48,922.513824257350543833226736367261874,921.2,1.313824257350543833226736367261874
49,961.317986880601835482676394290038023,960.0,1.317986880601835482676394290038023
50,1000.92206504311085009905328658530253,999.6,1.32206504311085009905328658530253
51,1041.32606210829092713181012707095123,1040.0,1.32606210829092713181012707095123
52,1082.52998124240249721320455770655509,1081.2,1.32998124240249721320455770655509
53,1124.53382542967663184309190268956052,1123.2,1.33382542967663184309190268956052
54,1167.33759748601497865761956377128006,1166.0,1.33759748601497865761956377128006
55,1210.94130007142398774598643041516426,1209.6,1.34130007142398774598643041516426
56,1255.34493570132125990928025196014147,1254.0,1.34493570132125990928025196014147
57,1300.54850675683464879026513890100237,1299.2,1.34850675683464879026513890100237
58,1346.55201549419995161668340071092246,1345.2,1.35201549419995161668340071092246
59,1393.35546405335026935334424299978603,1392.0,1.35546405335026935334424299978603
60,1440.95885446577909255055834128921798,1439.6,1.35885446577909255055834128921798
61,1489.36218866174960494896129411037912,1488.0,1.36218866174960494896129411037912
62,1538.56546847691439589564721031269666,1537.2,1.36546847691439589564721031269666
63,1588.56869565840253073750510045703676,1587.2,1.36869565840253073750510045703676
64,1639.37187187042461587772277797048565,1638.0,1.37187187042461587772277797048565
65,1690.97499869944096034144555547767864,1689.6,1.37499869944096034144555547767864
66,1743.37807765893308835751780343516760,1742.0,1.37807765893308835751780343516760
67,1796.58111019381459517190695983915762,1795.2,1.38111019381459517190695983915762
68,1850.58409768451358214759795932499644,1849.2,1.38409768451358214759795932499644
69,1905.38704145075559453501783880560923,1904.0,1.38704145075559453501783880560923
70,1960.98994275507305702878286747279930,1959.6,1.38994275507305702878286747279930
71,2017.39280280606460352283104883791425,2016.0,1.39280280606460352283104883791425
72,2074.59562276142539923361895004096112,2073.2,1.39562276142539923361895004096112
73,2132.59840373076750035466123991534158,2131.2,1.39840373076750035466123991534158
74,2191.40114677824747755713543463911527,2190.0,1.40114677824747755713543463911527
75,2251.00385292501689855017396748582619,2249.6,1.40385292501689855017396748582619
76,2311.40652315150981535770857899661830,2310.0,1.40652315150981535770857899661830
77,2372.60915839958009957031647649234116,2371.2,1.40915839958009957031647649234116
78,2434.61175957450030303233731593791532,2433.2,1.41175957450030303233731593791532
79,2497.41432754683267460453901873902776,2496.0,1.41432754683267460453901873902776
80,2561.01686315418202551696663941431024,2559.6,1.41686315418202551696663941431024
81,2625.41936720283928648513433088669863,2624.0,1.41936720283928648513433088669863
82,2690.62184046932383831216720586745319,2689.2,1.42184046932383831216720586745319
83,2756.62428370183200896571249303224355,2755.2,1.42428370183200896571249303224355
84,2823.42669762159850582672449917118870,2822.0,1.42669762159850582672449917118870
85,2891.02908292417699253105648299418474,2889.6,1.42908292417699253105648299418474
86,2959.43144028064550395940438975400640,2958.0,1.43144028064550395940438975400640
87,3028.63377033874193546035046283210902,3027.2,1.43377033874193546035046283210902
88,3098.63607372393441901352046043930760,3097.2,1.43607372393441901352046043930760
89,3169.43835104043101553770878682446294,3168.0,1.43835104043101553770878682446294
90,3241.04060287213280933209932706774755,3239.6,1.44060287213280933209932706774755
91,3313.44282978353416918666137090016345,3312.0,1.44282978353416918666137090016345
92,3386.64503232057365240026277684920179,3385.2,1.44503232057365240026277684920179
93,3460.64721101143876568999007212774162,3459.2,1.44721101143876568999007212774162
94,3535.44936636732755404642922384645940,3534.0,1.44936636732755404642922384645940
95,3611.05149888316976743563474724679266,3609.6,1.45149888316976743563474724679266
96,3687.45360903831015342640058146320668,3686.0,1.45360903831015342640058146320668
97,3764.65569729715623947934072225186312,3763.2,1.45569729715623947934072225186312
98,3842.65776410979279575999327601512792,3841.2,1.45776410979279575999327601512792
99,3921.45980991256501586597882391417198,3920.0,1.45980991256501586597882391417198
100,4001.06183512863230651782756389520016,3999.6,1.46183512863230651782756389520016
101,4081.46384016849444795894076559876155,4080.0,1.46384016849444795894076559876155
102,4162.66582543049176123543290948950761,4161.2,1.46582543049176123543290948950761
103,4244.66779130128081061299125078014019,4243.2,1.46779130128081061299125078014019
104,4327.46973815628706212318383930551429,4326.0,1.46973815628706212318383930551429
105,4411.07166636013582615789131479323186,4409.6,1.47166636013582615789131479323186
106,4495.47357626706272126629929529389999,4494.0,1.47357626706272126629929529389999
107,4580.67546822130481822693561030710819,4579.2,1.47546822130481822693561030710819
108,4666.67734255747354422768585284595816,4665.2,1.47734255747354422768585284595816
109,4753.47919960091035839319045666376898,4752.0,1.47919960091035839319045666376898
110,4841.08103966802614747890515210373554,4839.6,1.48103966802614747890515210373554
111,4929.48286306662522468991154271641779,4928.0,1.48286306662522468991154271641779
112,5018.68467009621476514893605308386055,5017.2,1.48467009621476514893605308386055
113,5108.68646104830045600224403123066355,5107.2,1.48646104830045600224403123066355
114,5199.48823620666909039432474897767354,5198.0,1.48823620666909039432474897767354
115,5291.08999584765879409378397190344303,5289.6,1.48999584765879409378397190344303
116,5383.49174024041752522121704492594291,5382.0,1.49174024041752522121704492594291
117,5476.69346964715045581683277829326448,5475.2,1.49346964715045581683277829326448
118,5570.69518432335680295449779081098172,5569.2,1.49518432335680295449779081098172
119,5665.49688451805664339515842424700855,5664.0,1.49688451805664339515842424700855
120,5761.09857047400821993036785381878932,5759.6,1.49857047400821993036785381878932
121,5857.50024242791620929940588834017190,5856.0,1.50024242791620929940588834017190
122,5954.70190061063140265035097659786269,5953.2,1.50190061063140265035097659786269
123,6052.70354524734221732253733582240844,6051.2,1.50354524734221732253733582240844
124,6151.50517655775844104802567077091026,6150.0,1.50517655775844104802567077091026
125,6251.10679475628758010345877603946205,6249.6,1.50679475628758010345877603946205
126,6351.50840005220416774638073710381778,6350.0,1.50840005220416774638073710381778
127,6452.70999264981236869221656270397857,6451.2,1.50999264981236869221656270397857
128,6554.71157274860219280092610173076414,6553.2,1.51157274860219280092610173076414
129,6657.51314054339961906911215118440869,6656.0,1.51314054339961906911215118440869
130,6761.11469622451091264150136758275799,6759.6,1.51469622451091264150136758275799
131,6865.51623997786140215160526397231305,6864.0,1.51623997786140215160526397231305
132,6970.71777198512896972417288918017728,6969.2,1.51777198512896972417288918017728
133,7076.71929242387249419046734863262599,7075.2,1.51929242387249419046734863262599
134,7183.52080146765547679144933499867796,7182.0,1.52080146765547679144933499867796
135,7291.12229928616506053561103839044242,7289.6,1.52229928616506053561103839044242
136,7399.52378604532665069068082890834408,7398.0,1.52378604532665069068082890834408
137,7508.72526190741433058048394596662153,7507.2,1.52526190741433058048394596662153
138,7618.72672703115725324625697486128376,7617.2,1.52672703115725324625697486128376
139,7729.52818157184218742581872608360467,7728.0,1.52818157184218742581872608360467
140,7841.12962568141238085803687972712418,7839.6,1.52962568141238085803687972712418
141,7953.53105950856289936254524606401119,7952.0,1.53105950856289936254524606401119
142,8066.73248319883259207141115777193910,8065.2,1.53248319883259207141115777193910
143,8180.73389689469282453928634327216597,8179.2,1.53389689469282453928634327216597
144,8295.53530073563311427894798899397204,8294.0,1.53530073563311427894798899397204
145,8411.13669485824379908138194479783762,8409.6,1.53669485824379908138194479783762
146,8527.53807939629586061082274116692367,8526.0,1.53807939629586061082274116692367
147,8644.73945448081801756220031320525197,8643.2,1.53945448081801756220031320525197
148,8762.74082024017120371042307507620216,8761.2,1.54082024017120371042307507620216
149,8881.54217680012053265285985642068286,8880.0,1.54217680012053265285985642068286
150,9001.14352428390485288631269506758005,8999.6,1.54352428390485288631269506758005
151,9121.54486281230398913316101027583672,9120.0,1.54486281230398913316101027583672
152,9242.74619250370376021627848710379653,9241.2,1.54619250370376021627848710379653
153,9364.74751347415886243285898221339440,9363.2,1.54751347415886243285898221339440
154,9487.54882583745370232684345911045030,9486.0,1.54882583745370232684345911045030
155,9611.15012970516125709640076097068838,9609.6,1.55012970516125709640076097068838
156,9735.55142518670004050329513567511761,9734.0,1.55142518670004050329513567511761
157,9860.75271238938924533122097603643427,9859.2,1.55271238938924533122097603643427
158,9986.75399141850213421169676466485705,9985.2,1.55399141850213421169676466485705
159,10113.5552623773177424908481767178188,10112.0,1.5552623773177424908481767178188
160,10241.1565253671709594751300646712188,10239.6,1.5565253671709594751300646712188
161,10369.5577804875010465526249212931981,10368.0,1.5577804875010465526249212931981
162,10498.7590278358986516515496215079713,10497.2,1.5590278358986516515496215079713
163,10628.7602675081513748898102720401979,10627.2,1.5602675081513748898102720401979
164,10759.5614995982879400527531440320600,10758.0,1.5614995982879400527531440320600
165,10891.1627241986210204998943930782481,10889.6,1.5627241986210204998943930782481
166,11023.5639413997887700167927190164493,11022.0,1.5639413997887700167927190164493
167,11156.7651512907951058449742643853191,11155.2,1.5651512907951058449742643853191
168,11290.7663539590487865794260940705748,11289.2,1.5663539590487865794260940705748
169,11425.5675494904013299963617757231631,11424.0,1.5675494904013299963617757231631
170,11561.1687379691838105550052910965604,11559.6,1.5687379691838105550052910965604
171,11697.5699194782425767684944252345171,11696.0,1.5699194782425767684944252345171
172,11834.7710940989739263112180955955069,11833.2,1.5710940989739263112180955955069
173,11972.7722619113577742655877259100927,11971.2,1.5722619113577742655877259100927
174,12111.5734229939903503524429046970297,12110.0,1.5734229939903503524429046970297
175,12251.1745774241159591307223482607811,12249.6,1.5745774241159591307223482607811
176,12391.5757252776578328734691714001708,12390.0,1.5757252776578328734691714001708
177,12532.7768666292481103814377753329848,12531.2,1.5768666292481103814377753329848
178,12674.7780015522569708894449274382736,12673.2,1.5780015522569708894449274382736
179,12817.5791301188209495111746324380150,12816.0,1.5791301188209495111746324380150
180,12961.1802523998704651696153537772340,12959.6,1.5802523998704651696153537772340
181,13105.5813684651565836625115318258444,13104.0,1.5813684651565836625115318258444
182,13250.7824783832770435590299119912226,13249.2,1.5824783832770435590299119912226
183,13396.7835822217015679777476161492237,13395.2,1.5835822217015679777476161492237
184,13543.5846800467964864883471694999101,13542.0,1.5846800467964864883471694999101
185,13691.1857719238486889460141032999072,13689.6,1.5857719238486889460141032999072
186,13839.5868579170889322280406997610306,13838.0,1.5868579170889322280406997610306
187,13988.7879380897145236740471031950940,13987.2,1.5879380897145236740471031950940
188,14138.7890125039113966670591297068018,14137.2,1.5890125039113966670591297068018
189,14289.5900812208756020874810907302239,14288.0,1.5900812208756020874810907302239
190,14441.1911443008342312920085037632102,14439.6,1.5911443008342312920085037632102
191,14593.5922018030657898410220126685424,14592.0,1.5922018030657898410220126685424
192,14746.7932537859200383576747294081269,14745.2,1.5932537859200383576747294081269
193,14900.7943003068373188235548328731551,14899.2,1.5943003068373188235548328731551
194,15055.5953414223673796527602906062601,15054.0,1.5953414223673796527602906062601
195,15211.1963771881877174778251225987596,15209.6,1.5963771881877174778251225987596
196,15367.5974076591214493404984573289126,15366.0,1.5974076591214493404984573289126
197,15524.7984328891547296638260220135653,15523.2,1.5984328891547296638260220135653
198,15682.7994529314537261686654418394510,15681.2,1.5994529314537261686654418394510
199,15841.6004678383811675696703196825201,15840.0,1.6004678383811675696703196825201
200,16001.2014776615124769921471704515669,15999.6,1.6014776615124769921471704515669
201,16161.6024824516515020874360029486833,16160.0,1.6024824516515020874360029486833
202,16322.8034822588458552242309701004059,16321.2,1.6034822588458552242309701004059
203,16484.8044771324018744118476560696166,16483.2,1.6044771324018744118476560696166
204,16647.6054671208992165716641079843227,16646.0,1.6054671208992165716641079843227
205,16811.2064522722050931234342794714568,16809.6,1.6064522722050931234342794714568
206,16975.6074326334881609065971649271338,16974.0,1.6074326334881609065971649271338
207,17140.8084082512320743086587601794690,17139.2,1.6084082512320743086587601794690
208,17306.8093791712487128235411004798723,17305.2,1.6093791712487128235411004798723
209,17473.6103454386910897842478782265866,17472.0,1.6103454386910897842478782265866
210,17641.2113070980659537670016166235424,17639.6,1.6113070980659537670016166235424
211,17809.6122641932460900274015172300284,17808.0,1.6122641932460900274015172300284
212,17978.8132167674823321973533043532098,17977.2,1.6132167674823321973533043532098
213,18148.8141648634152886223266849232568,18147.2,1.6141648634152886223266849232568
214,18319.6151085230867983163273757775822,18318.0,1.6151085230867983163273757775822
215,18491.2160477879511157425551818041637,18489.6,1.6160477879511157425551818041637
216,18663.6169826988858383759838867940363,18662.0,1.6169826988858383759838867940363
217,18836.8179132962025810087246578693382,18835.2,1.6179132962025810087246578693382
218,19010.8188396196574057724863600143469,19009.2,1.6188396196574057724863600143469
219,19185.6197617084610111529780699631457,19184.0,1.6197617084610111529780699631457
220,19361.2206796012886925063295525391855,19359.6,1.6206796012886925063295525391855
221,19537.6215933362900719818211635893285,19536.0,1.6215933362900719818211635893285
222,19714.8225029510986150503324040898298,19713.2,1.6225029510986150503324040898298
223,19892.8234084828409272014354874448802,19891.2,1.6234084828409272014354874448802
224,20071.6243099681458458705758755136707,20070.0,1.6243099681458458705758755136707
225,20251.2252074431533301550795088266011,20249.6,1.6252074431533301550795088266011
226,20431.6261009435231518591739166767592,20430.0,1.6261009435231518591739166767592
227,20612.8269905044433965131738157662027,20611.2,1.6269905044433965131738157662027
228,20794.8278761606387761793893627087632,20793.2,1.6278761606387761793893627087632
229,20977.6287579463787611993147571093000,20976.0,1.6287579463787611993147571093000
230,21161.2296358954855355708088360994402,21159.6,1.6296358954855355708088360994402
231,21345.6305100413417777470654663739140,21344.0,1.6305100413417777470654663739140
232,21530.8313804168982772688827054125220,21529.2,1.6313804168982772688827054125220
233,21716.8322470546813822183879095304308,21715.2,1.6322470546813822183879095304308
234,21903.6331099868002936430046658470510,21902.0,1.6331099868002936430046658470510
235,22091.2339692449542001235435176830219,22089.6,1.6339692449542001235435176830219
236,22279.6348248604392621880421845241493,22278.0,1.6348248604392621880421845241493
237,22468.8356768641554501944079719915853,22467.2,1.6356768641554501944079719915853
238,22658.8365252866132374158695712409637,22657.2,1.6365252866132374158695712409637
