Eigenstate,Energy,Kinetic Energy,Potential Energy
1,0.500000000123894276677100734810383800,0.0,0.500000000123894276677100734810383800
2,1.84623093845983497202738688257950426,1.2,0.64623093845983497202738688257950426
3,3.93633761208054030370723584848888788,3.2,0.73633761208054030370723584848888788
4,6.79966528276230854066524271075833544,6.0,0.79966528276230854066524271075833544
5,10.4480465838568430590641685719955967,9.6,0.8480465838568430590641685719955967
6,14.8870660101335263960010739141051747,14.0,0.8870660101335263960010739141051747
7,20.1197208430374762172078074605783018,19.2,0.9197208430374762172078074605783018
8,26.1477838689493572881221560282251645,25.2,0.9477838689493572881221560282251645
9,32.9723835868776734705376814945049877,32.0,0.9723835868776734705376814945049877
10,40.5942802509724685458097414202872086,39.6,0.9942802509724685458097414202872086
11,49.0140094313758498250198478763281432,48.0,1.0140094313758498250198478763281432
12,58.2319622233932902430943456131416813,57.2,1.0319622233932902430943456131416813
13,68.2484327570913129665044628903008653,67.2,1.0484327570913129665044628903008653
14,79.0636477301537063423646894932501883,78.0,1.0636477301537063423646894932501883
15,90.6777855236957410199912126417275474,89.6,1.0777855236957410199912126417275474
16,103.090989007134635341756146688462215,102.0,1.090989007134635341756146688462215
17,116.303374371651073008890898323858052,115.2,1.103374371651073008890898323858052
18,130.315037381195411581134241632735193,129.2,1.115037381195411581134241632735193
19,145.126057895591666396435704415750487,144.0,1.126057895591666396435704415750487
20,160.736503208171451514529667383490379,159.6,1.136503208171451514529667383490379
21,177.146430551855680177842362380522226,176.0,1.146430551855680177842362380522226
22,194.355889010313307384642764607615891,193.2,1.155889010313307384642764607615891
23,212.364920995897856390247572965143447,211.2,1.164920995897856390247572965143447
24,231.173563407047842286472609049965587,230.0,1.173563407047842286472609049965587
25,250.781848545082699503798603072932717,249.6,1.181848545082699503798603072932717
26,271.189804848010370444050797090927176,270.0,1.189804848010370444050797090927176
27,292.397457483489882027255030133907859,291.2,1.197457483489882027255030133907859
28,314.404828832190386111576211591948792,313.2,1.204828832190386111576211591948792
29,337.211938884993111912914479311820708,336.0,1.211938884993111912914479311820708
30,360.818805571833190973825463350722536,359.6,1.218805571833190973825463350722536
31,385.225445035832376725927805697111339,384.0,1.225445035832376725927805697111339
32,410.431871863295781101322700073531721,409.2,1.231871863295781101322700073531721
33,436.438099277836102841567800356265691,435.2,1.238099277836102841567800356265691
34,463.244139305138275884494062054788775,462.0,1.244139305138275884494062054788775
35,490.850002913538271141900309523127456,489.6,1.250002913538271141900309523127456
36,519.255700134556306101450165455236101,518.0,1.255700134556306101450165455236101
37,548.461240166720632136705243218390078,547.2,1.261240166720632136705243218390078
38,578.466631465387650665422135566678810,577.2,1.266631465387650665422135566678810
39,609.271881820766260646212228509176184,608.0,1.271881820766260646212228509176184
40,640.876998425958519119722770936304587,639.6,1.276998425958519119722770936304587
41,673.281987936511946226467753402063003,672.0,1.281987936511946226467753402063003
42,706.486856522723813531689420369387134,705.2,1.286856522723813531689420369387134
43,740.491609915731268142523001984388677,739.2,1.291609915731268142523001984388677
44,775.296253448253051087080430750621958,774.0,1.296253448253051087080430750621958
45,810.900792090710998855950069509026741,809.6,1.300792090710998855950069509026741
46,847.305230483346380723917996379380692,846.0,1.305230483346380723917996379380692
47,884.509572964852647857305521288023463,883.2,1.309572964852647857305521288023463
48,922.513823597968583848005587821450532,921.2,1.313823597968583848005587821450532
49,961.317986192411183771351408565457609,960.0,1.317986192411183771351408565457609
50,1000.92206432547346615125425254604961,999.6,1.32206432547346615125425254604961
51,1041.32606136056695525353956531152906,1040.0,1.32606136056695525353956531152906
52,1082.52998046395022591408123859240794,1081.2,1.32998046395022591408123859240794
53,1124.53382461985245298976343619544498,1123.2,1.33382461985245298976343619544498
54,1167.33759664417334638882279501036573,1166.0,1.33759664417334638882279501036573
55,1210.94129919691737714459455477241353,1209.6,1.34129919691737714459455477241353
56,1255.34493479350012542654663942323198,1254.0,1.34493479350012542654663942323198
57,1300.54850581504738241735430075658201,1299.2,1.34850581504738241735430075658201
58,1346.55201451779284079846718353223036,1345.2,1.35201451779284079846718353223036
59,1393.35546304166745463933591597892295,1392.0,1.35546304166745463933591597892295
60,1440.95885341816252497775646448433330,1439.6,1.35885341816252497775646448433330
61,1489.36218757753900315127909026417332,1488.0,1.36218757753900315127909026417332
62,1538.56546735544720293451026789904522,1537.2,1.36546735544720293451026789904522
63,1588.56869449901387064811038286212455,1587.2,1.36869449901387064811038286212455
64,1639.37187067244724992536422569418888,1638.0,1.37187067244724992536422569418888
65,1690.97499746220524298222538715935167,1689.6,1.37499746220524298222538715935167
66,1743.37807638176692289767820585603350,1742.0,1.37807638176692289767820585603350
67,1796.58110887604338911993303511662012,1795.2,1.38110887604338911993303511662012
68,1850.58409632546020225315986616378070,1849.2,1.38409632546020225315986616378070
69,1905.38704004974032150873704657325025,1904.0,1.38704004974032150873704657325025
70,1960.98994131141353993672546178596479,1959.6,1.38994131141353993672546178596479
71,2017.39280131907581384954755981613181,2016.0,1.39280131907581384954755981613181
72,2074.59562123041958460746809188752589,2073.2,1.39562123041958460746809188752589
73,2132.59840215505413792907055141088329,2131.2,1.39840215505413792907055141088329
74,2191.40114515713322704136862150504272,2190.0,1.40114515713322704136862150504272
75,2251.00385125780555488308922669025374,2249.6,1.40385125780555488308922669025374
76,2311.40652143750226101790717216881368,2310.0,1.40652143750226101790717216881368
77,2372.60915663807425651599372144707529,2371.2,1.40915663807425651599372144707529
78,2434.61175776479108426406048878410941,2433.2,1.41175776479108426406048878410941
79,2497.41432568821193534408775422632754,2496.0,1.41432568821193534408775422632754
80,2561.01686124593851399528141196598417,2559.6,1.41686124593851399528141196598417
81,2625.41936524425859433232685867677301,2624.0,1.41936524425859433232685867677301
82,2690.62183845968835054245361859577790,2689.2,1.42183845968835054245361859577790
83,2756.62428164042085355003582520484759,2755.2,1.42428164042085355003582520484759
84,2823.42669550768750284573699928203696,2822.0,1.42669550768750284573699928203696
85,2891.02908075703860290103447653413386,2889.6,1.42908075703860290103447653413386
86,2959.43143805954877772356932080180181,2958.0,1.43143805954877772356932080180181
87,3028.63376806295245963796852477344494,3027.2,1.43376806295245963796852477344494
88,3098.63607139271426499905015938284403,3097.2,1.43607139271426499905015938284403
89,3169.43834865303868604216149127665885,3168.0,1.43834865303868604216149127665885
90,3241.04060042782318485867084073207741,3239.6,1.44060042782318485867084073207741
91,3313.44282728155845403258413946932480,3312.0,1.44282728155845403258413946932480
92,3386.64502976017932017671748876372959,3385.2,1.44502976017932017671748876372959
93,3460.64720839186950435180295069401639,3459.2,1.44720839186950435180295069401639
94,3535.44936368782321042316626842914833,3534.0,1.44936368782321042316626842914833
95,3611.05149614296629125558717483990695,3609.6,1.45149614296629125558717483990695
96,3687.45360623663954082483664194601973,3686.0,1.45360623663954082483664194601973
97,3764.65569443324647598227714896770394,3763.2,1.45569443324647598227714896770394
98,3842.65776118286779873461636730611188,3841.2,1.45776118286779873461636730611188
99,3921.45980692184457642871810990434484,3920.0,1.45980692184457642871810990434484
100,4001.06183207333203089095701307781128,3999.6,1.46183207333203089095701307781128
101,4081.46383704782569826645087689278734,4080.0,1.46383704782569826645087689278734
102,4162.66582224366159572878333196584001,4161.2,1.46582224366159572878333196584001
103,4244.66778804749192331721756423850033,4243.2,1.46778804749192331721756423850033
104,4327.46973483473772189369255484212682,4326.0,1.46973483473772189369255484212682
105,4411.07166297001981513813584904871967,4409.6,1.47166297001981513813584904871967
106,4495.47357280756927273638508833209847,4494.0,1.47357280756927273638508833209847
107,4580.67546469161855383305516611063673,4579.2,1.47546469161855383305516611063673
108,4666.67733895677441058213425519019322,4665.2,1.47733895677441058213425519019322
109,4753.47919592837356303455892700125697,4752.0,1.47919592837356303455892700125697
110,4841.08103592282209418189365845394266,4839.6,1.48103592282209418189365845394266
111,4929.48285924791944811404263167509283,4928.0,1.48285924791944811404263167509283
112,5018.68466620316786481528936153686390,5017.2,1.48466620316786481528936153686390
113,5108.68645708006802958716559178191536,5107.2,1.48645708006802958716559178191536
114,5199.48823216240166632889614074329835,5198.0,1.48823216240166632889614074329835
115,5291.08999172650176345766412754297350,5289.6,1.48999172650176345766412754297350
116,5383.49173604151107291929410123572436,5382.0,1.49173604151107291929410123572436
117,5476.69346536962949102694420490036168,5475.2,1.49346536962949102694420490036168
118,5570.69517996635088883429419414302315,5569.2,1.49517996635088883429419414302315
119,5665.49688008068992603600036195634204,5664.0,1.49688008068992603600036195634204
120,5761.09856595539935654595503246413676,5759.6,1.49856595539935654595503246413676
121,5857.50023782717829563664400033770429,5856.0,1.50023782717829563664400033770429
122,5954.70189592687189960976435873982682,5953.2,1.50189592687189960976435873982682
123,6052.70354047966287677533354692661250,6051.2,1.50354047966287677533354692661250
124,6151.50517170525523083671293423790494,6150.0,1.50517170525523083671293423790494
125,6251.10678981805060821270741980745708,6249.6,1.50678981805060821270741980745708
126,6351.50839502731760563060558649082782,6350.0,1.50839502731760563060558649082782
127,6452.70998753735437374613953735883099,6451.2,1.50998753735437374613953735883099
128,6554.71156754764482995915526682631114,6553.2,1.51156754764482995915526682631114
129,6657.51313525300878152054693169507735,6656.0,1.51313525300878152054693169507735
130,6761.11469084374624164414181981402858,6759.6,1.51469084374624164414181981402858
131,6865.51623450577620593310695109621975,6864.0,1.51623450577620593310695109621975
132,6970.71776642077014145324797084675869,6969.2,1.51776642077014145324797084675869
133,7076.71928676628042900398703418359837,7075.2,1.51928676628042900398703418359837
134,7183.52079571586398786185132420590869,7182.0,1.52079571586398786185132420590869
135,7291.12229343920129416296020771062394,7289.6,1.52229343920129416296020771062394
136,7399.52378010221100040347035145225256,7398.0,1.52378010221100040347035145225256
137,7508.72525586716035022899689389462880,7507.2,1.52525586716035022899689389462880
138,7618.72672089277156907203817305192003,7617.2,1.52672089277156907203817305192003
139,7729.52817533432440909052753740071315,7728.0,1.52817533432440909052753740071315
140,7841.12961934375501141466928710660494,7839.6,1.52961934375501141466928710660494
141,7953.53105306975124415172588009795889,7952.0,1.53105306975124415172588009795889
142,8066.73247665784466652515964951281017,8065.2,1.53247665784466652515964951281017
143,8180.73389025049926087436265612262740,8179.2,1.53389025049926087436265612262740
144,8295.53529398719706706157350497027412,8294.0,1.53529398719706706157350497027412
145,8411.13668800452084964482225774660241,8409.6,1.53668800452084964482225774660241
146,8527.53807243623392030699481604033870,8526.0,1.53807243623392030699481604033870
147,8644.73944741335722982814398078332771,8643.2,1.53944741335722982814398078332771
148,8762.74081306424384493014169112781277,8761.2,1.54081306424384493014169112781277
149,8881.54216951465091179469596616369719,8880.0,1.54216951465091179469596616369719
150,9001.14351688780920989567738916473818,8999.6,1.54351688780920989567738916473818
151,9121.54485530449039206008184063668165,9120.0,1.54485530449039206008184063668165
152,9242.74618488307200105686903020079384,9241.2,1.54618488307200105686903020079384
153,9364.74750573960035166344415006203944,9363.2,1.54750573960035166344415006203944
154,9487.54881798785136210909828978639274,9486.0,1.54881798785136210909828978639274
155,9611.15012173938941313147568227465394,9609.6,1.55012173938941313147568227465394
156,9735.55141710362431251250759132428466,9734.0,1.55141710362431251250759132428466
157,9860.75270418786643614049345328167969,9859.2,1.55270418786643614049345328167969
158,9986.75398309738011741651058875499928,9985.2,1.55398309738011741651058875499928
159,10113.5552539354353486780659022670226,10112.0,1.5552539354353486780659022670226
160,10241.1565168033578609776111903710261,10239.6,1.5565168033578609776111903710261
161,10369.5577718005776407121247862517458,10368.0,1.5577718005776407121247862517458
162,10498.7590190246759425649459098719743,10497.2,1.5590190246759425649459098719743
163,10628.7602585714308536132467977326763,10627.2,1.5602585714308536132467977326763
164,10759.5614905348614632378271225766179,10758.0,1.5614905348614632378271225766179
165,10891.1627150072706874355379615943027,10889.6,1.5627150072706874355379615943027
166,11023.5639320792867980500167730918777,11022.0,1.5639320792867980500167730918777
167,11156.7651418399037041531470416450973,11155.2,1.5651418399037041531470416450973
168,11290.7663443765200282662535717516976,11289.2,1.5663443765200282662535717516976
169,11425.5675397749770224832217361847368,11424.0,1.5675397749770224832217361847368
170,11561.1687281195953642387584191413906,11559.6,1.5687281195953642387584191413906
171,11697.5699094932108719163580067021164,11696.0,1.5699094932108719163580067021164
172,11834.7710839772091781627369653026460,11833.2,1.5710839772091781627369653026460
173,11972.7722516515593963111754775107024,11971.2,1.5722516515593963111754775107024
174,12111.5734125948468157573909671780615,12110.0,1.5734125948468157573909671780615
175,12251.1745668843046602729880194058417,12249.6,1.5745668843046602729880194058417
176,12391.5757145958449389629534106521416,12390.0,1.5757145958449389629534106521416
177,12532.7768558040884231278506863827812,12531.2,1.5768558040884231278506863827812
178,12674.7779905823937781852305314429644,12673.2,1.5779905823937781852305314429644
179,12817.5791190028858770953255762431088,12816.0,1.5791190028858770953255762431088
180,12961.1802411364833262375538686411079,12959.6,1.5802411364833262375538686411079
181,13105.5813570529252263865445252529866,13104.0,1.5813570529252263865445252529866
182,13250.7824668207971964832019245763771,13249.2,1.5824668207971964832019245763771
183,13396.7835705075566832502155022756468,13395.2,1.5835705075566832502155022756468
184,13543.5846681795575808936877975452487,13542.0,1.5846681795575808936877975452487
185,13691.1857599020741826991432568688717,13689.6,1.5857599020741826991432568688717
186,13839.5868457393244854906771726991222,13838.0,1.5868457393244854906771726991222
187,13988.7879257544928707538898022294711,13987.2,1.5879257544928707538898022294711
188,14138.7890000097521778590659388712271,14137.2,1.5890000097521778590659388712271
189,14289.5900685662851931158385641269395,14288.0,1.5900685662851931158385641269395
190,14441.1911314843055703105662047591010,14439.6,1.5911314843055703105662047591010
191,14593.5921888230782019491285396388647,14592.0,1.5921888230782019491285396388647
192,14746.7932406409390575875002449975690,14745.2,1.5932406409390575875002449975690
193,14900.7942869953145075541100475702345,14899.2,1.5942869953145075541100475702345
194,15055.5953279427401454049297384527575,15054.0,1.5953279427401454049297384527575
195,15211.1963635388791270438170538902853,15209.6,1.5963635388791270438170538902853
196,15367.5973938385400402001801202067133,15366.0,1.5973938385400402001801202067133
197,15524.7984188956943186394562583836537,15523.2,1.5984188956943186394562583836537
198,15682.7994387634932152685582142781789,15681.2,1.5994387634932152685582142781789
199,15841.6004534942843469703212811928832,15840.0,1.6004534942843469703212811928832
200,16001.2014631396278251073310824321077,15999.6,1.6014631396278251073310824321077
201,16161.6024677503119826717359574410407,16160.0,1.6024677503119826717359574410407
202,16322.8034673763687114573852232260701,16321.2,1.6034673763687114573852232260701
203,16484.8044620670884199092050201090075,16483.2,1.6044620670884199092050201090075
204,16647.6054518710346232649133772886570,16646.0,1.6054518710346232649133772886570
205,16811.2064368360581759546248016852133,16809.6,1.6064368360581759546248016852133
206,16975.6074170093111592772890702850769,16974.0,1.6074170093111592772890702850769
207,17140.8083924372604302248389005179327,17139.2,1.6083924372604302248389005179327
208,17306.8093631657008456757053934741351,17305.2,1.6093631657008456757053934741351
209,17473.6103292397681677007895377273814,17472.0,1.6103292397681677007895377273814
210,17641.2112907039516614777512074490898,17639.6,1.6112907039516614777512074490898
211,17809.6122476021063931728417995523071,17808.0,1.6122476021063931728417995523071
212,17978.8131999774652380176769432878306,17977.2,1.6131999774652380176769432878306
213,18148.8141478726506029591160154040905,18147.2,1.6141478726506029591160154040905
214,18319.6150913296858788582153593853140,18318.0,1.6150913296858788582153593853140
215,18491.2160303900066214447700158245809,18489.6,1.6160303900066214447700158245809
216,18663.6169650944714749821901031564054,18662.0,1.6169650944714749821901031564054
217,18836.8178954833728426020455285804354,18835.2,1.6178954833728426020455285804354
218,19010.8188215964473122810296066734305,19009.2,1.6188215964473122810296066734305
219,19185.6197434728858417335821604080071,19184.0,1.6197434728858417335821604080071
220,19361.2206611513437147286086922095319,19359.6,1.6206611513437147286086922095319
221,19537.6215746699502667329034059408219,19536.0,1.6215746699502667329034059408219
222,19714.8224840663183970789628150408047,19713.2,1.6224840663183970789628150408047
223,19892.8233893775538612183495213706864,19891.2,1.6233893775538612183495213706864
224,20071.6242906402643581202394729545781,20070.0,1.6242906402643581202394729545781
225,20251.2251878905684153720360646694032,20249.6,1.6251878905684153720360646694032
226,20431.6260811641040755203392813463222,20430.0,1.6260811641040755203392813463222
227,20612.8269704960373922954700962371096,20611.2,1.6269704960373922954700962371096
228,20794.8278559210707385301120386659759,20793.2,1.6278559210707385301120386659759
229,20977.6287374734509329245806014625077,20976.0,1.6287374734509329245806014625077
230,21161.2296151869771903453311789341286,21159.6,1.6296151869771903453311789341286
231,21345.6304890950088974463531927007386,21344.0,1.6304890950088974463531927007386
232,21530.8313592304732240227508083731667,21529.2,1.6313592304732240227508083731667
233,21716.8322256258725650824060170556130,21715.2,1.6322256258725650824060170556130
234,21903.6330883132918297821872434850449,21902.0,1.6330883132918297821872434850449
235,22091.2339473244055704002080215606570,22089.6,1.6339473244055704002080215606570
236,22279.6348026904849610433177133027303,22278.0,1.6348026904849610433177133027303
237,22468.8356544424046297103737279466515,22467.2,1.6356544424046297103737279466515
238,22658.8365026106493454427349474540884,22657.2,1.6365026106493454427349474540884
