Eigenstate,Energy,Kinetic Energy,Potential Energy
1,0.500000000727409763534658703405214737,0.0,0.500000000727409763534658703405214737
2,1.84623094239937449459815387541193333,1.2,0.64623094239937449459815387541193333
3,3.93633762365309841288687557282643204,3.2,0.73633762365309841288687557282643204
4,6.79966530686799165188617963496299264,6.0,0.79966530686799165188617963496299264
5,10.4480466256158344575137301261981239,9.6,0.8480466256158344575137301261981239
6,14.8870660747575311689699741220935985,14.0,0.8870660747575311689699741220935985
7,20.1197209357826650340243613788816650,19.2,0.9197209357826650340243613788816650
8,26.1477839950970291324637789025273648,25.2,0.9477839950970291324637789025273648
9,32.9723837517255279778695640918463724,32.0,0.9723837517255279778695640918463724
10,40.5942804598304201979272186660353437,39.6,0.9942804598304201979272186660353437
11,49.0140096895639809518828309223826537,48.0,1.0140096895639809518828309223826537
12,58.2319625362408946536904722668438063,57.2,1.0319625362408946536904722668438063
13,68.2484331299365340646772487093257775,67.2,1.0484331299365340646772487093257775
14,79.0636481683435181282613673877673383,78.0,1.0636481683435181282613673877673383
15,90.6777860325861367212723447401994551,89.6,1.0777860325861367212723447401994551
16,103.090989592090947254297621204705843,102.0,1.090989592090947254297621204705843
17,116.303375038048378486267002627433283,115.2,1.103375038048378486267002627433283
18,130.315038134418997607006680818477428,129.2,1.115038134418997607006680818477428
19,145.126058741037535331067821612328831,144.0,1.126058741037535331067821612328831
20,160.736504151246856714409345712334629,159.6,1.136504151246856714409345712334629
21,177.146431597979683976363691340551151,176.0,1.146431597979683976363691340551151
22,194.355890164917356338544035400816566,193.2,1.155890164917356338544035400816566
23,212.364922264426370276961594497054126,211.2,1.164922264426370276961594497054126
24,231.173564794958814394676379478109681,230.0,1.173564794958814394676379478109681
25,250.781850057848306481182825321239838,249.6,1.181850057848306481182825321239838
26,271.189806491117590468398434562871139,270.0,1.189806491117590468398434562871139
27,292.397459262441120422256663547283640,291.2,1.197459262441120422256663547283640
28,314.404830752504107784352344187460603,313.2,1.204830752504107784352344187460603
29,337.211940952204480176753714833919511,336.0,1.211940952204480176753714833919511
30,360.818807791494712457744755432188617,359.6,1.218807791494712457744755432188617
31,385.225447413514552176274625436202907,384.0,1.225447413514552176274625436202907
32,410.431874404587761959386696129574167,409.2,1.231874404587761959386696129574167
33,436.438101988346353541774372707762443,435.2,1.238101988346353541774372707762443
34,463.244142190495241864973506311054654,462.0,1.244142190495241864973506311054654
35,490.850005979391052596476731295910822,489.6,1.250005979391052596476731295910822
36,519.255703386575337531845833459798515,518.0,1.255703386575337531845833459798515
37,548.461243610598367787824311664716802,547.2,1.261243610598367787824311664716802
38,578.466635106839255946301550023068169,577.2,1.266635106839255946301550023068169
39,609.271885665530309655612193217182673,608.0,1.271885665530309655612193217182673
40,640.877002479797698409130231915433036,639.6,1.277002479797698409130231915433036
41,673.281992205213764945078121441735738,672.0,1.281992205213764945078121441735738
42,706.486861012101320108157359802139218,705.2,1.286861012101320108157359802139218
43,740.491614631623773667272031504026059,739.2,1.291614631623773667272031504026059
44,775.296258396526859566999021080814874,774.0,1.296258396526859566999021080814874
45,810.900797277260144520587414988368001,809.6,1.300797277260144520587414988368001
46,847.305235914093372568991320233689179,846.0,1.305235914093372568991320233689179
47,884.509578645749221617570853206979020,883.2,1.309578645749221617570853206979020
48,922.513829534996461597433433543959126,921.2,1.313829534996461597433433543959126
49,961.317992391582841354170307857878428,960.0,1.317992391582841354170307857878428
50,1000.92207079283290865284770044259172,999.6,1.32207079283290865284770044259172
51,1041.32606810219050072546320294444469,1040.0,1.32606810219050072546320294444469
52,1082.52998748594729757265195570558575,1081.2,1.32998748594729757265195570558575
53,1124.53383192836638011279838577150465,1123.2,1.33383192836638011279838577150465
54,1167.33760424538217414021045114206604,1166.0,1.33760424538217414021045114206604
55,1210.94130709703468556148363301766921,1209.6,1.34130709703468556148363301766921
56,1255.34494299877585780906903786256996,1254.0,1.34494299877585780906903786256996
57,1300.54851433176868336597322340862209,1299.2,1.34851433176868336597322340862209
58,1346.55202335228490414928270584243085,1345.2,1.35202335228490414928270584243085
59,1393.35547220029438155299406404532107,1392.0,1.35547220029438155299406404532107
60,1440.95886290732819244301858000043413,1439.6,1.35886290732819244301858000043413
61,1489.36219740368794316981974500201679,1488.0,1.36219740368794316981974500201679
62,1538.56547752506549265914160270359758,1537.2,1.36547752506549265914160270359758
63,1588.56870501863003375238156745131246,1587.2,1.36870501863003375238156745131246
64,1639.37188154863316948837316836984582,1638.0,1.37188154863316948837316836984582
65,1690.97500870157708617851310132618542,1689.6,1.37500870157708617851310132618542
66,1743.37808799098607778825695755315996,1742.0,1.37808799098607778825695755315996
67,1796.58112086181741384684558094627455,1795.2,1.38112086181741384684558094627455
68,1850.58410869454378694647663218632396,1849.2,1.38410869454378694647663218632396
69,1905.38705280893626322158982342125606,1904.0,1.38705280893626322158982342125606
70,1960.98995446757373093084166703969388,1959.6,1.38995446757373093084166703969388
71,2017.39281487910224356081692628525828,2016.0,1.39281487910224356081692628525828
72,2074.59563520126535562832907150594825,2073.2,1.39563520126535562832907150594825
73,2132.59841654372449635197380240837842,2131.2,1.39841654372449635197380240837842
74,2191.40115997068660751525240586085729,2190.0,1.40115997068660751525240586085729
75,2251.00386650335464074270410253264117,2249.6,1.40386650335464074270410253264117
76,2311.40653712221505985395508159833643,2310.0,1.40653712221505985395508159833643
77,2372.60917276917519156241526736117201,2371.2,1.40917276917519156241526736117201
78,2434.61177434956210198741542516768970,2433.2,1.41177434956210198741542516768970
79,2497.41434273399362962883866348723923,2496.0,1.41434273399362962883866348723923
80,2561.01687876013126732791662191599621,2559.6,1.41687876013126732791662191599621
81,2625.41938323432373639665708006206284,2624.0,1.41938323432373639665708006206284
82,2690.62185693314933464809371617918491,2689.2,1.42185693314933464809371617918491
83,2756.62430060486445132604800903767928,2755.2,1.42430060486445132604800903767928
84,2823.42671497076501764167652909681171,2822.0,1.42671497076501764167652909681171
85,2891.02910072646710234821191063051082,2889.6,1.42910072646710234821191063051082
86,2959.43145854311234592023239101486033,2958.0,1.43145854311234592023239101486033
87,3028.63378906850346943332971690107069,3027.2,1.43378906850346943332971690107069
88,3098.63609292817467086264361690535218,3097.2,1.43609292817467086264361690535218
89,3169.43837072640133801692387192268428,3168.0,1.43837072640133801692387192268428
90,3241.04062304715316410841717055993239,3239.6,1.44062304715316410841717055993239
91,3313.44285045499443050719516720001652,3312.0,1.44285045499443050719516720001652
92,3386.64505349593493293139670346841770,3385.2,1.44505349593493293139670346841770
93,3460.64723269823476507019247480201791,3459.2,1.44723269823476507019247480201791
94,3535.44938857316593070796664414333524,3534.0,1.44938857316593070796664414333524
95,3611.05152161573353426460557593803576,3609.6,1.45152161573353426460557593803576
96,3687.45363230535909784510540585580383,3686.0,1.45363230535909784510540585580383
97,3764.65572110652836855006969383624677,3763.2,1.45572110652836855006969383624677
98,3842.65778846940580692483648632217914,3841.2,1.45778846940580692483648632217914
99,3921.45983483041779395328174534689885,3920.0,1.45983483041779395328174534689885
100,4001.06186061280644766243608430799337,3999.6,1.46186061280644766243608430799337
101,4081.46386622715581110041773812632049,4080.0,1.46386622715581110041773812632049
102,4162.66585207189204787601325327814316,4161.2,1.46585207189204787601325327814316
103,4244.66781853375917353517498193932798,4243.2,1.46781853375917353517498193932798
104,4327.46976598827174378559294347433863,4326.0,1.46976598827174378559294347433863
105,4411.07169480014582750732253591116608,4409.6,1.47169480014582750732253591116608
106,4495.47360532370950172384288063973166,4494.0,1.47360532370950172384288063973166
107,4580.67549790329402762660762313564477,4579.2,1.47549790329402762660762313564477
108,4666.67737287360678750725710463351272,4665.2,1.47737287360678750725710463351272
109,4753.47923056008699385882849061917736,4752.0,1.47923056008699385882849061917736
110,4841.08107127924511948788248164544329,4839.6,1.48107127924511948788248164544329
111,4929.48289533898693161901448928867657,4928.0,1.48289533898693161901448928867657
112,5018.68470303892296354035180460221527,5017.2,1.48470303892296354035180460221527
113,5108.68649467066420180364317963136920,5107.2,1.48649467066420180364317963136920
114,5199.48827051810471823561432570798432,5198.0,1.48827051810471823561432570798432
115,5291.09003085769193556962049227193013,5289.6,1.49003085769193556962049227193013
116,5383.49177595868516717586279462686106,5382.0,1.49177595868516717586279462686106
117,5476.69350608340303965635545544760102,5475.2,1.49350608340303965635545544760102
118,5570.69522148746036604067251002574348,5569.2,1.49522148746036604067251002574348
119,5665.49692241999500360578476532014278,5664.0,1.49692241999500360578476532014278
120,5761.09860912388520450208699875574159,5759.6,1.49860912388520450208699875574159
121,5857.50028183595792910153801001846867,5856.0,1.50028183595792910153801001846867
122,5954.70194078718857307181298955542771,5953.2,1.50194078718857307181298955542771
123,6052.70358620289252698858079558864392,6051.2,1.50358620289252698858079558864392
124,6151.50521830290896961940619273421337,6150.0,1.50521830290896961940619273421337
125,6251.10683730177726644775271947110782,6249.6,1.50683730177726644775271947110782
126,6351.50844340890632980955072602636383,6350.0,1.50844340890632980955072602636383
127,6452.71003682873727643824191223196819,6451.2,1.51003682873727643824191223196819
128,6554.71161776089969562841760367132360,6553.2,1.51161776089969562841760367132360
129,6657.51318640036182915636093054353330,6656.0,1.51318640036182915636093054353330
130,6761.11474293757494571544695579530218,6759.6,1.51474293757494571544695579530218
131,6865.51628755861217722178774720372090,6864.0,1.51628755861217722178774720372090
132,6970.71782044530206936993251045592128,6969.2,1.51782044530206936993251045592128
133,7076.71934177535708703852458309710021,7075.2,1.51934177535708703852458309710021
134,7183.52085172249730387162349267319036,7182.0,1.52085172249730387162349267319036
135,7291.12235045656948725487120031504054,7289.6,1.52235045656948725487120031504054
136,7399.52383814366178622004419904999866,7398.0,1.52383814366178622004419904999866
137,7508.72531494621421650557157750271910,7507.2,1.52531494621421650557157750271910
138,7618.72678102312512339065076329861082,7617.2,1.52678102312512339065076329861082
139,7729.52823652985380081683219743256699,7728.0,1.52823652985380081683219743256699
140,7841.12968161851942986719725315141342,7839.6,1.52968161851942986719725315141342
141,7953.53111643799649511807300753905140,7952.0,1.53111643799649511807300753905140
142,8066.73254113400682930738869936009691,8065.2,1.53254113400682930738869936009691
143,8180.73395584920842811610793369396491,8179.2,1.53395584920842811610793369396491
144,8295.53536072328116968216051117630282,8294.0,1.53536072328116968216051117630282
145,8411.13675589300956928125838321096404,8409.6,1.53675589300956928125838321096404
146,8527.53814149236269174309156890646065,8526.0,1.53814149236269174309156890646065
147,8644.73951765257133597137774882978510,8643.2,1.53951765257133597137774882978510
148,8762.74088450220260698130751026455108,8761.2,1.54088450220260698130751026455108
149,8881.54224216723197734308849465736630,8880.0,1.54224216723197734308849465736630
150,9001.14359077111294176354890657165400,8999.6,1.54359077111294176354890657165400
151,9121.54493043484436081468873821163780,9120.0,1.54493043484436081468873821163780
152,9242.74626127703558420660227396426945,9241.2,1.54626127703558420660227396426945
153,9364.74758341396944265657425995899158,9363.2,1.54758341396944265657425995899158
154,9487.54889695966319235967400333881590,9486.0,1.54889695966319235967400333881590
155,9611.15020202592749040710065032661683,9609.6,1.55020202592749040710065032661683
156,9735.55149872242347913325152602393553,9734.0,1.55149872242347913325152602393553
157,9860.75278715671805055727017575106640,9859.2,1.55278715671805055727017575106640
158,9986.75406743433736286109570265240079,9985.2,1.55406743433736286109570265240079
159,10113.5553396588186727057172459605190,10112.0,1.5553396588186727057172459605190
160,10241.1566039317605498572477009047491,10239.6,1.5566039317605498572477009047491
161,10369.5578603528715327584388529392895,10368.0,1.5578603528715327584388529392895
162,10498.7591090200172846519229185555489,10497.2,1.5591090200172846519229185555489
163,10628.7603500292663052595936001286928,10627.2,1.5603500292663052595936001286928
164,10759.5615834749342528120757757021953,10758.0,1.5615834749342528120757757021953
165,10891.1628094496269251923469039660169,10889.6,1.5628094496269251923469039660169
166,11023.5640280442819508797510615446482,11022.0,1.5640280442819508797510615446482
167,11156.7652393482092371045367434421782,11155.2,1.5652393482092371045367434421782
168,11290.7664434491302180870940377004852,11289.2,1.5664434491302180870940377004852
169,11425.5676404332159486170736757360262,11424.0,1.5676404332159486170736757360262
170,11561.1688303851240829168148287012360,11559.6,1.5688303851240829168148287012360
171,11697.5700133880347791934334569088827,11696.0,1.5700133880347791934334569088827
172,11834.7711895236855679651590833128986,11833.2,1.5711895236855679651590833128986
173,11972.7723588724052197926013382830545,11971.2,1.5723588724052197926013382830545
174,12111.5735215131466484967684004152130,12110.0,1.5735215131466484967684004152130
175,12251.1746775235188840974606212714806,12249.6,1.5746775235188840974606212714806
176,12391.5758269798181454380110314377938,12390.0,1.5758269798181454380110314377938
177,12532.7769699570580460280013056509130,12531.2,1.5769699570580460280013056509130
178,12674.7781065289989625414730244141457,12673.2,1.5781065289989625414730244141457
179,12817.5792367681765927113697752854613,12816.0,1.5792367681765927113697752854613
180,12961.1803607459297338756767973788815,12959.6,1.5803607459297338756767973788815
181,13105.5814785324273051468812164083629,13104.0,1.5814785324273051468812164083629
182,13250.7825901966946412378696440772615,13249.2,1.5825901966946412378696440772615
183,13396.7836958066390813467086306548500,13395.2,1.5836958066390813467086306548500
184,13543.5847954290748777112647075836457,13542.0,1.5847954290748777112647075836457
185,13691.1858891297474460282932992603819,13689.6,1.5858891297474460282932992603819
186,13839.5869769733569791101299799289230,13838.0,1.5869769733569791101299799289230
187,13988.7880590235814480029316050524899,13987.2,1.5880590235814480029316050524899
188,14138.7891353430990064461874121652060,14137.2,1.5891353430990064461874121652060
189,14289.5902059936098228690147949051833,14288.0,1.5902059936098228690147949051833
190,14441.1912710358573560608921020808612,14439.6,1.5912710358573560608921020808612
191,14593.5923305296490942493138874580170,14592.0,1.5923305296490942493138874580170
192,14746.7933845338767745011287119512482,14745.2,1.5933845338767745011287119512482
193,14900.7944331065361013119396714345100,14899.2,1.5944331065361013119396714345100
194,15055.5954763047459783123138761976217,15054.0,1.5954763047459783123138761976217
195,15211.1965141847672716400224340877791,15209.6,1.5965141847672716400224340877791
196,15367.5975468020211193176809163559139,15366.0,1.5975468020211193176809163559139
197,15524.7985742111068016908127955414218,15523.2,1.5985742111068016908127955414218
198,15682.7995964658191878021522335240835,15681.2,1.5995964658191878021522335240835
199,15841.6006136191657712859212257020468,15840.0,1.6006136191657712859212257020468
200,16001.2016257233833105102589426503296,15999.6,1.6016257233833105102589426503296
201,16161.6026328299540847725752389130214,16160.0,1.6026328299540847725752389130214
202,16322.8036349896217807949555675542587,16321.2,1.6036349896217807949555675542587
203,16484.8046322524070210905168035625917,16483.2,1.6046322524070210905168035625917
204,16647.6056246676225467796281868771885,16646.0,1.6056246676225467796281868771885
205,16811.2066122838880658360058529088461,16809.6,1.6066122838880658360058529088461
206,16975.6075951491447808498405777969335,16974.0,1.6075951491447808498405777969335
207,17140.8085733106696033039331446584356,17139.2,1.6085733106696033039331446584356
208,17306.8095468150890697700147422614604,17305.2,1.6095468150890697700147422614604
209,17473.6105157083929670179335919614861,17472.0,1.6105157083929670179335919614861
210,17641.2114800359476788511528253126854,17639.6,1.6114800359476788511528253126854
211,17809.6124398425092634176490768645528,17808.0,1.6124398425092634176490768645528
212,17978.8133951722362726901381035158190,17977.2,1.6133951722362726901381035158190
213,18148.8143460687023200419572107092412,18147.2,1.6143460687023200419572107092412
214,18319.6152925749084125293865631108573,18318.0,1.6152925749084125293865631108573
215,18491.2162347332950488140216252195367,18489.6,1.6162347332950488140216252195367
216,18663.6171725857540985052013308043373,18662.0,1.6171725857540985052013308043373
217,18836.8181061736404688116098199282468,18835.2,1.6181061736404688116098199282468
218,19010.8190355377835695159243553538718,19009.2,1.6190355377835695159243553538718
219,19185.6199607184985817055227278131384,19184.0,1.6199607184985817055227278131384
220,19361.2208817555975450539597489341668,19359.6,1.6208817555975450539597489341668
221,19537.6217986884002639770600588623101,19536.0,1.6217986884002639770600588623101
222,19714.8227115557450524265301170571331,19713.2,1.6227115557450524265301170571331
223,19892.8236203959993136012794460489877,19891.2,1.6236203959993136012794460489877
224,20071.6245252470699725193370317320146,20070.0,1.6245252470699725193370317320146
225,20251.2254261464137670661311288776198,20249.6,1.6254261464137670661311288776198
226,20431.6263231310474043040161928213762,20430.0,1.6263231310474043040161928213762
227,20612.8272162375575941337485391281379,20611.2,1.6272162375575941337485391281379
228,20794.8281055021109657810215758208910,20793.2,1.6281055021109657810215758208910
229,20977.6289909604638781534829281637122,20976.0,1.6289909604638781534829281637122
230,21161.2298726479721328945671569914616,21159.6,1.6298726479721328945671569914616
231,21345.6307505996005963282142677964909,21344.0,1.6307505996005963282142677964909
232,21530.8316248499327453922422635196505,21529.2,1.6316248499327453922422635196505
233,21716.8324954331801375394686196705969,21715.2,1.6324954331801375394686196705969
234,21903.6333623831918260738311747393812,21902.0,1.6333623831918260738311747393812
235,22091.2342257334637197656763037601109,22089.6,1.6342257334637197656763037601109
236,22279.6350855171479024965396831583317,22278.0,1.6350855171479024965396831583317
237,22468.8359417670619230124877167540145,22467.2,1.6359417670619230124877167540145
238,22658.8367945156980634144265966704588,22657.2,1.6367945156980634144265966704588
