Eigenstate,Energy,Kinetic Energy,Potential Energy
1,0.500000000147141697884684572122810125,0.0,0.500000000147141697884684572122810125
2,1.84623093861158354542219861806005233,1.2,0.64623093861158354542219861806005233
3,3.93633761252629643903523712536912748,3.2,0.73633761252629643903523712536912748
4,6.79966528369078749261249091566163386,6.0,0.79966528369078749261249091566163386
5,10.4480465854652023540281348114736556,9.6,0.8480465854652023540281348114736556
6,14.8870660126224017911045166310737098,14.0,0.8870660126224017911045166310737098
7,20.1197208466091569704767592248847881,19.2,0.9197208466091569704767592248847881
8,26.1477838738070291341541227840376591,25.2,0.9477838738070291341541227840376591
9,32.9723835932250702464052008931757792,32.0,0.9723835932250702464052008931757792
10,40.5942802590136987344035266590986476,39.6,0.9942802590136987344035266590986476
11,49.0140094413153054469109880184730891,48.0,1.0140094413153054469109880184730891
12,58.2319622354355977173473589403714177,57.2,1.0319622354355977173473589403714177
13,68.2484327714413068249996197117091701,67.2,1.0484327714413068249996197117091701
14,79.0636477470164161018817103392270282,78.0,1.0636477470164161018817103392270282
15,90.6777855432763859977325324661299443,89.6,1.0777855432763859977325324661299443
16,103.090989029638624466238650124403038,102.0,1.090989029638624466238650124403038
17,116.303374397284007886027557187197660,115.2,1.103374397284007886027557187197660
18,130.315037410163091749162184619544661,129.2,1.115037410163091749162184619544661
19,145.126057928100096094539668793076063,144.0,1.126057928100096094539668793076063
20,160.736503244426847525226201151910690,159.6,1.136503244426847525226201151910690
21,177.146430592064480449088651093376009,176.0,1.146430592064480449088651093376009
22,194.355889054682180230675451826141280,193.2,1.155889054682180230675451826141280
23,212.364921044633710130984457835771891,211.2,1.164921044633710130984457835771891
24,231.173563460357835225978317775167138,230.0,1.173563460357835225978317775167138
25,250.781848603174250176062762864331339,249.6,1.181848603174250176062762864331339
26,271.189804911091168073611603563732948,270.0,1.189804911091168073611603563732948
27,292.397457551767897165831543688745518,291.2,1.197457551767897165831543688745518
28,314.404828905873881421656925018913321,313.2,1.204828905873881421656925018913321
29,337.211938964290653076373652355507856,336.0,1.211938964290653076373652355507856
30,360.818805656953657708894277970580295,359.6,1.218805656953657708894277970580295
31,385.225445126984973899772174977360896,384.0,1.225445126984973899772174977360896
32,410.431871960690049928443844428011327,409.2,1.231871960690049928443844428011327
33,436.438099381681932160504438435350868,435.2,1.238099381681932160504438435350868
34,463.244139415645913507049439005115081,462.0,1.244139415645913507049439005115081
35,490.850003030918335270474703129248456,489.6,1.250003030918335270474703129248456
36,519.255700259019796811125098788750210,518.0,1.255700259019796811125098788750210
37,548.461240298478942919569258940757172,547.2,1.261240298478942919569258940757172
38,578.466631604652580035301117557486352,577.2,1.266631604652580035301117557486352
39,609.271881967750023802508617568784703,608.0,1.271881967750023802508617568784703
40,640.876998580873759669506479125484087,639.6,1.276998580873759669506479125484087
41,673.281988099571747964319392335063378,672.0,1.281988099571747964319392335063378
42,706.486856694141712277090402054708813,705.2,1.286856694141712277090402054708813
43,740.491610095721263634830279157915654,739.2,1.291610095721263634830279157915654
44,775.296253637029618938326233597356017,774.0,1.296253637029618938326233597356017
45,810.900792288489102561876858996744654,809.6,1.300792288489102561876858996744654
46,847.305230690341483733802328494096920,846.0,1.305230690341483733802328494096920
47,884.509573181280725703246468424814257,883.2,1.309573181280725703246468424814257
48,922.513823824046136334457782943461881,921.2,1.313823824046136334457782943461881
49,961.317986428355247225772823397921292,960.0,1.317986428355247225772823397921292
50,1000.92206457150162573681696989571422,999.6,1.32206457150162573681696989571422
51,1041.32606161689735734492026847163753,1040.0,1.32606161689735734492026847163753
52,1082.52998073080159053740844123369510,1081.2,1.32998073080159053740844123369510
53,1124.53382489744408632785198979115405,1123.2,1.33382489744408632785198979115405
54,1167.33759693272515335287426466952836,1166.0,1.33759693272515335287426466952836
55,1210.94129949664987401358528778474952,1209.6,1.34129949664987401358528778474952
56,1255.34493510463445255556472679761060,1254.0,1.34493510463445255556472679761060
57,1300.54850613780531701618269127819267,1299.2,1.34850613780531701618269127819267
58,1346.55201485239680978174366023154551,1345.2,1.35201485239680978174366023154551
59,1393.35546338834054754965159806565089,1392.0,1.35546338834054754965159806565089
60,1440.95885377712850698308366742028827,1439.6,1.35885377712850698308366742028827
61,1489.36218794902232811814689580152364,1488.0,1.36218794902232811814689580152364
62,1538.56546773967302657837239905349209,1537.2,1.36546773967302657837239905349209
63,1588.56869489620806376237499718130972,1587.2,1.36869489620806376237499718130972
64,1639.37187108283641169057940692777858,1638.0,1.37187108283641169057940692777858
65,1690.97499788601671435693762942819453,1689.6,1.37499788601671435693762942819453
66,1743.37807681922880009250393162815647,1742.0,1.37807681922880009250393162815647
67,1796.58110932738453715640553597397838,1795.2,1.38110932738453715640553597397838
68,1850.58409679091026860893603535899459,1849.2,1.38409679091026860893603535899459
69,1905.38704052952974985077001789056371,1904.0,1.38704052952974985077001789056371
70,1960.98994180577358394403066076899658,1959.6,1.38994180577358394403066076899658
71,2017.39280182823855112721114897620632,2016.0,1.39280182823855112721114897620632
72,2074.59562175461793069356795899057009,2073.2,1.39562175461793069356795899057009
73,2132.59840269452186039620143458473035,2131.2,1.39840269452186039620143458473035
74,2191.40114571210495969448416141656255,2190.0,1.40114571210495969448416141656255
75,2251.00385182851681205539523173211546,2249.6,1.40385182851681205539523173211546
76,2311.40652202418945196656186031109004,2310.0,1.40652202418945196656186031109004
77,2372.60915724097469991939240098570236,2371.2,1.40915724097469991939240098570236
78,2434.61175838414302282250397877015410,2433.2,1.41175838414302282250397877015410
79,2497.41432632425455048565612902107848,2496.0,1.41432632425455048565612902107848
80,2561.01686189891194068875657896232706,2559.6,1.41686189891194068875657896232706
81,2625.41936591440393600903046997529112,2624.0,1.41936591440393600903046997529112
82,2690.62183914724769412888952055364871,2689.2,1.42183914724769412888952055364871
83,2756.62428234563728461324940824902531,2755.2,1.42428234563728461324940824902531
84,2823.42669623080512085332736552390953,2822.0,1.42669623080512085332736552390953
85,2891.02908149830253659777923532729150,2889.6,1.42908149830253659777923532729150
86,2959.43143881920520062664592574453869,2958.0,1.43143881920520062664592574453869
87,3028.63376884124860565278075971033699,3027.2,1.43376884124860565278075971033699
88,3098.63607218989844415769335849043270,3097.2,1.43607218989844415769335849043270
89,3169.43834946936030036658541109177876,3168.0,1.43834946936030036658541109177876
90,3241.04060126353274435062483340790375,3239.6,1.44060126353274435062483340790375
91,3313.44282813690759279245578694021855,3312.0,1.44282813690759279245578694021855
92,3386.64503063542081265340226648088128,3385.2,1.44503063542081265340226648088128
93,3460.64720928725728172576966639175182,3459.2,1.44720928725728172576966639175182
94,3535.44936460361237712491086534967025,3534.0,1.44936460361237712491086534967025
95,3611.05149707941314162169531506782847,3609.6,1.45149707941314162169531506782847
96,3687.45360719400157589390418962769198,3686.0,1.45360719400157589390418962769198
97,3764.65569541178242043296680791629425,3763.2,1.45569541178242043296680791629425
98,3842.65776218283761796815828495200794,3841.2,1.45776218283761796815828495200794
99,3921.45980794350949379819243719561827,3920.0,1.45980794350949379819243719561827
100,4001.06183311695454507972712787879733,3999.6,1.46183311695454507972712787879733
101,4081.46383811366960081814719682541302,4080.0,1.46383811366960081814719682541302
102,4162.66582333199198873126947899596393,4161.2,1.46582333199198873126947899596393
103,4244.66778915857523724300290573875001,4243.2,1.46778915857523724300290573875001
104,4327.46973596884173359928843378890345,4326.0,1.46973596884173359928843378890345
105,4411.07166412741366602488608073535117,4409.6,1.47166412741366602488608073535117
106,4495.47357398852348707533569953243629,4494.0,1.47357398852348707533569953243629
107,4580.67546589640505725646315073091367,4579.2,1.47546589640505725646315073091367
108,4666.67734018566654874425048964052228,4665.2,1.47734018566654874425048964052228
109,4753.47919718164612044435660956578008,4752.0,1.47919718164612044435660956578008
110,4841.08103720075131321045053557972174,4839.6,1.48103720075131321045053557972174
111,4929.48286055078304817932243879044552,4928.0,1.48286055078304817932243879044552
112,5018.68466753124506174710640905511392,5017.2,1.48466753124506174710640905511392
113,5108.68645843363955517515494385064448,5107.2,1.48645843363955517515494385064448
114,5199.48823354174978805635178711457690,5198.0,1.48823354174978805635178711457690
115,5291.08999313191030442414758864357377,5289.6,1.48999313191030442414758864357377
116,5383.49173747326543195495715591169399,5382.0,1.49173747326543195495715591169399
117,5476.69346682801666300155112896915232,5475.2,1.49346682801666300155112896915232
118,5570.69518145165948516397154199471225,5569.2,1.49518145165948516397154199471225
119,5665.49688159321019539078582586120509,5664.0,1.49688159321019539078582586120509
120,5761.09856749542320576126086188186247,5759.6,1.49856749542320576126086188186247
121,5857.50023939499931083179602256381599,5856.0,1.50023939499931083179602256381599
122,5954.70189752278536751682272654299120,5953.2,1.50189752278536751682272654299120
123,6052.70354210396580628144894059292527,6051.2,1.50354210396580628144894059292527
124,6151.50517335824637474331874428834830,6150.0,1.50517335824637474331874428834830
125,6251.10679150003048521489750411218638,6249.6,1.50679150003048521489750411218638
126,6351.50839673858852252009633124336058,6350.0,1.50839673858852252009633124336058
127,6452.70998927822044784126526542368110,6451.2,1.50998927822044784126526542368110
128,6554.71156931841201176539758916728781,6553.2,1.51156931841201176539758916728781
129,6657.51313705398487762515027517062049,6656.0,1.51313705398487762515027517062049
130,6761.11469267524093784842118907072839,6759.6,1.51469267524093784842118907072839
131,6865.51623636810109062610785384946547,6864.0,1.51623636810109062610785384946547
132,6970.71776831423872923047374111430711,6969.2,1.51776831423872923047374111430711
133,7076.71928869120818453496504831036932,7075.2,1.51928869120818453496504831036932
134,7183.52079767256835001036694071625458,7182.0,1.52079767256835001036694071625458
135,7291.12229542800170036384568717308519,7289.6,1.52229542800170036384568717308519
136,7399.52378212342891129989540688340380,7398.0,1.52378212342891129989540688340380
137,7508.72525792111927457426827479303441,7507.2,1.52525792111927457426827479303441
138,7618.72672297979708889997758165700845,7617.2,1.52672297979708889997758165700845
139,7729.52817745474420515855978666864119,7728.0,1.52817745474420515855978666864119
140,7841.12962149789888892381715991875258,7839.6,1.52962149789888892381715991875258
141,7953.53105525795115874777311759416570,7952.0,1.53105525795115874777311759416570
142,8066.73247888043475058531046574937292,8065.2,1.53247888043475058531046574937292
143,8180.73389250781585008379376370538963,8179.2,1.53389250781585008379376370538963
144,8295.53529627957872728434419928538760,8294.0,1.53529627957872728434419928538760
145,8411.13669033230840409367793342829045,8409.6,1.53669033230840409367793342829045
146,8527.53807479977047701667191261220770,8526.0,1.53807479977047701667191261220770
147,8644.73944981298820943685715506436680,8643.2,1.53944981298820943685715506436680
148,8762.74081550031700877400834729932416,8761.2,1.54081550031700877400834729932416
149,8881.54217198751639031993007873380701,8880.0,1.54217198751639031993007873380701
150,9001.14351939781953139346159497499466,8999.6,1.54351939781953139346159497499466
151,9121.54485785200051172910539707248343,9120.0,1.54485785200051172910539707248343
152,9242.74618746843933039860071148038351,9241.2,1.54618746843933039860071148038351
153,9364.74750836318478821529071204994112,9363.2,1.54750836318478821529071204994112
154,9487.54882065001531952068231715227202,9486.0,1.54882065001531952068231715227202
155,9611.15012444049785158935311104269937,9609.6,1.55012444049785158935311104269937
156,9735.55141984404476951873101416179978,9734.0,1.55141984404476951873101416179978
157,9860.75270696796905765051651488252289,9859.2,1.55270696796905765051651488252289
158,9986.75398591753768934201918900520659,9985.2,1.55398591753768934201918900520659
159,10113.5552567960233287604136882436194,10112.0,1.5552567960233287604136882436194
160,10241.1565197047544110376311647664914,10239.6,1.5565197047544110376311647664914
161,10369.5577747431636592821841060096985,10368.0,1.5577747431636592821841060096985
162,10498.7590220088350979092091988668341,10497.2,1.5590220088350979092091988668341
163,10628.7602615975496171422124094516788,10627.2,1.5602615975496171422124094516788
164,10759.5614936033291433233022968603540,10758.0,1.5614936033291433233022968603540
165,10891.1627181184794636323226731823140,10889.6,1.5627181184794636323226731823140
166,11023.5639352336317557306712736071495,11022.0,1.5639352336317557306712736071495
167,11156.7651450377828695623257500470879,11155.2,1.5651450377828695623257500470879
168,11290.7663476183344040011979836926876,11289.2,1.5663476183344040011979836926876
169,11425.5675430611306234071168387036607,11424.0,1.5675430611306234071168387036607
170,11561.1687314504952538337711402256132,11559.6,1.5687314504952538337711402256132
171,11697.5699128692671990832928231034437,11696.0,1.5699128692671990832928231034437
172,11834.7710873988352144743625732359131,11833.2,1.5710873988352144743625732359131
173,11972.7722551191715737263972973951154,11971.2,1.5722551191715737263972973951154
174,12111.5734161088647648035683464067325,12110.0,1.5734161088647648035683464067325
175,12251.1745704451512487038203463611065,12249.6,1.5745704451512487038203463611065
176,12391.5757182039463108994884380167773,12390.0,1.5757182039463108994884380167773
177,12532.7768594598740386902995368660355,12531.2,1.5768594598740386902995368660355
178,12674.7779942862964536234072679497535,12673.2,1.5779942862964536234072679497535
179,12817.5791227553418254256662324806166,12816.0,1.5791227553418254256662324806166
180,12961.1802449379321983948084350372334,12959.6,1.5802449379321983948084350372334
181,13105.5813609038101528983784819895939,13104.0,1.5813609038101528983784819895939
182,13250.7824707215648296760875699528540,13249.2,1.5824707215648296760875699528540
183,13396.7835744586572399951430980104340,13395.2,1.5835744586572399951430980104340
184,13543.5846721814448859003754394402070,13542.0,1.5846721814448859003754394402070
185,13691.1857639552057123675801077638972,13689.6,1.5857639552057123675801077638972
186,13839.5868498441614123289912356550227,13838.0,1.5868498441614123289912356550227
187,13988.7879299115001083716916831626222,13987.2,1.5879299115001083716916831626222
188,14138.7890042193984265455839411099119,14137.2,1.5890042193984265455839411099119
189,14289.5900728290429860123284416786644,14288.0,1.5900728290429860123284416786644
190,14441.1911358006513201866479529542151,14439.6,1.5911358006513201866479529542151
191,14593.5921931934922485928778250067637,14592.0,1.5921931934922485928778250067637
192,14746.7932450659057158192997725632323,14745.2,1.5932450659057158192997725632323
193,14900.7942914753221158744469870556895,14899.2,1.5942914753221158744469870556895
194,15055.5953324782811152865113578021411,15054.0,1.5953324782811152865113578021411
195,15211.1963681304499928785649088418943,15209.6,1.5963681304499928785649088418943
196,15367.5973984866415099118575134498983,15366.0,1.5973984866415099118575134498983
197,15524.7984236008313249728790815687783,15523.2,1.5984236008313249728790815687783
198,15682.7994435261749677665421894965234,15681.2,1.5994435261749677665421894965234
199,15841.6004583150243846497231649005387,15840.0,1.6004583150243846497231649005387
200,16001.2014680189440698457518129170212,15999.6,1.6014680189440698457518129170212
201,16161.6024726887267933166671421357416,16160.0,1.6024726887267933166671421357416
202,16322.8034723744089386698007038616379,16321.2,1.6034723744089386698007038616379
203,16484.8044671252854617538214160472768,16483.2,1.6044671252854617538214160472768
204,16647.6054569899244815595722145320158,16646.0,1.6054569899244815595722145320158
205,16811.2064420161815133914824335793277,16809.6,1.6064420161815133914824335793277
206,16975.6074222512133573287383320160529,16974.0,1.6074222512133573287383320160529
207,17140.8083977414916478473296073173471,17139.2,1.6083977414916478473296073173471
208,17306.8093685328160788248798925457446,17305.2,1.6093685328160788248798925457446
209,17473.6103346703273096716026738324274,17472.0,1.6103346703273096716026738324274
210,17641.2112961985195640835042325682174,17639.6,1.6112961985195640835042325682174
211,17809.6122531612529287773243216483183,17808.0,1.6122531612529287773243216483183
212,17978.8132056017653624348813472057841,17977.2,1.6132056017653624348813472057841
213,18148.8141535626844192352666398669543,18147.2,1.6141535626844192352666398669543
214,18319.6150970860387019511360417393735,18318.0,1.6150970860387019511360417393735
215,18491.2160362132690438159038977781082,18489.6,1.6160362132690438159038977781082
216,18663.6169709852394331168795105511902,18662.0,1.6169709852394331168795105511902
217,18836.8179014422476844739827563625465,18835.2,1.6179014422476844739827563625465
218,19010.8188276240358657770964804034517,19009.2,1.6188276240358657770964804034517
219,19185.6197495698004840556126957265568,19184.0,1.6197495698004840556126957265568
220,19361.2206673182024427889307286360206,19359.6,1.6206673182024427889307286360206
221,19537.6215809073767685608444820783710,19536.0,1.6215809073767685608444820783710
222,19714.8224903749421242558424899003439,19713.2,1.6224903749421242558424899003439
223,19892.8233957580101023588244022993940,19891.2,1.6233957580101023588244022993940
224,20071.6242970931943134182187914793060,20070.0,1.6242970931943134182187914793060
225,20251.2251944166192722297461550716148,20249.6,1.6251944166192722297461550716148
226,20431.6260877639290852794828697797259,20430.0,1.6260877639290852794828697797259
227,20612.8269771702959480898023333096033,20611.2,1.6269771702959480898023333096033
228,20794.8278626704284542791402404143405,20793.2,1.6278626704284542791402404143405
229,20977.6287442985797234884877029441444,20976.0,1.6287442985797234884877029441444
230,21161.2296220885553528616260922659610,21159.6,1.6296220885553528616260922659610
231,21345.6304960737211938691614902277600,21344.0,1.6304960737211938691614902277600
232,21530.8313662870109648860814826503815,21529.2,1.6313662870109648860814826503815
233,21716.8322327609336945091597638221721,21715.2,1.6322327609336945091597638221721
234,21903.6330955275810117611122976574939,21902.0,1.6330955275810117611122976574939
235,22091.2339546186342763534605911473375,22089.6,1.6339546186342763534605911473375
236,22279.6348100653715587077443321586312,22278.0,1.6348100653715587077443321586312
237,22468.8356618986744733561056242403162,22467.2,1.6356618986744733561056242403162
238,22658.8365101490348674531659267488836,22657.2,1.6365101490348674531659267488836
