Eigenstate,Energy,Kinetic Energy,Potential Energy
1,0.500000000018591665217363552350016760,0.0,0.500000000018591665217363552350016760
2,1.84623093777247126550386750000448045,1.2,0.64623093777247126550386750000448045
3,3.93633761006145057614333059829385933,3.2,0.73633761006145057614333059829385933
4,6.79966527855673437019804137607449148,6.0,0.79966527855673437019804137607449148
5,10.4480465765718378891814563331485921,9.6,0.8480465765718378891814563331485921
6,14.8870659988604589294903224953117271,14.0,0.8870659988604589294903224953117271
7,20.1197208268603138614490544095400646,19.2,0.9197208268603138614490544095400646
8,26.1477838469481132960095481000786802,25.2,0.9477838469481132960095481000786802
9,32.9723835581300030656089888150925306,32.0,0.9723835581300030656089888150925306
10,40.5942802145544727595963128259828342,39.6,0.9942802145544727595963128259828342
11,49.0140093863625063525801572561052793,48.0,1.0140093863625063525801572561052793
12,58.2319621688586942237942660765181262,57.2,1.0319621688586942237942660765181262
13,68.2484326921088142784473164677496631,67.2,1.0484326921088142784473164677496631
14,79.0636476537959873312150437424440151,78.0,1.0636476537959873312150437424440151
15,90.6777854350348582838164712045450295,89.6,1.0777854350348582838164712045450295
16,103.090988905242038928305856729876004,102.0,1.090988905242038928305856729876004
17,116.303374255597610910487710605920003,115.2,1.103374255597610910487710605920003
18,130.315037250051324360175729324503797,129.2,1.115037250051324360175729324503797
19,145.126057748426575002589360114453952,144.0,1.126057748426575002589360114453952
20,160.736503044054340289293629174962107,159.6,1.136503044054340289293629174962107
21,177.146430369854876381306905651459971,176.0,1.146430369854876381306905651459971
22,194.355888809496458157869555054399575,193.2,1.155888809496458157869555054399575
23,212.364920775331903791180563652644421,211.2,1.164920775331903791180563652644421
24,231.173563165798996853104064414376939,230.0,1.173563165798996853104064414376939
25,250.781848282216412672648524526103008,249.6,1.181848282216412672648524526103008
26,271.189804562591306064686798932233790,270.0,1.189804562591306064686798932233790
27,292.397457174581887151858347394167071,291.2,1.197457174581887151858347394167071
28,314.404828498856461194260007105381392,313.2,1.204828498856461194260007105381392
29,337.211938526295380521251202000782394,336.0,1.211938526295380521251202000782394
30,360.818805186832869091253843985606742,359.6,1.218805186832869091253843985606742
31,385.225444623589741705952300307738320,384.0,1.225444623589741705952300307738320
32,410.431871422870140321011366622898039,409.2,1.231871422870140321011366622898039
33,436.438098808285762091626084970252038,435.2,1.238098808285762091626084970252038
34,463.244138805520507525311864693439089,462.0,1.244138805520507525311864693439089
35,490.850002382909282048843020926692143,489.6,1.250002382909282048843020926692143
36,519.255699571971205417860049800353979,518.0,1.255699571971205417860049800353979
37,548.461239571233398849281359311385700,547.2,1.261239571233398849281359311385700
38,578.466630836051101013621596372493758,577.2,1.266630836051101013621596372493758
39,609.271881156632015374888078603218463,608.0,1.271881156632015374888078603218463
40,640.876997726076970582252513540319188,639.6,1.276997726076970582252513540319188
41,673.281987199932225344031923981631935,672.0,1.281987199932225344031923981631935
42,706.486855748493756613054516355901873,705.2,1.286855748493756613054516355901873
43,740.491609102897383567608758714838702,739.2,1.291609102897383567608758714838702
44,775.296252595860485856702040180237703,774.0,1.296252595860485856702040180237703
45,810.900791197803505009385146733980299,809.6,1.300791197803505009385146733980299
46,847.305229548966281625327890963674818,846.0,1.305229548966281625327890963674818
47,884.509571988040804351518762067047786,883.2,1.309571988040804351518762067047786
48,922.513822577764360285729331198089355,921.2,1.313822577764360285729331198089355
49,961.317985127852413903501118239674779,960.0,1.317985127852413903501118239674779
50,1000.92206321559641889177070909324160,999.6,1.32206321559641889177070909324160
51,1041.32606020440630030978595064363439,1040.0,1.32606020440630030978595064363439
52,1082.52997926053899928367470376276158,1081.2,1.32997926053899928367470376276158
53,1124.53382336822202232248840878758753,1123.2,1.33382336822202232248840878758753
54,1167.33759534335337621209232368964830,1166.0,1.33759534335337621209232368964830
55,1210.94129784593579395076733411751165,1209.6,1.34129784593579395076733411751165
56,1255.34493339138308262026722571156532,1254.0,1.34493339138308262026722571156532
57,1300.54850436081922512095984978548471,1299.2,1.34850436081922512095984978548471
58,1346.55201301047607051339270728992528,1345.2,1.35201301047607051339270728992528
59,1393.35546148028269376135094655844388,1392.0,1.35546148028269376135094655844388
60,1440.95885180172848116377575250311548,1439.6,1.35885180172848116377575250311548
61,1489.36218590507243353540846319063485,1488.0,1.36218590507243353540846319063485
62,1538.56546562596287819091396363555327,1537.2,1.36546562596287819091396363555327
63,1588.56869271152453889821777518859976,1587.2,1.36869271152453889821777518859976
64,1639.37186882596360048687045388812400,1638.0,1.37186882596360048687045388812400
65,1690.97499555573586995728113155549741,1689.6,1.37499555573586995728113155549741
66,1743.37807441431828859760892967851929,1742.0,1.37807441431828859760892967851929
67,1796.58110684661978732377595145633918,1795.2,1.38110684661978732377595145633918
68,1850.58409423306372129725772963804935,1849.2,1.38409423306372129725772963804935
69,1905.38703789337080720458079744668684,1904.0,1.38703789337080720458079744668684
70,1960.98993909006855831419362025987856,1959.6,1.38993909006855831419362025987856
71,2017.39279903175061372264635079678042,2016.0,1.39279903175061372264635079678042
72,2074.59561887610705995963555054019299,2073.2,1.39561887610705995963555054019299
73,2132.59839973274479011506676850356448,2131.2,1.39839973274479011506676850356448
74,2191.40114266581512680273545563781352,2190.0,1.40114266581512680273545563781352
75,2251.00384869646430417412390551251746,2249.6,1.40384869646430417412390551251746
76,2311.40651880512095463905687539494099,2310.0,1.40651880512095463905687539494099
77,2372.60915393363344355154063147439992,2371.2,1.40915393363344355154063147439992
78,2434.61175498726872932093009606122961,2433.2,1.41175498726872932093009606122961
79,2497.41432283658337958857668723388848,2496.0,1.41432283658337958857668723388848
80,2561.01685831917643598446509008500647,2559.6,1.41685831917643598446509008500647
81,2625.41936224133297063687067334582863,2624.0,1.41936224133297063687067334582863
82,2690.62183537956641615751585428635232,2689.2,1.42183537956641615751585428635232
83,2756.62427848206706209091408930750271,2755.2,1.42427848206706209091408930750271
84,2823.42669227006348652487410732981723,2822.0,1.42669227006348652487410732981723
85,2891.02907743910313228296335472203647,2889.6,1.42907743910313228296335472203647
86,2959.43143466025772125434035451249825,2958.0,1.43143466025772125434035451249825
87,3028.63376458125874294556581741126580,3027.2,1.43376458125874294556581741126580
88,3098.63606782756782996126668865215325,3097.2,1.43606782756782996126668865215325
89,3169.43834500338644961836584200961021,3168.0,1.43834500338644961836584200961021
90,3241.04059669260899768186084735302571,3239.6,1.44059669260899768186084735302571
91,3313.44282345972305875808459371175103,3312.0,1.44282345972305875808459371175103
92,3386.64502585066030958384139983598040,3385.2,1.44502585066030958384139983598040
93,3460.64720439360127919475665620822507,3459.2,1.44720439360127919475665620822507
94,3535.44935959973693702743992394962488,3534.0,1.44935959973693702743992394962488
95,3611.05149196398985885603241439473685,3609.6,1.45149196398985885603241439473685
96,3687.45360196569751864159337576740113,3686.0,1.45360196569751864159337576740113
97,3764.65569006926007003067027746623627,3763.2,1.45569006926007003067027746623627
98,3842.65775672475480836510300778250878,3841.2,1.45775672475480836510300778250878
99,3921.45980236851935059292316029777930,3920.0,1.45980236851935059292316029777930
100,4001.06182742370542412979343222399427,3999.6,1.46182742370542412979343222399427
101,4081.46383230080502641627766169382320,4080.0,1.46383230080502641627766169382320
102,4162.66581739815059134151097836522198,4161.2,1.46581739815059134151097836522198
103,4244.66778310239069079022663808578955,4243.2,1.46778310239069079022663808578955
104,4327.46972978894269230538571941636606,4326.0,1.46972978894269230538571941636606
105,4411.07165782242370078489895262517224,4409.6,1.47165782242370078489895262517224
106,4495.47356755706102136668624494227803,4494.0,1.47356755706102136668624494227803
107,4580.67545933708330257436405117181399,4579.2,1.47545933708330257436405117181399
108,4666.67733349709343955629634333417815,4665.2,1.47733349709343955629634333417815
109,4753.47919036242424865721079689500428,4752.0,1.47919036242424865721079689500428
110,4841.08103024947786214145671963798280,4839.6,1.48103024947786214145671963798280
111,4929.48285346604972602578275799486442,4928.0,1.48285346604972602578275799486442
112,5018.68466031163803454587891235906756,5017.2,1.48466031163803454587891235906756
113,5108.68645107773937924513334236957915,5107.2,1.48645107773937924513334236957915
114,5199.48822604813134191629809112379405,5198.0,1.48822604813134191629809112379405
115,5291.08998549914272017825528099170910,5289.6,1.48998549914272017825528099170910
116,5383.49172969991202613842712988975081,5382.0,1.49172969991202613842712988975081
117,5476.69345891263486687836635078882810,5475.2,1.49345891263486687836635078882810
118,5570.69517339280077446895794516744707,5569.2,1.49517339280077446895794516744707
119,5665.49687338942001950794709210570480,5664.0,1.49687338942001950794709210570480
120,5761.09855914524091633027286008230377,5759.6,1.49855914524091633027286008230377
121,5857.50023089695808977444324056682764,5856.0,1.50023089695808977444324056682764
122,5954.70188887541215447505420138796127,5953.2,1.50188887541215447505420138796127
123,6052.70353330578122545862349485010941,6051.2,1.50353330578122545862349485010941
124,6151.50516440776466114010124610833390,6150.0,1.50516440776466114010124610833390
125,6251.10678239575941025115628589817803,6249.6,1.50678239575941025115628589817803
126,6351.50838747902931903403959625033141,6350.0,1.50838747902931903403959625033141
127,6452.70997986186773445693987398842744,6451.2,1.50997986186773445693987398842744
128,6554.71155974375371661955629901819076,6553.2,1.51155974375371661955629901819076
129,6657.51312731950216144437549832223340,6656.0,1.51312731950216144437549832223340
130,6761.11468277940811636727243875142226,6759.6,1.51468277940811636727243875142226
131,6865.51622630938555633693689761208799,6864.0,1.51622630938555633693689761208799
132,6970.71775809110087245542634561967492,6969.2,1.51775809110087245542634561967492
133,7076.71927830210131381056217275101297,7075.2,1.51927830210131381056217275101297
134,7183.52078711593861177492725911324664,7182.0,1.52078711593861177492725911324664
135,7291.12228470228799793788045892840536,7289.6,1.52228470228799793788045892840536
136,7399.52377122706282314947319510206754,7398.0,1.52377122706282314947319510206754
137,7508.72524685252497184720974363469827,7507.2,1.52524685252497184720974363469827
138,7618.72671173739125222460222380264840,7617.2,1.52671173739125222460222380264840
139,7729.52816603693594069456567570049581,7728.0,1.52816603693594069456567570049581
140,7841.12960990308964365473033917404318,7839.6,1.52960990308964365473033917404318
141,7953.53104348453463500425831187671358,7952.0,1.53104348453463500425831187671358
142,8066.73246692679681978848462733537642,8065.2,1.53246692679681978848462733537642
143,8180.73388037233446569753360447350303,8179.2,1.53388037233446569753360447350303
144,8295.53528396062383696542419464393529,8294.0,1.53528396062383696542419464393529
145,8411.13667782824186102841911485205237,8409.6,1.53667782824186102841911485205237
146,8527.53806210894595043262150407788414,8526.0,1.53806210894595043262150407788414
147,8644.73943693375109427785688833233276,8643.2,1.53943693375109427785688833233276
148,8762.74080243100433452684491976585376,8761.2,1.54080243100433452684491976585376
149,8881.54215872645672898059102473515395,8880.0,1.54215872645672898059102473515395
150,9001.14350594333290456085097128360043,8999.6,1.54350594333290456085097128360043
151,9121.54484420239829681389744997882399,9120.0,1.54484420239829681389744997882399
152,9242.74617362202416593473335200858879,9241.2,1.54617362202416593473335200858879
153,9364.74749431825047826141951770645108,9363.2,1.54749431825047826141951770645108
154,9487.54880640484673713873286811655380,9486.0,1.54880640484673713873286811655380
155,9611.15010999337084138712101073449505,9609.6,1.55010999337084138712101073449505
156,9735.55140519322604924328938311472515,9734.0,1.55140519322604924328938311472515
157,9860.75269211171611881899691150372578,9859.2,1.55269211171611881899691150372578
158,9986.75397085409869689613371046580496,9985.2,1.55397085409869689613371046580496
159,10113.5552415236370197308863480165388,10112.0,1.5552415236370197308863480165388
160,10241.1565042216499922045004909801469,10239.6,1.5565042216499922045004909801469
161,10369.5577590475607038167319877779098,10368.0,1.5577590475607038167319877779098
162,10498.7590060989434409830578341179586,10497.2,1.5590060989434409830578341179586
163,10628.7602454715692504889164419500820,10627.2,1.5602454715692504889164419500820
164,10759.5614772594501087375422708978509,10758.0,1.5614772594501087375422708978509
165,10891.1627015548817453915825019204118,10889.6,1.5627015548817453915825019204118
166,11023.5639184484851719240545851087971,11022.0,1.5639184484851719240545851087971
167,11156.7651280292469623109341617257263,11155.2,1.5651280292469623109341617257263
168,11290.7663303845583285542568837886415,11289.2,1.5663303845583285542568837886415
169,11425.5675256002530360977948136747747,11424.0,1.5675256002530360977948136747747
170,11561.1687137606441988783930865663713,11559.6,1.5687137606441988783930865663713
171,11697.5698949485599942073976734688697,11696.0,1.5698949485599942073976734688697
172,11834.7710692453783353488021349256928,11833.2,1.5710692453783353488021349256928
173,11972.7722367310605371964141454742887,11971.2,1.5722367310605371964141454742887
174,12111.5733974841840108935256975351871,12110.0,1.5733974841840108935256975351871
175,12251.1745515819740213799900114364492,12249.6,1.5745515819740213799900114364492
176,12391.5756991003345375730278310522313,12390.0,1.5756991003345375730278310522313
177,12532.7768401138782084422705384425736,12531.2,1.5768401138782084422705384425736
178,12674.7779746959554941334061478006914,12673.2,1.5779746959554941334061478006914
179,12817.5791029186829785853438466514706,12816.0,1.5791029186829785853438466514706
180,12961.1802248529708945872658440868668,12959.6,1.5802248529708945872658440868668
181,13105.5813405685498839241224778536043,13104.0,1.5813405685498839241224778536043
182,13250.7824501339970203059257084006686,13249.2,1.5824501339970203059257084006686
183,13396.7835536167611181300846887183214,13395.2,1.5835536167611181300846887183214
184,13543.5846510831873513182890741734454,13542.0,1.5846510831873513182890741734454
185,13691.1857425985412040360329918161922,13689.6,1.5857425985412040360329918161922
186,13839.5868282270317742633685412481755,13838.0,1.5868282270317742633685412481755
187,13988.7879080318344540173555641760902,13987.2,1.5879080318344540173555641760902
188,14138.7889820751130016624914386945825,14137.2,1.5889820751130016624914386945825
189,14289.5900504180410300401776621674370,14288.0,1.5900504180410300401776621674370
190,14441.1911131208229260682669950424841,14439.6,1.5911131208229260682669950424841
191,14593.5921702427142210332085727941286,14592.0,1.5921702427142210332085727941286
192,14746.7932218420414279569589621935890,14745.2,1.5932218420414279569589621935890
193,14900.7942679762213643424714448409651,14899.2,1.5942679762213643424714448409651
194,15055.5953087017799736385099036063382,15054.0,1.5953087017799736385099036063382
195,15211.1963440743706633561091698485261,15209.6,1.5963440743706633561091698485261
196,15367.5973741487921735285443813255517,15366.0,1.5973741487921735285443813255517
197,15524.7983989790059898900924066320806,15523.2,1.5983989790059898900924066320806
198,15682.7994186181533159355263366244682,15681.2,1.5994186181533159355263366244682
199,15841.6004331185716166941582840485053,15840.0,1.6004331185716166941582840485053
200,16001.2014425318107481585913952381953,15999.6,1.6014425318107481585913952381953
201,16161.6024469086486833445595890053788,16160.0,1.6024469086486833445595890053788
202,16322.8034462991068483579662062312199,16321.2,1.6034462991068483579662062312199
203,16484.8044407524650791238033873290260,16483.2,1.6044407524650791238033873290260
204,16647.6054303172762103918135078110069,16646.0,1.6054303172762103918135078110069
205,16811.2064150413803069842044630991501,16809.6,1.6064150413803069842044630991501
206,16975.6073949719185503041155526872516,16974.0,1.6073949719185503041155526872516
207,17140.8083701553467859754592235466387,17139.2,1.6083701553467859754592235466387
208,17306.8093406374487468355431006547841,17305.2,1.6093406374487468355431006547841
209,17473.6103064633489570232996793650131,17472.0,1.6103064633489570232996793650131
210,17641.2112676775253286587225091256885,17639.6,1.6112676775253286587225091256885
211,17809.6122243238214584724650343997783,17808.0,1.6122243238214584724650343997783
212,17978.8131764454586346127240034232245,17977.2,1.6131764454586346127240034232245
213,18148.8141240850475580072951217680656,18147.2,1.6141240850475580072951217680656
214,18319.6150672845997932564842744676602,18318.0,1.6150672845997932564842744676602
215,18491.2160060855389482630987640894763,18489.6,1.6160060855389482630987640894763
216,18663.6169405287115965539688336719760,18662.0,1.6169405287115965539688336719760
217,18836.8178706543979462520346398269283,18835.2,1.6178706543979462520346398269283
218,19010.8187965023222646714413429764663,19009.2,1.6187965023222646714413429764663
219,19185.6197181116630618085709262755047,19184.0,1.6197181116630618085709262755047
220,19361.2206355210630452371310737899086,19359.6,1.6206355210630452371310737899086
221,19537.6215487686388443095833879732216,19536.0,1.6215487686388443095833879732216
222,19714.8224578919905208622688201734263,19713.2,1.6224578919905208622688201734263
223,19892.8233629282108599850536441352485,19891.2,1.6233629282108599850536441352485
224,20071.6242639138944559147863653527837,20070.0,1.6242639138944559147863653527837
225,20251.2251608851465956091000902007385,20249.6,1.6251608851465956091000902007385
226,20431.6260538775919435384931118826512,20430.0,1.6260538775919435384931118826512
227,20612.8269429263830363395260542708971,20611.2,1.6269429263830363395260542708971
228,20794.8278280662085891393266518988074,20793.2,1.6278280662085891393266518988074
229,20977.6287093313016207035372596673588,20976.0,1.6287093313016207035372596673588
230,21161.2295867554474020939331612611653,21159.6,1.6295867554474020939331612611653
231,21345.6304603719912306249658053519137,21344.0,1.6304603719912306249658053519137
232,21530.8313302138460395281353473094937,21529.2,1.6313302138460395281353473094937
233,21716.8321963134998383096802556818443,21715.2,1.6321963134998383096802556818443
234,21903.6330587030229999476332414015991,21902.0,1.6330587030229999476332414015991
235,22091.2339174140753880993265943808615,22089.6,1.6339174140753880993265943808615
236,22279.6347724779133340180981135312621,22278.0,1.6347724779133340180981135312621
237,22468.8356239253964667993073259421550,22467.2,1.6356239253964667993073259421550
238,22658.8364717869943986866553153268470,22657.2,1.6364717869943986866553153268470
