Eigenstate,Energy,Kinetic Energy,Potential Energy
1,0.500000000027449911417942396656264462,0.0,0.500000000027449911417942396656264462
2,1.84623093783029325595897975397067564,1.2,0.64623093783029325595897975397067564
3,3.93633761023129789626855029038315911,3.2,0.73633761023129789626855029038315911
4,6.79966527891050662696650679218524803,6.0,0.79966527891050662696650679218524803
5,10.4480465771846431326664732080653288,9.6,0.8480465771846431326664732080653288
6,14.8870659998087192451309083272904805,14.0,0.8870659998087192451309083272904805
7,20.1197208282210671686753683262372274,19.2,0.9197208282210671686753683262372274
8,26.1477838487987219840203740411478249,25.2,0.9477838487987219840203740411478249
9,32.9723835605480183384251823059063076,32.0,0.9723835605480183384251823059063076
10,40.5942802176175656282725749120038426,39.6,0.9942802176175656282725749120038426
11,49.0140093901484300017610735620390599,48.0,1.0140093901484300017610735620390599
12,58.2319621734452623660700051690128732,57.2,1.0319621734452623660700051690128732
13,68.2484326975738882124394980575129029,67.2,1.0484326975738882124394980575129029
14,79.0636476602174680085867443783265732,78.0,1.0636476602174680085867443783265732
15,90.6777854424906813979871872626252418,89.6,1.0777854424906813979871872626252418
16,103.090988913810171901171546801395311,102.0,1.090988913810171901171546801395311
17,116.303374265356051113691297222235572,115.2,1.103374265356051113691297222235572
18,130.315037261078098164223639071126453,129.2,1.115037261078098164223639071126453
19,145.126057760799737396163344553246964,144.0,1.126057760799737396163344553246964
20,160.736503057851974900728846133033035,159.6,1.136503057851974900728846133033035
21,177.146430385155095789796134778166108,176.0,1.146430385155095789796134778166108
22,194.355888826377404417402267740601682,193.2,1.155888826377404417402267740601682
23,212.364920793871749113400036410331005,211.2,1.164920793871749113400036410331005
24,231.173563186075944410758977163192154,230.0,1.173563186075944410758977163192154
25,250.781848304308697495885617118485344,249.6,1.181848304308697495885617118485344
26,271.189804586577196009776656368120333,270.0,1.189804586577196009776656368120333
27,292.397457200539683927137594096143765,291.2,1.197457200539683927137594096143765
28,314.404828526864501431798883038442854,313.2,1.204828526864501431798883038442854
29,337.211938556432036885467536118645713,336.0,1.211938556432036885467536118645713
30,360.818805219176551417694555710726228,359.6,1.218805219176551417694555710726228
31,385.225444658218898164956561663424244,384.0,1.225444658218898164956561663424244
32,410.431871459863258602096549804550670,409.2,1.231871459863258602096549804550670
33,436.438098847721370605297242338785045,435.2,1.238098847721370605297242338785045
34,463.244138847477176619657548547575589,462.0,1.244138847477176619657548547575589
35,490.850002427465625238794796914448429,489.6,1.250002427465625238794796914448429
36,519.255699619205880625396351278687362,518.0,1.255699619205880625396351278687362
37,548.461239621225109653174966860317433,547.2,1.261239621225109653174966860317433
38,578.466630888878597907583638213396208,577.2,1.266630888878597907583638213396208
39,609.271881212374097033164741173783972,608.0,1.271881212374097033164741173783972
40,640.876997784812485131894703277235267,639.6,1.276997784812485131894703277235267
41,673.281987261740071643191309336934793,672.0,1.281987261740071643191309336934793
42,706.486855813452885534768186783087393,705.2,1.286855813452885534768186783087393
43,740.491609171086799288624103846169574,739.2,1.291609171086799288624103846169574
44,775.296252667359247150967248681055143,774.0,1.296252667359247150967248681055143
45,810.900791272690726545891978835628240,809.6,1.300791272690726545891978835628240
46,847.305229627321135270044473136183304,846.0,1.305229627321135270044473136183304
47,884.509572069942520473192943117497562,883.2,1.309572069942520473192943117497562
48,922.513822663292229065379177988305304,921.2,1.313822663292229065379177988305304
49,961.317985217085786647439563452605258,960.0,1.317985217085786647439563452605258
50,1000.92206330861470934803719133822155,999.6,1.32206330861470934803719133822155
51,1041.32606030128898598787991060611648,1040.0,1.32606030128898598787991060611648
52,1082.52997936136562277750460528143953,1081.2,1.32997936136562277750460528143953
53,1124.53382347307219263646609777104813,1123.2,1.33382347307219263646609777104813
54,1167.33759545230677009031645691438869,1166.0,1.33759545230677009031645691438869
55,1210.94129795907215720925161095014087,1209.6,1.34129795907215720925161095014087
56,1255.34493350878223148217958702595087,1254.0,1.34493350878223148217958702595087
57,1300.54850448256104755484784056329629,1299.2,1.34850448256104755484784056329629
58,1346.55201313664052757437814506888585,1345.2,1.35201313664052757437814506888585
59,1393.35546161094982093528390633899771,1392.0,1.35546161094982093528390633899771
60,1440.95885193697838971434398002902697,1439.6,1.35885193697838971434398002902697
61,1489.36218604498531185420365555914046,1488.0,1.36218604498531185420365555914046
62,1538.56546577061899315046108164466340,1537.2,1.36546577061899315046108164466340
63,1588.56869286100423720797773015322781,1587.2,1.36869286100423720797773015322781
64,1639.37186898034731005223019193986226,1638.0,1.37186898034731005223019193986226
65,1690.97499571510410124154848748076793,1689.6,1.37499571510410124154848748076793
66,1743.37807457875163598703252539798400,1742.0,1.37807457875163598703252539798400
67,1796.58110701619893049561307774067661,1795.2,1.38110701619893049561307774067661
68,1850.58409440786942659091550792493507,1849.2,1.38409440786942659091550792493507
69,1905.38703807348392899585808336347729,1904.0,1.38703807348392899585808336347729
70,1960.98993927557004039265296347003526,1959.6,1.38993927557004039265296347003526
71,2017.39279922272149067214718069572467,2016.0,1.39279922272149067214718069572467
72,2074.59561907262845854206123544507445,2073.2,1.39561907262845854206123544507445
73,2132.59839993489793065727971371766236,2131.2,1.39839993489793065727971371766236
74,2191.40114287368132458679569326722386,2190.0,1.40114287368132458679569326722386
75,2251.00384891012497083080785669095291,2249.6,1.40384891012497083080785669095291
76,2311.40651902465759954471404910213570,2310.0,1.40651902465759954471404910213570
77,2372.60915415912767522832707957138350,2371.2,1.40915415912767522832707957138350
78,2434.61175521880225684045837927841391,2433.2,1.41175521880225684045837927841391
79,2497.41432307423801397902299819806987,2496.0,1.41432307423801397902299819806987
80,2561.01685856303409164117496682531564,2559.6,1.41685856303409164117496682531564
81,2625.41936249147566673650554929929295,2624.0,1.41936249147566673650554929929295
82,2690.62183563607627807578336964995159,2689.2,1.42183563607627807578336964995159
83,2756.62427874502632282392578205673678,2755.2,1.42427874502632282392578205673678
84,2823.42669253955448811417472704653872,2822.0,1.42669253955448811417472704653872
85,2891.02907771520832724427666364688248,2889.6,1.42907771520832724427666364688248
86,2959.43143494305967401007680709856916,2958.0,1.43143494305967401007680709856916
87,3028.63376487084013126113810939802346,3027.2,1.43376487084013126113810939802346
88,3098.63606812401144638525964890746677,3097.2,1.43606812401144638525964890746677
89,3169.43834530677520292660763803771451,3168.0,1.43834530677520292660763803771451
90,3241.04059700302591432544296493347631,3239.6,1.44059700302591432544296493347631
91,3313.44282377725128431537851077613662,3312.0,1.44282377725128431537851077613662
92,3386.64502617538311021656030693619342,3385.2,1.44502617538311021656030693619342
93,3460.64720472560204310811101790812320,3459.2,1.44720472560204310811101790812320
94,3535.44935993909917593443608129713023,3534.0,1.44935993909917593443608129713023
95,3611.05149231079720944596386380074520,3609.6,1.45149231079720944596386380074520
96,3687.45360232003374405277470839020166,3686.0,1.45360232003374405277470839020166
97,3764.65569043120906132746421248965225,3763.2,1.45569043120906132746421248965225
98,3842.65775709440058601929126956710319,3841.2,1.45775709440058601929126956710319
99,3921.45980274594606596947238843730815,3920.0,1.45980274594606596947238843730815
100,4001.06182780899736097706763259211388,3999.6,1.46182780899736097706763259211388
101,4081.46383269404660236074909734748275,4080.0,1.46383269404660236074909734748275
102,4162.66581779942635938702175852838852,4161.2,1.46581779942635938702175852838852
103,4244.66778351178534082185358420454934,4243.2,1.46778351178534082185358420454934
104,4327.46973020654105259796151477059284,4326.0,1.46973020654105259796151477059284
105,4411.07165824831073951624285692633229,4409.6,1.47165824831073951624285692633229
106,4495.47356799132184813559803751906752,4494.0,1.47356799132184813559803751906752
107,4580.67545977980316992343522369089113,4579.2,1.47545977980316992343522369089113
108,4666.67733394835774449959287797991465,4665.2,1.47733394835774449959287797991465
109,4753.47919082231853421288225034649966,4752.0,1.47919082231853421288225034649966
110,4841.08103071808781886932664311206885,4839.6,1.48103071808781886932664311206885
111,4929.48285394346119356997584598757950,4928.0,1.48285394346119356997584598757950
112,5018.68466079793700318254062347561864,5017.2,1.48466079793700318254062347561864
113,5108.68645157301199143529805423523828,5107.2,1.48645157301199143529805423523828
114,5199.48822655246389386396223152608679,5198.0,1.48822655246389386396223152608679
115,5291.08998601262166339371220175207841,5289.6,1.48998601262166339371220175207841
116,5383.49173022262396900692085533461768,5382.0,1.49173022262396900692085533461768
117,5476.69345944466657623412165128771874,5475.2,1.49345944466657623412165128771874
118,5570.69517393423917717464458569193558,5569.2,1.49517393423917717464458569193558
119,5665.49687394035220403963641238522134,5664.0,1.49687394035220403963641238522134
120,5761.09855970575413436794521940006446,5759.6,1.49855970575413436794521940006446
121,5857.50023146713975779810523271642368,5856.0,1.50023146713975779810523271642368
122,5954.70188945534985536652487853487034,5953.2,1.50188945534985536652487853487034
123,6052.70353389556271010904920589022432,6051.2,1.50353389556271010904920589022432
124,6151.50516500747785006325906244193276,6150.0,1.50516500747785006325906244193276
125,6251.10678300549239520260637657267714,6249.6,1.50678300549239520260637657267714
126,6351.50838809887036463618725324948963,6350.0,1.50838809887036463618725324948963
127,6452.70998049190527983006826009947801,6451.2,1.50998049190527983006826009947801
128,6554.71156038407637701889140659147397,6553.2,1.51156038407637701889140659147397
129,6657.51312797019872990324513942977251,6656.0,1.51312797019872990324513942977251
130,6761.11468344056756534642149352368342,6759.6,1.51468344056756534642149352368342
131,6865.51622698109703938006141851551973,6864.0,1.51622698109703938006141851551973
132,6970.71775877345372585098956440105280,6969.2,1.51775877345372585098956440105280
133,7076.71927899518505825995571377344527,7075.2,1.51927899518505825995571377344527
134,7183.52078781984295406704142335896488,7182.0,1.52078781984295406704142335896488
135,7291.12228541710283263014773627519713,7289.6,1.52228541710283263014773627519713
136,7399.52377195287823425544956543373261,7398.0,1.52377195287823425544956543373261
137,7508.72524758943123453075880314637384,7507.2,1.52524758943123453075880314637384
138,7618.72671248547883450074752666210481,7617.2,1.52671248547883450074752666210481
139,7729.52816679629550513707711701983363,7728.0,1.52816679629550513707711701983363
140,7841.12961067381204911051081804565954,7839.6,1.52961067381204911051081804565954
141,7953.53104426671093831459730696493311,7952.0,1.53104426671093831459730696493311
142,8066.73246772051827751724585413711186,8065.2,1.53246772051827751724585413711186
143,8180.73388117769253586634415953405162,8179.2,1.53388117769253586634415953405162
144,8295.53528477771018079593328549857888,8294.0,1.53528477771018079593328549857888
145,8411.13667865714834469169465211816484,8409.6,1.53667865714834469169465211816484
146,8527.53806294976464680575346978458745,8526.0,1.53806294976464680575346978458745
147,8644.73943778657428470783676107989802,8643.2,1.53943778657428470783676107989802
148,8762.74080329592451060179086882568139,8761.2,1.54080329592451060179086882568139
149,8881.54215960356659430838911442271193,8880.0,1.54215960356659430838911442271193
150,9001.14350683272537655528299659736229,8999.6,1.54350683272537655528299659736229
151,9121.54484510416650848832661939016072,9120.0,1.54484510416650848832661939016072
152,9242.74617453626146770341933995626929,9241.2,1.54617453626146770341933995626929
153,9364.74749524505043974853501027583736,9363.2,1.54749524505043974853501027583736
154,9487.54880734430314899515415017324407,9486.0,1.54880734430314899515415017324407
155,9611.15011094557771711506564997759844,9609.6,1.55011094557771711506564997759844
156,9735.55140615827762702887458815276858,9734.0,1.55140615827762702887458815276858
157,9860.75269308970686337279256713170881,9859.2,1.55269308970686337279256713170881
158,9986.75397184512330130178462990509780,9985.2,1.55397184512330130178462990509780
159,10113.5552425277904073018788295823389,10112.0,1.5552425277904073018788295823389
160,10241.1565052390273183491487028115527,10239.6,1.5565052390273183491487028115527
161,10369.5577600782573579114602910797846,10368.0,1.5577600782573579114602910797846
162,10498.7590071430550482540556655617771,10497.2,1.5590071430550482540556655617771
163,10628.7602465291916739022428136516248,10627.2,1.5602465291916739022428136516248
164,10759.5614783306794508977576160921268,10758.0,1.5614783306794508977576160921268
165,10891.1627026398143504489861058815788,10889.6,1.5627026398143504489861058815788
166,11023.5639195472176274906062734196794,11022.0,1.5639195472176274906062734196794
167,11156.7651291418761013849395862357494,11155.2,1.5651291418761013849395862357494
168,11290.7663315111812314538963065790672,11289.2,1.5663315111812314538963065790672
169,11425.5675267409670324035757074618648,11424.0,1.5675267409670324035757074618648
170,11561.1687149155468693846076922556680,11559.6,1.5687149155468693846076922556680
171,11697.5698961177491728826669441786578,11696.0,1.5698961177491728826669441786578
172,11834.7710704289521113057882955534399,11833.2,1.5710704289521113057882955534399
173,11972.7722379291172566707845440610513,11971.2,1.5722379291172566707845440610513
174,12111.5733986968222792322513299283418,12110.0,1.5733986968222792322513299283418
175,12251.1745528092927050390625964489489,12249.6,1.5745528092927050390625964489489
176,12391.5757003424327661246800015962323,12390.0,1.5757003424327661246800015962323
177,12532.7768413708553765917842643698469,12531.2,1.5768413708553765917842643698469
178,12674.7779759679112637455951425780217,12673.2,1.5779759679112637455951425780217
179,12817.5791042057172807207963457646305,12816.0,1.5791042057172807207963457646305
180,12961.1802261551839315484347847915185,12959.6,1.5802261551839315484347847915185
181,13105.5813418860421313113506958163004,13104.0,1.5813418860421313113506958163004
182,13250.7824514668692290834944727756585,13249.2,1.5824514668692290834944727756585
183,13396.7835549651143167023744747127357,13395.2,1.5835549651143167023744747127357
184,13543.5846524471228476161422146470792,13542.0,1.5846524471228476161422146470792
185,13691.1857439781605876134084883906970,13689.6,1.5857439781605876134084883906970
186,13839.5868296224369184043798571412332,13838.0,1.5868296224369184043798571412332
187,13988.7879094431275178537831587252487,13987.2,1.5879094431275178537831587252487
188,14138.7889835023964323018621979291895,14137.2,1.5889835023964323018621979291895
189,14289.5900518614175647045043288181649,14288.0,1.5900518614175647045043288181649
190,14441.1911145803955942435412060879023,14439.6,1.5911145803955942435412060879023
191,14593.5921717185863466297419211696983,14592.0,1.5921717185863466297419211696983
192,14746.7932233343166314806672043396591,14745.2,1.5932233343166314806672043396591
193,14900.7942694850035650771976334886625,14899.2,1.5942694850035650771976334886625
194,15055.5953102271733918394830597244701,15054.0,1.5953102271733918394830597244701
195,15211.1963456164798224546357365779286,15209.6,1.5963456164798224546357365779286
196,15367.5973757077219023480305131339419,15366.0,1.5973757077219023480305131339419
197,15524.7984005548614248734958911136238,15523.2,1.5984005548614248734958911136238
198,15682.7994202110399033843376348203321,15681.2,1.5994202110399033843376348203321
199,15841.6004347285951150190111072296252,15840.0,1.6004347285951150190111072296252
200,16001.2014441590772301416037992293655,15999.6,1.6014441590772301416037992293655
201,16161.6024485532645384135074670157290,16160.0,1.6024485532645384135074670157290
202,16322.8034479611787848723919440392327,16321.2,1.6034479611787848723919440392327
203,16484.8044424321001266731630147947986,16483.2,1.6044424321001266731630147947986
204,16647.6054320145817221057666826928496,16646.0,1.6054320145817221057666826928496
205,16811.2064167564639618551523490440511,16809.6,1.6064167564639618551523490440511
206,16975.6073967048883555220924879494026,16974.0,1.6073967048883555220924879494026
207,17140.8083719063110792754849459922663,17139.2,1.6083719063110792754849459922663
208,17306.8093424065161988575431015334594,17305.2,1.6093424065161988575431015334594
209,17473.6103082506285736847021142640326,17472.0,1.6103082506285736847021142640326
210,17641.2112694831264535398409807887037,17639.6,1.6112694831264535398409807887037
211,17809.6122261478537752147773642206999,17808.0,1.6122261478537752147773642206999
212,17978.8131782880321693301580483930696,17977.2,1.6131782880321693301580483930696
213,18148.8141259462726817106335920202973,18147.2,1.6141259462726817106335920202973
214,18319.6150691645872242910013086894683,18318.0,1.6150691645872242910013086894683
215,18491.2160079843997547595420606310009,18489.6,1.6160079843997547595420606310009
216,18663.6169424465571988930019271056037,18662.0,1.6169424465571988930019271056037
217,18836.8178725913401195422548974929550,18835.2,1.6178725913401195422548974929550
218,19010.8187984584731412410901653954055,19009.2,1.6187984584731412410901653954055
219,19185.6197200871351337110535999568110,19184.0,1.6197200871351337110535999568110
220,19361.2206375159691667704646823720161,19359.6,1.6206375159691667704646823720161
221,19537.6215507830922345498921350634226,19536.0,1.6215507830922345498921350634226
222,19714.8224599261047662114470659599915,19713.2,1.6224599261047662114470659599915
223,19892.8233649820999167327180051049923,19891.2,1.6233649820999167327180051049923
224,20071.6242659876726528146391202277518,20070.0,1.6242659876726528146391202277518
225,20251.2251629789286364698272736305593,20249.6,1.6251629789286364698272736305593
226,20431.6260559914929098293215851599956,20430.0,1.6260559914929098293215851599956
227,20612.8269450605183898105648775871813,20611.2,1.6269450605183898105648775871813
228,20794.8278302206941744568191849387116,20793.2,1.6278302206941744568191849387116
229,20977.6287115062536681001513822280814,20976.0,1.6287115062536681001513822280814
230,21161.2295889509825300342181399877174,21159.6,1.6295889509825300342181399877174
231,21345.6304625882264484861053153540519,21344.0,1.6304625882264484861053153540519
232,21530.8313324508987502961273000710794,21529.2,1.6313324508987502961273000710794
233,21716.8321985714878412910751673236770,21715.2,1.6321985714878412910751673236770
234,21903.6330609820644934969640017284586,21902.0,1.6330609820644934969640017284586
235,22091.2339197142889723623634892665315,22089.6,1.6339197142889723623634892665315
236,22279.6347747994180136910642393253691,22278.0,1.6347747994180136910642393253691
237,22468.8356262683116539041905766162194,22467.2,1.6356262683116539041905766162194
238,22658.8364741514399153627542896055913,22657.2,1.6364741514399153627542896055913
