Eigenstate,Energy,Kinetic Energy,Potential Energy
1,0.500000000018357760780889487716312256,0.0,0.500000000018357760780889487716312256
2,1.84623093777094446083645104383998675,1.2,0.64623093777094446083645104383998675
3,3.93633761005696571791643543611799165,3.2,0.73633761005696571791643543611799165
4,6.79966527854739294339924584636452879,6.0,0.79966527854739294339924584636452879
5,10.4480465765556566722489576645408724,9.6,0.8480465765556566722489576645408724
6,14.8870659988354200212428782427014949,14.0,0.8870659988354200212428782427014949
7,20.1197208268243831218606214278291048,19.2,0.9197208268243831218606214278291048
8,26.1477838468992480443404903967861225,25.2,0.9477838468992480443404903967861225
9,32.9723835580661556669945230123866253,32.0,0.9723835580661556669945230123866253
10,40.5942802144735924518017726795248203,39.6,0.9942802144735924518017726795248203
11,49.0140093862625402443113673361742975,48.0,1.0140093862625402443113673361742975
12,58.2319621687375878708489910262208296,57.2,1.0319621687375878708489910262208296
13,68.2484326919645120300457415098157754,67.2,1.0484326919645120300457415098157754
14,79.0636476536264325440718061842876796,78.0,1.0636476536264325440718061842876796
15,90.6777854348379934564274991113412979,89.6,1.0777854348379934564274991113412979
16,103.090988905015805785121831732851254,102.0,1.090988905015805785121831732851254
17,116.303374255339950453493087647712710,115.2,1.103374255339950453493087647712710
18,130.315037249760176898612699329764416,129.2,1.115037249760176898612699329764416
19,145.126057748099880167630348209335102,144.0,1.126057748099880167630348209335102
20,160.736503043690037038099441759486415,159.6,1.136503043690037038099441759486415
21,177.146430369450902993439804736915925,176.0,1.146430369450902993439804736915925
22,194.355888809050752226094506215806023,193.2,1.155888809050752226094506215806023
23,212.364920774842402208075978653228467,211.2,1.164920774842402208075978653228467
24,231.173563165263635794494259838768576,230.0,1.173563165263635794494259838768576
25,250.781848281633127578591011122626733,249.6,1.181848281633127578591011122626733
26,271.189804561958031618553559529441645,270.0,1.189804561958031618553559529441645
27,292.397457173896557257913187521115027,291.2,1.197457173896557257913187521115027
28,314.404828498117008954035685773596371,313.2,1.204828498117008954035685773596371
29,337.211938525499738208958438567497794,336.0,1.211938525499738208958438567497794
30,360.818805185978968128401486225574178,359.6,1.218805185978968128401486225574178
31,385.225444622675512635318515289269714,384.0,1.225444622675512635318515289269714
32,410.431871421893512780075958852325067,409.2,1.231871421893512780075958852325067
33,436.438098807244664785551349643709144,435.2,1.238098807244664785551349643709144
34,463.244138804412868199541901300187631,462.0,1.244138804412868199541901300187631
35,490.850002381733027461377848827054970,489.6,1.250002381733027461377848827054970
36,519.255699570724261311250216698694424,518.0,1.255699570724261311250216698694424
37,548.461239569913689922380324087440794,547.2,1.261239569913689922380324087440794
38,578.466630834656550893126467534315386,577.2,1.266630834656550893126467534315386
39,609.271881155160546586693928461163058,608.0,1.271881155160546586693928461163058
40,640.876997724526504522641149979723156,639.6,1.276997724526504522641149979723156
41,673.281987198300682250712492989275187,672.0,1.281987198300682250712492989275187
42,706.486855746779055536070431596827354,705.2,1.286855746779055536070431596827354
43,740.491609101097442340123098031002335,739.2,1.291609101097442340123098031002335
44,775.296252593973221065671598991761007,774.0,1.296252593973221065671598991761007
45,810.900791195826831966131725099377097,809.6,1.300791195826831966131725099377097
46,847.305229546898114336014040048648457,846.0,1.305229546898114336014040048648457
47,884.509571985879055487534088055070452,883.2,1.309571985879055487534088055070452
48,922.513822575506941153992504126340644,921.2,1.313822575506941153992504126340644
49,961.317985125497234416681931539024817,960.0,1.317985125497234416681931539024817
50,1000.92206321314138753843585261576557,999.6,1.32206321314138753843585261576557
51,1041.32606020184932412447158103054197,1040.0,1.32606020184932412447158103054197
52,1082.52997925787798381688840099069340,1081.2,1.32997925787798381688840099069340
53,1124.53382336545487161064268180185362,1123.2,1.33382336545487161064268180185362
54,1167.33759534047799274737146018016648,1166.0,1.33759534047799274737146018016648
55,1210.94129784295007865092907798353860,1209.6,1.34129784295007865092907798353860
56,1255.34493338828493479838048762703756,1254.0,1.34493338828493479838048762703756
57,1300.54850435760654245507942098837825,1299.2,1.34850435760654245507942098837825
58,1346.55201300714674901617173659214889,1345.2,1.35201300714674901617173659214889
59,1393.35546147683462774959176379436830,1392.0,1.35546147683462774959176379436830
60,1440.95885179815956322791945680903568,1439.6,1.35885179815956322791945680903568
61,1489.36218590138055450896356159822938,1488.0,1.36218590138055450896356159822938
62,1538.56546562214592711982421375038461,1537.2,1.36546562214592711982421375038461
63,1588.56869270758040301016928743433626,1587.2,1.36869270758040301016928743433626
64,1639.37186882189016516053800212243843,1638.0,1.37186882189016516053800212243843
65,1690.97499555153101869151354248255849,1689.6,1.37499555153101869151354248255849
66,1743.37807440997990298055333952052801,1742.0,1.37807440997990298055333952052801
67,1796.58110684214574700194065694576847,1795.2,1.38110684214574700194065694576847
68,1850.58409422845190394451329250760068,1849.2,1.38409422845190394451329250760068
69,1905.38703788861908849109900988315544,1904.0,1.38703788861908849109900988315544
70,1960.98993908517481187532389016062023,1959.6,1.38993908517481187532389016062023
71,2017.39279902671271112772902191367763,2016.0,1.39279902671271112772902191367763
72,2074.59561887092287068075162632974005,2073.2,1.39561887092287068075162632974005
73,2132.59839972741218149572348033048735,2131.2,1.39839972741218149572348033048735
74,2191.40114266033196402648707982631915,2190.0,1.40114266033196402648707982631915
75,2251.00384869082845023312719961765653,2249.6,1.40384869082845023312719961765653
76,2311.40651879933027030256047740681272,2310.0,1.40651879933027030256047740681272
77,2372.60915392768578733430775155520192,2371.2,1.40915392768578733430775155520192
78,2434.61175498116195745159379213621434,2433.2,1.41175498116195745159379213621434
79,2497.41432283031534597792699784759450,2496.0,1.41432283031534597792699784759450
80,2561.01685831274499219366728626165244,2559.6,1.41685831274499219366728626165244
81,2625.41936223473596584561386579673144,2624.0,1.41936223473596584561386579673144
82,2690.62183537280169713209117406145915,2689.2,1.42183537280169713209117406145915
83,2756.62427847513247315222165006283974,2755.2,1.42427847513247315222165006283974
84,2823.42669226295686951635794000772662,2822.0,1.42669226295686951635794000772662
85,2891.02907743182232653847348985368645,2889.6,1.42907743182232653847348985368645
86,2959.43143465280056356592121369916526,2958.0,1.43143465280056356592121369916526
87,3028.63376457362306753117006983744154,3027.2,1.43376457362306753117006983744154
88,3098.63606781975146843239370926345658,3097.2,1.43606781975146843239370926345658
89,3169.43834499538723094762389957603836,3168.0,1.43834499538723094762389957603836
90,3241.04059668442474817045214333965956,3239.6,1.44059668442474817045214333965956
91,3313.44282345135160200321225858206746,3312.0,1.44282345135160200321225858206746
92,3386.64502584209946644603754752755025,3385.2,1.44502584209946644603754752755025
93,3460.64720438484886776513058253823309,3459.2,1.44720438484886776513058253823309
94,3535.44935959079077259484553410468308,3534.0,1.44935959079077259484553410468308
95,3611.05149195484775387415395205615132,3609.6,1.45149195484775387415395205615132
96,3687.45360195635728269594851701621568,3686.0,1.45360195635728269594851701621568
97,3764.65569005971950980552964531426008,3763.2,1.45569005971950980552964531426008
98,3842.65775671501172761032516202082136,3841.2,1.45775671501172761032516202082136
99,3921.45980235857155009070409789677272,3920.0,1.45980235857155009070409789677272
100,4001.06182741355070166132963468295979,3999.6,1.46182741355070166132963468295979
101,4081.46383229044117672834171938580663,4080.0,1.46383229044117672834171938580663
102,4162.66581738757540611293881007914362,4161.2,1.46581738757540611293881007914362
103,4244.66778309160195859831531766067646,4243.2,1.46778309160195859831531766067646
104,4327.46972977793819859220092417294914,4326.0,1.46972977793819859220092417294914
105,4411.07165781120122782349102598552727,4409.6,1.47165781120122782349102598552727
106,4495.47356754561834822721387082035451,4494.0,1.47356754561834822721387082035451
107,4580.67545932541820509012452695981164,4579.2,1.47545932541820509012452695981164
108,4666.67733348520369028966143619427063,4665.2,1.47733348520369028966143619427063
109,4753.47919035030761686546715210985495,4752.0,1.47919035030761686546715210985495
110,4841.08103023713211374254979702783724,4839.6,1.48103023713211374254979702783724
111,4929.48285345347262356396325169092608,4928.0,1.48285345347262356396325169092608
112,5018.68466029882733715725061804758931,5017.2,1.48466029882733715725061804758931
113,5108.68645106469284262310141798141348,5107.2,1.48645106469284262310141798141348
114,5199.48822603484671827691665381473269,5198.0,1.48822603484671827691665381473269
115,5291.08998548561775822547328369818525,5289.6,1.48998548561775822547328369818525
116,5383.49172968614447102923144808852783,5382.0,1.49172968614447102923144808852783
117,5476.69345889862246018782100088076082,5475.2,1.49345889862246018782100088076082
118,5570.69517337854125415513835931666778,5569.2,1.49517337854125415513835931666778
119,5665.49687337491111987676836502065918,5664.0,1.49687337491111987676836502065918
120,5761.09855913048036800021086888772319,5759.6,1.49855913048036800021086888772319
121,5857.50023088194361964114754192668122,5856.0,1.50023088194361964114754192668122
122,5954.70188886014148567585161259457245,5953.2,1.50188886014148567585161259457245
123,6052.70353329025207733691122742011493,6051.2,1.50353329025207733691122742011493
124,6151.50516439197474920962849020998893,6150.0,1.50516439197474920962849020998893
125,6251.10678237970644616019311897784887,6249.6,1.50678237970644616019311897784887
126,6351.50838746271101052943209105410315,6350.0,1.50838746271101052943209105410315
127,6452.70997984528178534805025674531065,6451.2,1.50997984528178534805025674531065
128,6554.71155972689782674208703171817619,6553.2,1.51155972689782674208703171817619
129,6657.51312730237402662407613087193343,6656.0,1.51312730237402662407613087193343
130,6761.11468276200542838352807312823622,6759.6,1.51468276200542838352807312823622
131,6865.51622629170600288623710572426511,6864.0,1.51622629170600288623710572426511
132,6970.71775807314213711471337692514002,6969.2,1.51775807314213711471337692514002
133,7076.71927828386107600045727441462736,7075.2,1.51927828386107600045727441462736
134,7183.52078709741454672283392751130306,7182.0,1.52078709741454672283392751130306
135,7291.12228468347777664096343794257607,7289.6,1.52228468347777664096343794257607
136,7399.52377120796411233751202493207473,7398.0,1.52377120796411233751202493207473
137,7508.72524683313543394532566021856503,7507.2,1.52524683313543394532566021856503
138,7618.72671171770854531585720796294138,7617.2,1.52671171770854531585720796294138
139,7729.52816601695771848243242625529325,7728.0,1.52816601695771848243242625529325
140,7841.12960988281355542543196273487147,7839.6,1.52960988281355542543196273487147
141,7953.53104346395832558897648704415385,7952.0,1.53104346395832558897648704415385
142,8066.73246690591792952543502152792928,8065.2,1.53246690591792952543502152792928
143,8180.73388035115063039390729271023511,8179.2,1.53388035115063039390729271023511
144,8295.53528393913268785919383899824346,8294.0,1.53528393913268785919383899824346
145,8411.13667780644102475000863995437728,8409.6,1.53667780644102475000863995437728
146,8527.53806208683304896643801549397674,8526.0,1.53806208683304896643801549397674
147,8644.73943691132374492368355270815561,8643.2,1.53943691132374492368355270815561
148,8762.74080240826014986109353534930786,8761.2,1.54080240826014986109353534930786
149,8881.54215870339331681741299809882206,8880.0,1.54215870339331681741299809882206
150,9001.14350591994786791310539647191450,8999.6,1.54350591994786791310539647191450
151,9121.54484417868923385397500948967244,9120.0,1.54484417868923385397500948967244
152,9242.74617359798866995523471019218558,9241.2,1.54617359798866995523471019218558
153,9364.74749429388613763568690727847887,9363.2,1.54749429388613763568690727847887
154,9487.54880638015113528123352987761788,9486.0,1.54880638015113528123352987761788
155,9611.15010996834155671368118041822477,9609.6,1.55010996834155671368118041822477
156,9735.55140516786065513117745148219116,9734.0,1.55140516786065513117745148219116
157,9860.75269208601218356685444141195166,9859.2,1.55269208601218356685444141195166
158,9986.75397082805378368375293577097126,9985.2,1.55397082805378368375293577097126
159,10113.5552414972486865788328093904875,10112.0,1.5552414972486865788328093904875
160,10241.1565041949157919335794175990569,10239.6,1.5565041949157919335794175990569
161,10369.5577590204781840072970476254340,10368.0,1.5577590204781840072970476254340
162,10498.7590060715101439341608804009778,10497.2,1.5590060715101439341608804009778
163,10628.7602454437827131772968480908930,10627.2,1.5602454437827131772968480908930
164,10759.5614772313078627764544373043056,10758.0,1.5614772313078627764544373043056
165,10891.1627015263813169894601371318210,10889.6,1.5627015263813169894601371318210
166,11023.5639184196240818430103391873383,11022.0,1.5639184196240818430103391873383
167,11156.7651280000227258250931656273042,11155.2,1.5651280000227258250931656273042
168,11290.7663303549684554079227642285002,11289.2,1.5663303549684554079227642285002
169,11425.5675255702950304634467376921341,11424.0,1.5675255702950304634467376921341
170,11561.1687137303155593145123688224801,11559.6,1.5687137303155593145123688224801
171,11697.5698949178582136161224771623763,11696.0,1.5698949178582136161224771623763
172,11834.7710692143009009334088055169049,11833.2,1.5710692143009009334088055169049
173,11972.7722366996049304186236612193045,11971.2,1.5722366996049304186236612193045
174,12111.5733974523477074306337817484626,12110.0,1.5733974523477074306337817484626
175,12251.1745515497544910818193592203468,12249.6,1.5745515497544910818193592203468
176,12391.5756990677292444187009773703560,12390.0,1.5756990677292444187009773703560
177,12532.7768400808846104968018011435491,12531.2,1.5768400808846104968018011435491
178,12674.7779746625710435041111510343429,12673.2,1.5779746625710435041111510343429
179,12817.5791028849051213780650436113792,12816.0,1.5791028849051213780650436113792
180,12961.1802248187970708624125202122700,12959.6,1.5802248187970708624125202122700
181,13105.5813405339775276525236382653548,13104.0,1.5813405339775276525236382653548
182,13250.7824500990235593244943072077629,13249.2,1.5824500990235593244943072077629
183,13396.7835535813839740972915876150860,13395.2,1.5835535813839740972915876150860
184,13543.5846510474039396694451557967853,13542.0,1.5846510474039396694451557967853
185,13691.1857425623489339383778092769459,13689.6,1.5857425623489339383778092769459
186,13839.5868281904280485709638944778233,13838.0,1.5868281904280485709638944778233
187,13988.7879079948166692257823760882863,13987.2,1.5879079948166692257823760882863
188,14138.7889820376785478633482975610150,14137.2,1.5889820376785478633482975610150
189,14289.5900503801872908753793831881664,14288.0,1.5900503801872908753793831881664
190,14441.1911130825472786841415217676368,14439.6,1.5911130825472786841415217676368
191,14593.5921702040140360343905838554572,14592.0,1.5921702040140360343905838554572
192,14746.7932218029140693600784665090549,14745.2,1.5932218029140693600784665090549
193,14900.7942679366641895296357036265516,14899.2,1.5942679366641895296357036265516
194,15055.5953086617903333105769420683549,15054.0,1.5953086617903333105769420683549
195,15211.1963440339459014857512058352188,15209.6,1.5963440339459014857512058352188
196,15367.5973741079296273130994030396663,15366.0,1.5973741079296273130994030396663
197,15524.7983989377029897042021953511061,15523.2,1.5983989377029897042021953511061
198,15682.7994185764071852835591408989470,15681.2,1.5994185764071852835591408989470
199,15841.6004330763796721624144449293569,15840.0,1.6004330763796721624144449293569
200,16001.2014424891702993672900889646539,15999.6,1.6014424891702993672900889646539
201,16161.6024468655570328996049233294860,16160.0,1.6024468655570328996049233294860
202,16322.8034462555612918024908813372996,16321.2,1.6034462555612918024908813372996
203,16484.8044407084629048894881108287534,16483.2,1.6044407084629048894881108287534
204,16647.6054302728146997499802997138679,16646.0,1.6054302728146997499802997138679
205,16811.2064149964567339966820793707439,16809.6,1.6064149964567339966820793707439
206,16975.6073949265301817738751336450491,16974.0,1.6073949265301817738751336450491
207,17140.8083701094908813970183044352144,17139.2,1.6083701094908813970183044352144
208,17306.8093405911225583451361367003862,17305.2,1.6093405911225583451361367003862
209,17473.6103064165497293488131739468324,17472.0,1.6103064165497293488131739468324
210,17641.2112676302502990693928456080975,17639.6,1.6112676302502990693928456080975
211,17809.6122242760678567283371147646914,17808.0,1.6122242760678567283371147646914
212,17978.8131763972236829138687485162084,17977.2,1.6131763972236829138687485162084
213,18148.8141240363284709427838868032725,18147.2,1.6141240363284709427838868032725
214,18319.6150672353937777531182441530062,18318.0,1.6150672353937777531182441530062
215,18491.2160060358432035338913490903243,18489.6,1.6160060358432035338913490903243
216,18663.6169404785233140463790676742971,18662.0,1.6169404785233140463790676742971
217,18836.8178706037143095959496080966160,18835.2,1.6178706037143095959496080966160
218,19010.8187964511404496269056143374434,19009.2,1.6187964511404496269056143374434
219,19185.6197180599802362132609567479488,19184.0,1.6197180599802362132609567479488
220,19361.2206354688763689535725465413329,19359.6,1.6206354688763689535725465413329
221,19537.6215487159454691721094548336222,19536.0,1.6215487159454691721094548336222
222,19714.8224578387875906237171235889980,19713.2,1.6224578387875906237171235889980
223,19892.8233628744955102632000932948929,19891.2,1.6233628744955102632000932948929
224,20071.6242638596638141385135227720859,20070.0,1.6242638596638141385135227720859
225,20251.2251608303977809642980702174411,20249.6,1.6251608303977809642980702174411
226,20431.6260538223220669136908491157588,20430.0,1.6260538223220669136908491157588
227,20612.8269428705892002712508112361268,20611.2,1.6269428705892002712508112361268
228,20794.8278280098878877571895883610973,20793.2,1.6278280098878877571895883610973
229,20977.6287092744511396750428930965553,20976.0,1.6287092744511396750428930965553
230,21161.2295866980642185690105124667235,21159.6,1.6295866980642185690105124667235
231,21345.6304603140724131802190404581010,21344.0,1.6304603140724131802190404581010
232,21530.8313301553886481108116613631031,21529.2,1.6313301553886481108116613631031
233,21716.8321962545009241813527675508306,21715.2,1.6321962545009241813527675508306
234,21903.6330586434796056275966546392279,21902.0,1.6330586434796056275966546392279
235,22091.2339173539845473077033153934763,22089.6,1.6339173539845473077033153934763
236,22279.6347724172720716186525497400802,22278.0,1.6347724172720716186525497400802
237,22468.8356238642017987419660583243496,22467.2,1.6356238642017987419660583243496
238,22658.8364717252433319497308000722928,22657.2,1.6364717252433319497308000722928
