Eigenstate,Energy,Kinetic Energy,Potential Energy
1,0.500000000013349876458121809212245278,0.0,0.500000000013349876458121809212245278
2,1.84623093773825564874917922665625700,1.2,0.64623093773825564874917922665625700
3,3.93633760996094518431085681910280181,3.2,0.73633760996094518431085681910280181
4,6.79966527834739374721758148846574800,6.0,0.79966527834739374721758148846574800
5,10.4480465762092184864959933209788860,9.6,0.8480465762092184864959933209788860
6,14.8870659982993402686933118283138490,14.0,0.8870659982993402686933118283138490
7,20.1197208260551118525357089047161499,19.2,0.9197208260551118525357089047161499
8,26.1477838458530528134817489010969574,25.2,0.9477838458530528134817489010969574
9,32.9723835566991983851222381986828075,32.0,0.9723835566991983851222381986828075
10,40.5942802127419685568597517931250170,39.6,0.9942802127419685568597517931250170
11,49.0140093841223001368808010855359186,48.0,1.0140093841223001368808010855359186
12,58.2319621661447493109967171352920569,57.2,1.0319621661447493109967171352920569
13,68.2484326888750676137552285500017475,67.2,1.0484326888750676137552285500017475
14,79.0636476499963543480677617087896482,78.0,1.0636476499963543480677617087896482
15,90.6777854306232359748462501664276668,89.6,1.0777854306232359748462501664276668
16,103.090988900172307793302114160148019,102.0,1.090988900172307793302114160148019
17,116.303374249823636173969374750610281,115.2,1.103374249823636173969374750610281
18,130.315037243526956699243565826916750,129.2,1.115037243526956699243565826916750
19,145.126057741105650937529319449711358,144.0,1.126057741105650937529319449711358
20,160.736503035890682336369644888594366,159.6,1.136503035890682336369644888594366
21,177.146430360802293034287532519518836,176.0,1.146430360802293034287532519518836
22,194.355888799508743743856448081913392,193.2,1.155888799508743743856448081913392
23,212.364920764362838232593629097070898,211.2,1.164920764362838232593629097070898
24,231.173563153802345358510219095992378,230.0,1.173563153802345358510219095992378
25,250.781848269145925372866293404215372,249.6,1.181848269145925372866293404215372
26,271.189804548400717606252418483052744,270.0,1.189804548400717606252418483052744
27,292.397457159224916256867245444355090,291.2,1.197457159224916256867245444355090
28,314.404828482286810193392935400758992,313.2,1.204828482286810193392935400758992
29,337.211938508466734865189515726368386,336.0,1.211938508466734865189515726368386
30,360.818805167698896844504912612497977,359.6,1.218805167698896844504912612497977
31,385.225444603104093026222601826516986,384.0,1.225444603104093026222601826516986
32,410.431871400986446926597964307282209,409.2,1.231871400986446926597964307282209
33,436.438098784957636718788547839371409,435.2,1.238098784957636718788547839371409
34,463.244138780701543377194955109008435,462.0,1.244138780701543377194955109008435
35,490.850002356553052237216026655715293,489.6,1.250002356553052237216026655715293
36,519.255699544031262398700024278006878,518.0,1.255699544031262398700024278006878
37,548.461239541663273853039014754895800,547.2,1.261239541663273853039014754895800
38,578.466630804804303470858550364827364,577.2,1.266630804804303470858550364827364
39,609.271881123662032337853891679500894,608.0,1.271881123662032337853891679500894
40,640.876997691337266142872903620163525,639.6,1.276997691337266142872903620163525
41,673.281987163376240048700770039355934,672.0,1.281987163376240048700770039355934
42,706.486855710074906874557902671955252,705.2,1.286855710074906874557902671955252
43,740.491609062569061074456462571774562,739.2,1.291609062569061074456462571774562
44,775.296252553576056980098229815983805,774.0,1.296252553576056980098229815983805
45,810.900791153516310208033842960470223,809.6,1.300791153516310208033842960470223
46,847.305229502629634848238543110360185,846.0,1.305229502629634848238543110360185
47,884.509571939607992438951999436407793,883.2,1.309571939607992438951999436407793
48,922.513822527188642368401662997228966,921.2,1.313822527188642368401662997228966
49,961.317985075087020800149382188917466,960.0,1.317985075087020800149382188917466
50,1000.92206316059455250516181280271477,999.6,1.32206316059455250516181280271477
51,1041.32606014712113302124446255743449,1040.0,1.32606014712113302124446255743449
52,1082.52997920092367334618975506960597,1081.2,1.32997920092367334618975506960597
53,1124.53382330622964925245185191029917,1123.2,1.33382330622964925245185191029917
54,1167.33759527893703617971189860407430,1166.0,1.33759527893703617971189860407430
55,1210.94129777904853516919152395943253,1209.6,1.34129777904853516919152395943253
56,1255.34493332197792073345235973774399,1254.0,1.34493332197792073345235973774399
57,1300.54850428884914259030469753014499,1299.2,1.34850428884914259030469753014499
58,1346.55201293589401600316115543421530,1345.2,1.35201293589401600316115543421530
59,1393.35546140304158152289932116021269,1392.0,1.35546140304158152289932116021269
60,1440.95885172178119041859778722258403,1439.6,1.35885172178119041859778722258403
61,1489.36218582237180785700780509860935,1488.0,1.36218582237180785700780509860935
62,1538.56546554046172488551134445232696,1537.2,1.36546554046172488551134445232696
63,1588.56869262317562838429757247982145,1587.2,1.36869262317562838429757247982145
64,1639.37186873471966567356920824092768,1638.0,1.37186873471966567356920824092768
65,1690.97499546154960562161867074035641,1689.6,1.37499546154960562161867074035641
66,1743.37807431714235076056106900250554,1742.0,1.37807431714235076056106900250554
67,1796.58110674640679262518621922676064,1795.2,1.38110674640679262518621922676064
68,1850.58409412976624636958421722962082,1849.2,1.38409412976624636958421722962082
69,1905.38703778694138804547300482986259,1904.0,1.38703778694138804547300482986259
70,1960.98993898045968965789310797758640,1959.6,1.38993898045968965789310797758640
71,2017.39279891891474841020399785038263,2016.0,1.39279891891474841020399785038263
72,2074.59561875999660830793735553378190,2073.2,1.39561875999660830793735553378190
73,2132.59839961331211928465931401395761,2131.2,1.39839961331211928465931401395761
74,2191.40114254301256016444144257936181,2190.0,1.40114254301256016444144257936181
75,2251.00384857024412067443748456045660,2249.6,1.40384857024412067443748456045660
76,2311.40651867543538816430792607028471,2310.0,1.40651867543538816430792607028471
77,2372.60915380043468229081657256736182,2371.2,1.40915380043468229081657256736182
78,2434.61175485050891512774331793333724,2433.2,1.41175485050891512774331793333724
79,2497.41432269621460734126521688433194,2496.0,1.41432269621460734126521688433194
80,2561.01685817515075294531369924285556,2559.6,1.41685817515075294531369924285556
81,2625.41936209360237580993923556176930,2624.0,1.41936209360237580993923556176930
82,2690.62183522808285964516138542303200,2689.2,1.42183522808285964516138542303200
83,2756.62427832678244444899258864905680,2755.2,1.42427832678244444899258864905680
84,2823.42669211092965811660799948699141,2822.0,1.42669211092965811660799948699141
85,2891.02907727607189263146002877597506,2889.6,1.42907727607189263146002877597506
86,2959.43143449328081839374704304668532,2958.0,1.43143449328081839374704304668532
87,3028.63376441028787277084578798537936,3027.2,1.43376441028787277084578798537936
88,3098.63606765255463557658149157525555,3097.2,1.43606765255463557658149157525555
89,3169.43834482428252068404812627089237,3168.0,1.43834482428252068404812627089237
90,3241.04059650936586975996205480547104,3239.6,1.44059650936586975996205480547104
91,3313.44282327229221265648162623998557,3312.0,1.44282327229221265648162623998557
92,3386.64502565899317069888617055560640,3385.2,1.44502565899317069888617055560640
93,3460.64720419764921685245225829877101,3459.2,1.44720419764921685245225829877101
94,3535.44935939945126382312696452056031,3534.0,1.44935939945126382312696452056031
95,3611.05149175932182999256890871201068,3609.6,1.45149175932182999256890871201068
96,3687.45360175659833126601143342857611,3686.0,1.45360175659833126601143342857611
97,3764.65568985568086256929264430885593,3763.2,1.45568985568086256929264430885593
98,3842.65775650664665985710241543057957,3841.2,1.45775650664665985710241543057957
99,3921.45980214583328002230724486994476,3920.0,1.45980214583328002230724486994476
100,4001.06182719639238975579788756094873,3999.6,1.46182719639238975579788756094873
101,4081.46383206881592510215013496581105,4080.0,1.46383206881592510215013496581105
102,4162.66581716143625788166808917923647,4161.2,1.46581716143625788166808917923647
103,4244.66778286090189723576639265387194,4243.2,1.46778286090189723576639265387194
104,4327.46972954263014728793742766459391,4326.0,1.46972954263014728793742766459391
105,4411.07165757123804883879267753247323,4409.6,1.47165757123804883879267753247323
106,4495.47356730095284224942367016886041,4494.0,1.47356730095284224942367016886041
107,4580.67545907600311058537253370987448,4579.2,1.47545907600311058537253370987448
108,4666.67733323099168285394782504127026,4665.2,1.47733323099168285394782504127026
109,4753.47919009125130857408709971936036,4752.0,1.47919009125130857408709971936036
110,4841.08102997318405249784267543189090,4839.6,1.48102997318405249784267543189090
111,4929.48285318458529244136847747162990,4928.0,1.48285318458529244136847747162990
112,5018.68466002495315374965241258739741,5017.2,1.48466002495315374965241258739741
113,5108.68645078578415838344463710857821,5107.2,1.48645078578415838344463710857821
114,5199.48822575085581785907573046790484,5198.0,1.48822575085581785907573046790484
115,5291.08998519649685882335622562651685,5289.6,1.48998519649685882335622562651685
116,5383.49172939184572171410074328790499,5382.0,1.49172939184572171410074328790499
117,5476.69345859909794124381317826347483,5475.2,1.49345859909794124381317826347483
118,5570.69517307374297641296384031164574,5569.2,1.49517307374297641296384031164574
119,5665.49687306479102404557316006652112,5664.0,1.49687306479102404557316006652112
120,5761.09855881499032399758155757237308,5759.6,1.49855881499032399758155757237308
121,5857.50023056103542592124088677451420,5856.0,1.50023056103542592124088677451420
122,5954.70188853376686855563004045801671,5953.2,1.50188853376686855563004045801671
123,6052.70353295836269032046533642038847,6051.2,1.50353295836269032046533642038847
124,6151.50516405452217231056762059433449,6150.0,1.50516405452217231056762059433449
125,6251.10678203664218522208492740161189,6249.6,1.50678203664218522208492740161189
126,6351.50838711398649654427197824357145,6350.0,1.50838711398649654427197824357145
127,6452.70997949084837377274139381956630,6451.2,1.50997949084837377274139381956630
128,6554.71155936670679681291161118547563,6553.2,1.51155936670679681291161118547563
129,6657.51312693637658066913839832636639,6656.0,1.51312693637658066913839832636639
130,6761.11468239015269113314957053196933,6759.6,1.51468239015269113314957053196933
131,6865.51622591394902078128446206353175,6864.0,1.51622591394902078128446206353175
132,6970.71775768943187761283886261301844,6969.2,1.51775768943187761283886261301844
133,7076.71927789414842688023227585452858,7075.2,1.51927789414842688023227585452858
134,7183.52078670165031538575534297237904,7182.0,1.52078670165031538575534297237904
135,7291.12228428161268941131290923860793,7289.6,1.52228428161268941131290923860793
136,7399.52377079994881376004784265374607,7398.0,1.52377079994881376004784265374607
137,7508.72524641892048608078702462160146,7507.2,1.52524641892048608078702462160146
138,7618.72671129724442703426045260083123,7617.2,1.52671129724442703426045260083123
139,7729.52816559019482475413870216822354,7728.0,1.52816559019482475413870216822354
140,7841.12960944970219660996574368184750,7839.6,1.52960944970219660996574368184750
141,7953.53104302444872672157419884282639,7952.0,1.53104302444872672157419884282639
142,8066.73246645996022960130294406888578,8065.2,1.53246645996022960130294406888578
143,8180.73387989869488165016778050171913,8179.2,1.53387989869488165016778050171913
144,8295.53528348012885505449880684391195,8294.0,1.53528348012885505449880684391195
145,8411.13667734083898444179915142142548,8409.6,1.53667734083898444179915142142548
146,8527.53806161458258878582866347785742,8526.0,1.53806161458258878582866347785742
147,8644.73943643237456284795025243670079,8643.2,1.53943643237456284795025243670079
148,8762.74080192256185348374321356082689,8761.2,1.54080192256185348374321356082689
149,8881.54215821089542261581351785614771,8880.0,1.54215821089542261581351785614771
150,9001.14350542059980051365399993846294,8999.6,1.54350542059980051365399993846294
151,9121.54484367244032529478340877065375,9120.0,1.54484367244032529478340877065375
152,9242.74617308478815894630881534738482,9241.2,1.54617308478815894630881534738482
153,9364.74749377368316881657907286662054,9363.2,1.54749377368316881657907286662054
154,9487.54880585289475847614514742049251,9486.0,1.54880585289475847614514742049251
155,9611.15010943398072618399320720584585,9609.6,1.55010943398072618399320720584585
156,9735.55140462634422882538642431198217,9734.0,1.55140462634422882538642431198217
157,9860.75269153728892236789136316918389,9859.2,1.55269153728892236789136316918389
158,9986.75397027207235065366231337950547,9985.2,1.55397027207235065366231337950547
159,10113.5552409339576462007889793514990,10112.0,1.5552409339576462007889793514990
160,10241.1565036242636093512172008703416,10239.6,1.5565036242636093512172008703416
161,10369.5577584424132242613336110248463,10368.0,1.5577584424132242613336110248463
162,10498.7590054859806711962855262602812,10497.2,1.5590054859806711962855262602812
163,10628.7602448507368899813054158874047,10627.2,1.5602448507368899813054158874047
164,10759.5614766306937492466047934520284,10758.0,1.5614766306937492466047934520284
165,10891.1627009181468700660250717135440,10889.6,1.5627009181468700660250717135440
166,11023.5639178037171545050041503805651,11022.0,1.5639178037171545050041503805651
167,11156.7651273763910663101479924392883,11155.2,1.5651273763910663101479924392883
168,11290.7663297235597064292906166813838,11289.2,1.5663297235597064292906166813838
169,11425.5675249310567284241030399296404,11424.0,1.5675249310567284241030399296404
170,11561.1687130831951335183366840887506,11559.6,1.5687130831951335183366840887506
171,11697.5698942628029854761319572840348,11696.0,1.5698942628029854761319572840348
172,11834.7710685512580831770197243285445,11833.2,1.5710685512580831770197243285445
173,11972.7722360285216262899163116827074,11971.2,1.5722360285216262899163116827074
174,12111.5733967731709098895957974543729,12110.0,1.5733967731709098895957974543729
175,12251.1745508624310820005424420932137,12249.6,1.5745508624310820005424420932137
176,12391.5756983722059937745058024778976,12390.0,1.5756983722059937745058024778976
177,12532.7768393771081755622657875078995,12531.2,1.5768393771081755622657875078995
178,12674.7779739504879680339735664109548,12673.2,1.5779739504879680339735664109548
179,12817.5791021644618347929838284581587,12816.0,1.5791021644618347929838284581587
180,12961.1802240899398874295469846037685,12959.6,1.5802240899398874295469846037685
181,13105.5813397966526456629171252146460,13104.0,1.5813397966526456629171252146460
182,13250.7824493531770602672306626244074,13249.2,1.5824493531770602672306626244074
183,13396.7835528269618218303991876372984,13395.2,1.5835528269618218303991876372984
184,13543.5846502843519795875220590711463,13542.0,1.5846502843519795875220590711463
185,13691.1857417906128921369114182851295,13689.6,1.5857417906128921369114182851295
186,13839.5868274099535310073184136469200,13838.0,1.5868274099535310073184136469200
187,13988.7879072055491608768271123944642,13987.2,1.5879072055491608768271123944642
188,14138.7889812395634118796997264952024,14137.2,1.5889812395634118796997264952024
189,14289.5900495731697677322297469448836,14288.0,1.5900495731697677322297469448836
190,14441.1911122665724853286465247233981,14439.6,1.5911122665724853286465247233981
191,14593.5921693790269650295885869486409,14592.0,1.5921693790269650295885869486409
192,14746.7932209688595880253134561928199,14745.2,1.5932209688595880253134561928199
193,14900.7942670934870390774560567162031,14899.2,1.5942670934870390774560567162031
194,15055.5953078094351279800819254008966,15054.0,1.5953078094351279800819254008966
195,15211.1963431723571276723568787790737,15209.6,1.5963431723571276723568787790737
196,15367.5973732370516426946955062722837,15366.0,1.5973732370516426946955062722837
197,15524.7983980574800223636713478885115,15523.2,1.5983980574800223636713478885115
198,15682.7994176867833328276295628904107,15681.2,1.5994176867833328276295628904107
199,15841.6004321772989008368171470084166,15840.0,1.6004321772989008368171470084166
200,16001.2014415805764431681913842855664,15999.6,1.6014415805764431681913842855664
201,16161.6024459473937926812848923167045,16160.0,1.6024459473937926812848923167045
202,16322.8034453277722343812381715393229,16321.2,1.6034453277722343812381715393229
203,16484.8044397709914621436813752589002,16483.2,1.6044397709914621436813752589002
204,16647.6054293256041677163262997075086,16646.0,1.6054293256041677163262997075086
205,16811.2064140394502719625803299435346,16809.6,1.6064140394502719625803299435346
206,16975.6073939596708113658787352149741,16974.0,1.6073939596708113658787352149741
207,17140.8083691327214856653604809206377,17139.2,1.6083691327214856653604809206377
208,17306.8093396043858808442916967959166,17305.2,1.6093396043858808442916967959166
209,17473.6103054197883732140640014362810,17472.0,1.6103054197883732140640014362810
210,17641.2112666234067260893662757800184,17639.6,1.6112666234067260893662757800184
211,17809.6122232590843864134858793689717,17808.0,1.6122232590843864134858793689717
212,17978.8131753700424915608609431507958,17977.2,1.6131753700424915608609431507958
213,18148.8141229988915906947711960302779,18147.2,1.6141229988915906947711960302779
214,18319.6150661876430956558505052731493,18318.0,1.6150661876430956558505052731493
215,18491.2160049777204605876452497828934,18489.6,1.6160049777204605876452497828934
216,18663.6169394099701042536686210384902,18662.0,1.6169394099701042536686210384902
217,18836.8178695246720790049858016453962,18835.2,1.6178695246720790049858016453962
218,19010.8187953615504953707724172267044,19009.2,1.6187953615504953707724172267044
219,19185.6197169597837055447746463982215,19184.0,1.6197169597837055447746463982215
220,19361.2206343580142582757911305459400,19359.6,1.6206343580142582757911305459400
221,19537.6215475943586230644586700064751,19536.0,1.6215475943586230644586700064751
222,19714.8224567064167008636993320271450,19713.2,1.6224567064167008636993320271450
223,19892.8233617312811148436521350995249,19891.2,1.6233617312811148436521350995249
224,20071.6242627055462962803793870634061,20070.0,1.6242627055462962803793870634061
225,20251.2251596653173681248819600487462,20249.6,1.6251596653173681248819600487462
226,20431.6260526462188297903560452388182,20430.0,1.6260526462188297903560452388182
227,20612.8269416834030518005294497299018,20611.2,1.6269416834030518005294497299018
228,20794.8278268115585821092682815970355,20793.2,1.6278268115585821092682815970355
229,20977.6287080649182712435888156262661,20976.0,1.6287080649182712435888156262661
230,21161.2295854772672209563023981183128,21159.6,1.6295854772672209563023981183128
231,21345.6304590819505581775472708793350,21344.0,1.6304590819505581775472708793350
232,21530.8313289118810446741113373582912,21529.2,1.6313289118810446741113373582912
233,21716.8321949995465174020334862962406,21715.2,1.6321949995465174020334862962406
234,21903.6330573770171756985323731352258,21902.0,1.6330573770171756985323731352258
235,22091.2339160759527084843455033754849,22089.6,1.6339160759527084843455033754849
236,22279.6347711276092711752295573681921,22278.0,1.6347711276092711752295573681921
237,22468.8356225628463159227313051743312,22467.2,1.6356225628463159227313051743312
238,22658.8364704121332769152222413822160,22657.2,1.6364704121332769152222413822160
