Eigenstate,Energy,Kinetic Energy,Potential Energy
1,0.500000000746537309638591559021364556,0.0,0.500000000746537309638591559021364556
2,1.84623094252423433942232943594399939,1.2,0.64623094252423433942232943594399939
3,3.93633762401988781417631967212119930,3.2,0.73633762401988781417631967212119930
4,6.79966530763203968075851181896663891,6.0,0.79966530763203968075851181896663891
5,10.4480466269394712003340436167986055,9.6,0.8480466269394712003340436167986055
6,14.8870660768060223317570926979182904,14.0,0.8870660768060223317570926979182904
7,20.1197209387227295583586470477585958,19.2,0.9197209387227295583586470477585958
8,26.1477839990962353513674982865096770,25.2,0.9477839990962353513674982865096770
9,32.9723837569520260593875526278988866,32.0,0.9723837569520260593875526278988866
10,40.5942804664528185716026547002818138,39.6,0.9942804664528185716026547002818138
11,49.0140096977512905608590305831417593,48.0,1.0140096977512905608590305831417593
12,58.2319625461625078160955824146395164,57.2,1.0319625461625078160955824146395164
13,68.2484331417622222240579344780599491,67.2,1.0484331417622222240579344780599491
14,79.0636481822434405234626527294761671,78.0,1.0636481822434405234626527294761671
15,90.6777860487308556936086535227828095,89.6,1.0777860487308556936086535227828095
16,103.090989610651447774658498462481066,102.0,1.090989610651447774658498462481066
17,116.303375059196090478774414208543120,115.2,1.103375059196090478774414208543120
18,130.315038158325820200384874108465464,129.2,1.115038158325820200384874108465464
19,145.126058767875862490868123029837134,144.0,1.126058767875862490868123029837134
20,160.736504181189603902874578041198642,159.6,1.136504181189603902874578041198642
21,177.146431631200315606868411051957846,176.0,1.146431631200315606868411051957846
22,194.355890201589913868208863809772909,193.2,1.155890201589913868208863809772909
23,212.364922304725500831198996147797033,211.2,1.164922304725500831198996147797033
24,231.173564839059799851000485309510990,230.0,1.173564839059799851000485309510990
25,250.781850105927092962564056715599300,249.6,1.181850105927092962564056715599300
26,271.189806543350818212432948341490035,270.0,1.189806543350818212432948341490035
27,292.397459319006154003762957597134817,291.2,1.197459319006154003762957597134817
28,314.404830813579066677190045154492174,313.2,1.204830813579066677190045154492174
29,337.211941017968269646659440784925183,336.0,1.211941017968269646659440784925183
30,360.818807862127054782447880148000636,359.6,1.218807862127054782447880148000636
31,385.225447489196018192535305179707538,384.0,1.225447489196018192535305179707538
32,410.431874485499802939193721397417180,409.2,1.231874485499802939193721397417180
33,436.438102074671333401965266048993793,435.2,1.238102074671333401965266048993793
34,463.244142282416469716143980912895080,462.0,1.244142282416469716143980912895080
35,490.850006077092815638340185545638162,489.6,1.250006077092815638340185545638162
36,519.255703490242934303263904048339882,518.0,1.255703490242934303263904048339882
37,548.461243720418141780614662635251582,547.2,1.261243720418141780614662635251582
38,578.466635222998629592681396582539137,577.2,1.266635222998629592681396582539137
39,609.271885788217818699787708673809058,608.0,1.271885788217818699787708673809058
40,640.877002609203026674116841017668360,639.6,1.277002609203026674116841017668360
41,673.281992341527779506353376980227881,672.0,1.281992341527779506353376980227881
42,706.486861155516106886220440094382490,705.2,1.286861155516106886220440094382490
43,740.491614782332673451623419816218598,739.2,1.291614782332673451623419816218598
44,775.296258554724504484468302894657753,774.0,1.296258554724504484468302894657753
45,810.900797443142494961334214973393135,809.6,1.300797443142494961334214973393135
46,847.305236087857754583888515020239207,846.0,1.305236087857754583888515020239207
47,884.509578827594364801055668780898570,883.2,1.309578827594364801055668780898570
48,922.513829725122537470283447850272835,921.2,1.313829725122537470283447850272835
49,961.317992590191502261031691199775124,960.0,1.317992590191502261031691199775124
50,1000.92207100012732718971305597955770,999.6,1.32207100012732718971305597955770
51,1041.32606831837540971267019111249332,1040.0,1.32606831837540971267019111249332
52,1082.52998771122903058935087989337237,1081.2,1.32998771122903058935087989337237
53,1124.53383216295291260922104290157723,1123.2,1.33383216295291260922104290157723
54,1167.33760448948316514446218884164943,1166.0,1.33760448948316514446218884164943
55,1210.94130735086151999797992730566618,1209.6,1.34130735086151999797992730566618
56,1255.34494326254168944614522781977438,1254.0,1.34494326254168944614522781977438
57,1300.54851460568847841061439977097023,1299.2,1.34851460568847841061439977097023
58,1346.55202363657548550734909987705222,1345.2,1.35202363657548550734909987705222
59,1393.35547249517447377375843574933936,1392.0,1.35547249517447377375843574933936
60,1440.95886321301846736728423734278023,1439.6,1.35886321301846736728423734278023
61,1489.36219772041106630135493866747996,1488.0,1.36219772041106630135493866747996
62,1538.56547785304617027964510561538343,1537.2,1.36547785304617027964510561538343
63,1588.56870535809506080068907024755704,1587.2,1.36870535809506080068907024755704
64,1639.37188189981147822512390042920778,1638.0,1.37188189981147822512390042920778
65,1690.97500906469979565802044315755584,1689.6,1.37500906469979565802044315755584
66,1743.37808836628654415987025614400834,1742.0,1.37808836628654415987025614400834
67,1796.58112124953128150864729389601579,1795.2,1.38112124953128150864729389601579
68,1850.58410909490904057473743631787626,1849.2,1.38410909490904057473743631787626
69,1905.38705322219328069999825705313753,1904.0,1.38705322219328069999825705313753
70,1960.98995489396533720413946076998405,1959.6,1.38995489396533720413946076998405
71,2017.39281531887376543810587771736368,2016.0,1.39281531887376543810587771736368
72,2074.59563565466467756196896296732160,2073.2,1.39563565466467756196896296732160
73,2132.59841701100211721866822598804496,2131.2,1.39841701100211721866822598804496
74,2191.40116045209569842661606712759790,2190.0,1.40116045209569842661606712759790
75,2251.00386699915110391332778963285223,2249.6,1.40386699915110391332778963285223
76,2311.40653763265758855572776297481010,2310.0,1.40653763265758855572776297481010
77,2372.60917329452533119463393518389049,2371.2,1.40917329452533119463393518389049
78,2434.61177489008431229300607217774114,2433.2,1.41177489008431229300607217774114
79,2497.41434328995534808783511438970962,2496.0,1.41434328995534808783511438970962
80,2561.01687933180297376019073104909847,2559.6,1.41687933180297376019073104909847
81,2625.41938382197901880677215638845620,2624.0,1.41938382197901880677215638845620
82,2690.62185753706495634605791166165792,2689.2,1.42185753706495634605791166165792
83,2756.62430122532041935868181342876612,2755.2,1.42430122532041935868181342876612
84,2823.42671560804465257027703335432833,2822.0,1.42671560804465257027703335432833
85,2891.02910138085710940919601849894769,2889.6,1.42910138085710940919601849894769
86,2959.43145921490288760647680904051100,2958.0,1.43145921490288760647680904051100
87,3028.63378975798823953499410458759380,3027.2,1.43378975798823953499410458759380
88,3098.63609363565097000737132085964860,3097.2,1.43609363565097000737132085964860
89,3169.43837145217015075045623160838123,3168.0,1.43837145217015075045623160838123
90,3241.04062379151923755784118332438416,3239.6,1.44062379151923755784118332438416
91,3313.44285121826635467026818333915400,3312.0,1.44285121826635467026818333915400
92,3386.64505427842522263665619050839049,3385.2,1.44505427842522263665619050839049
93,3460.64723350025994365386959708343864,3459.2,1.44723350025994365386959708343864
94,3535.44938939504661545507542210755208,3534.0,1.44938939504661545507542210755208
95,3611.05152245779452366298150713983649,3609.6,1.45152245779452366298150713983649
96,3687.45363316792946070261745407656151,3686.0,1.45363316792946070261745407656151
97,3764.65572198994153502673176013978221,3763.2,1.45572198994153502673176013978221
98,3842.65778937399966153309557005755723,3841.2,1.45778937399966153309557005755723
99,3921.45983575653477058137183597462997,3920.0,1.45983575653477058137183597462997
100,4001.06186156079362667734598978904199,3999.6,1.46186156079362667734598978904199
101,4081.46386719736501858875273531725312,4080.0,1.46386719736501858875273531725312
102,4162.66585306467995708280815102093039,4161.2,1.46585306467995708280815102093039
103,4244.66781954948740856257011777647815,4243.2,1.46781954948740856257011777647815
104,4327.46976702730698561519630035593546,4326.0,1.46976702730698561519630035593546
105,4411.07169586285992241206620383536121,4409.6,1.47169586285992241206620383536121
106,4495.47360641047957213719746771070696,4494.0,1.47360641047957213719746771070696
107,4580.67549901450258553914695583944067,4579.2,1.47549901450258553914695583944067
108,4666.67737400964185046277225667051111,4665.2,1.47737400964185046277225667051111
109,4753.47923172134220362447688214798942,4752.0,1.47923172134220362447688214798942
110,4841.08107246611986347523037681186119,4839.6,1.48107246611986347523037681186119
111,4929.48289655188646713528511377448065,4928.0,1.48289655188646713528511377448065
112,5018.68470427825854495174518568591293,5017.2,1.48470427825854495174518568591293
113,5108.68649593685321069522874288772045,5107.2,1.48649593685321069522874288772045
114,5199.48827181157079665504736878466572,5198.0,1.48827181157079665504736878466572
115,5291.09003217886512244476648601937237,5289.6,1.49003217886512244476648601937237
116,5383.49177730800203799937066074779644,5382.0,1.49177730800203799937066074779644
117,5476.69350746130684953327542674824761,5475.2,1.49350746130684953327542674824761
118,5570.69522289440119619839359573059903,5569.2,1.49522289440119619839359573059903
119,5665.49692385642991146885991821373139,5664.0,1.49692385642991146885991821373139
120,5761.09861059027837743793594012753331,5759.6,1.49861059027837743793594012753331
121,5857.50028333278084194657015102461450,5856.0,1.50028333278084194657015102461450
122,5954.70194231492014955119844838689594,5953.2,1.50194231492014955119844838689594
123,6052.70358776201930514673170298595519,6051.2,1.50358776201930514673170298595519
124,6151.50521989392527138220321878545469,6150.0,1.50521989392527138220321878545469
125,6251.10683892518537144169088759958058,6249.6,1.50683892518537144169088759958058
126,6351.50844506521665356726340160329135,6350.0,1.50844506521665356726340160329135
127,6452.71003851846855312433337570604152,6451.2,1.51003851846855312433337570604152
128,6554.71161948457916542416494425555152,6553.2,1.51161948457916542416494425555152
129,6657.51318815852543044667193968459157,6656.0,1.51318815852543044667193968459157
130,6761.11474473076751222646980921602640,6759.6,1.51474473076751222646980921602640
131,6865.51628938738764026277884843372097,6864.0,1.51628938738764026277884843372097
132,6970.71782231022366533841337702954738,6969.2,1.51782231022366533841337702954738
133,7076.71934367699757035339551476156169,7075.2,1.51934367699757035339551476156169
134,7183.52085366143916550476813077998957,7182.0,1.52085366143916550476813077998957
135,7291.12235243340517903788941086753624,7289.6,1.52235243340517903788941086753624
136,7399.52384015899395110910570119807978,7398.0,1.52384015899395110910570119807978
137,7508.72531700065592499399680637684444,7507.2,1.52531700065592499399680637684444
138,7618.72678311730011626571056512140916,7617.2,1.52678311730011626571056512140916
139,7729.52823866439673846442721577136533,7728.0,1.52823866439673846442721577136533
140,7841.12968379407614833554810729244380,7839.6,1.52968379407614833554810729244380
141,7953.53111865522426915933268143534176,7952.0,1.53111865522426915933268143534176
142,8066.73254339357464262418929025382442,8065.2,1.53254339357464262418929025382442
143,8180.73395815179725104851037968804994,8179.2,1.53395815179725104851037968804994
144,8295.53536306958424457927240161519644,8294.0,1.53536306958424457927240161519644
145,8411.13675828373270381097050260959292,8409.6,1.53675828373270381097050260959292
146,8527.53814392822456040295234018103813,8526.0,1.53814392822456040295234018103813
147,8644.73952013430379007360675292363700,8643.2,1.53952013430379007360675292363700
148,8762.74088703055099339536901685922429,8761.2,1.54088703055099339536901685922429
149,8881.54224474295546629010174643538063,8880.0,1.54224474295546629010174643538063
150,9001.14359339498486396816020821970227,8999.6,1.54359339498486396816020821970227
151,9121.54493310765255433185600649733296,9120.0,1.54493310765255433185600649733296
152,9242.74626399958275125310944909194802,9241.2,1.54626399958275125310944909194802
153,9364.74758618707351678998649332461461,9363.2,1.54758618707351678998649332461461
154,9487.54889978415771636092702398925729,9486.0,1.54889978415771636092702398925729
155,9611.15020490266200523699210464084427,9609.6,1.55020490266200523699210464084427
156,9735.55150165226392434781947304715053,9734.0,1.55150165226392434781947304715053
157,9860.75279014054717658241130830766759,9859.2,1.55279014054717658241130830766759
158,9986.75407047305515554285390996562044,9985.2,1.55407047305515554285390996562044
159,10113.5553427533427905694784222638413,10112.0,1.5553427533427905694784222638413
160,10241.1566070830267745266546541758065,10239.6,1.5566070830267745266546541758065
161,10369.5578635618342330032222196058193,10368.0,1.5578635618342330032222196058193
162,10498.7591122876498945530919828613726,10497.2,1.5591122876498945530919828613726
163,10628.7603533565618170005574205359351,10627.2,1.5603533565618170005574205359351
164,10759.5615868629057246253511600749062,10758.0,1.5615868629057246253511600749062
165,10891.1628128993080050135728726318359,10889.6,1.5628128993080050135728726318359
166,11023.5640315567274162838576748933703,11022.0,1.5640315567274162838576748933703
167,11156.7652429244955521231186554150963,11155.2,1.5652429244955521231186554150963
168,11290.7664470903561075314251383357104,11289.2,1.5664470903561075314251383357104
169,11425.5676441405029905577939467439903,11424.0,1.5676441405029905577939467439903
170,11561.1688341596173199992041398002379,11559.6,1.5688341596173199992041398002379
171,11697.5700172309033494964293284651457,11696.0,1.5700172309033494964293284651457
172,11834.7711934361233561429442602906012,11833.2,1.5711934361233561429442602906012
173,11972.7723628556315292697736999773313,11971.2,1.5723628556315292697736999773313
174,12111.5735255684068955218811963104681,12110.0,1.5735255684068955218811963104681
175,12251.1746816520853144951693413800047,12249.6,1.5746816520853144951693413800047
176,12391.5758311829905749373055790607130,12390.0,1.5758311829905749373055790607130
177,12532.7769742361646250830986621459535,12531.2,1.5769742361646250830986621459535
178,12674.7781108853969666030385656914097,12673.2,1.5781108853969666030385656914097
179,12817.5792412032532389489124283048106,12816.0,1.5792412032532389489124283048106
180,12961.1803652611030253973512399492907,12959.6,1.5803652611030253973512399492907
181,13105.5814831291469038106747275226894,13104.0,1.5814831291469038106747275226894
182,13250.7825948764427701983417839955646,13249.2,1.5825948764427701983417839955646
183,13396.7837005709314585342953591790441,13395.2,1.5837005709314585342953591790441
184,13543.5848002794616814967418744442533,13542.0,1.5848002794616814967418744442533
185,13691.1858940678143143835450992147537,13689.6,1.5858940678143143835450992147537
186,13839.5869820007260436379931135179554,13838.0,1.5869820007260436379931135179554
187,13988.7880641419124042738423523364588,13987.2,1.5880641419124042738423523364588
188,14138.7891405540902221477730152455353,14137.2,1.5891405540902221477730152455353
189,14289.5902112989994853469264150327942,14288.0,1.5902112989994853469264150327942
190,14441.1912764374246609052117563617180,14439.6,1.5912764374246609052117563617180
191,14593.5923360292154766611273077129458,14592.0,1.5923360292154766611273077129458
192,14746.7933901333071852584828300478910,14745.2,1.5933901333071852584828300478910
193,14900.7944388077403292437809246490708,14899.2,1.5944388077403292437809246490708
194,15055.5954821096800212833272062744662,15054.0,1.5954821096800212833272062744662
195,15211.1965200954347581489603103983682,15209.6,1.5965200954347581489603103983682
196,15367.5975528204747829170422436121240,15366.0,1.5975528204747829170422436121240
197,15524.7985803394500105470205405147102,15523.2,1.5985803394500105470205405147102
198,15682.7996027062075318330451991436040,15681.2,1.5996027062075318330451991436040
199,15841.6006199738087094368226463936871,15840.0,1.6006199738087094368226463936871
200,16001.2016321945458808615915747188836,15999.6,1.6016321945458808615915747188836
201,16161.6026394199586803113570666703105,16160.0,1.6026394199586803113570666703105
202,16322.8036417008499938301333493227495,16321.2,1.6036417008499938301333493227495
203,16484.8046390873015594484257031507849,16483.2,1.6046390873015594484257031507849
204,16647.6056316286892250815645877353029,16646.0,1.6056316286892250815645877353029
205,16811.2066193736978753355524798550655,16809.6,1.6066193736978753355524798550655
206,16975.6076023703360414938527741710869,16974.0,1.6076023703360414938527741710869
207,17140.8085806659502018787469933836768,17139.2,1.6085806659502018787469933836768
208,17306.8095543072387882042041899082801,17305.2,1.6095543072387882042041899082801
209,17473.6105233402659051356908235637734,17472.0,1.6105233402659051356908235637734
210,17641.2114878104747761069963776640017,17639.6,1.6114878104747761069963776640017
211,17809.6124477627009243946192433430654,17808.0,1.6124477627009243946192433430654
212,17978.8134032411851014110114303875222,17977.2,1.6134032411851014110114303875222
213,18148.8143542895859684273687449311913,18147.2,1.6143542895859684273687449311913
214,18319.6153009509925486393865092232454,18318.0,1.6153009509925486393865092232454
215,18491.2162432679364508317512299323350,18489.6,1.6162432679364508317512299323350
216,18663.6171812824038807645240622702132,18662.0,1.6171812824038807645240622702132
217,18836.8181150358474465361716524736945,18835.2,1.6181150358474465361716524736945
218,19010.8190445691977693269515006385824,19009.2,1.6190445691977693269515006385824
219,19185.6199699228749053714443347657713,19184.0,1.6199699228749053714443347657713
220,19361.2208911367995943986417343585082,19359.6,1.6208911367995943986417343585082
221,19537.6218082504043353371362289968491,19536.0,1.6218082504043353371362289968491
222,19714.8227213026443095543402914633826,19713.2,1.6227213026443095543402914633826
223,19892.8236303320081484507105636407271,19891.2,1.6236303320081484507105636407271
224,20071.6245353765285639301134848916504,20070.0,1.6245353765285639301134848916504
225,20251.2254364737928479807486978045907,20249.6,1.6254364737928479807486978045907
226,20431.6263336609532488137119158304348,20430.0,1.6263336609532488137119158304348
227,20612.8272269747372363591155559570075,20611.2,1.6272269747372363591155559570075
228,20794.8281164514576633528495394308147,20793.2,1.6281164514576633528495394308147
229,20977.6290021270228338742641244221693,20976.0,1.6290021270228338742641244221693
230,21161.2298840369464890352210558552951,21159.6,1.6298840369464890352210558552951
231,21345.6307622163577169529445440600738,21344.0,1.6307622163577169529445440600738
232,21530.8316367000108031122029224961620,21529.2,1.6316367000108031122029224961620
233,21716.8325075222950221790130623975365,21715.2,1.6325075222950221790130623975365
234,21903.6333747172443938977689264990848,21902.0,1.6333747172443938977689264990848
235,22091.2342383185474031691149865585225,22089.6,1.6342383185474031691149865585225
236,22279.6350983595567014082227672409169,22278.0,1.6350983595567014082227672409169
237,22468.8359548732988007161356062069476,22467.2,1.6359548732988007161356062069476
238,22658.8368078924837710598252264268863,22657.2,1.6368078924837710598252264268863
