Eigenstate,Energy,Kinetic Energy,Potential Energy
1,0.500000000034373993661840260359448358,0.0,0.500000000034373993661840260359448358
2,1.84623093787549008296152768568283665,1.2,0.64623093787549008296152768568283665
3,3.93633761036406004957747348229572067,3.2,0.73633761036406004957747348229572067
4,6.79966527918703537808610576283398459,6.0,0.79966527918703537808610576283398459
5,10.4480465776636482793041521680665629,9.6,0.8480465776636482793041521680665629
6,14.8870660005499385584820361096236034,14.0,0.8870660005499385584820361096236034
7,20.1197208292847208602080490437031602,19.2,0.9197208292847208602080490437031602
8,26.1477838502452851782827724373333193,25.2,0.9477838502452851782827724373333193
9,32.9723835624381152567954604159991803,32.0,0.9723835624381152567954604159991803
10,40.5942802200119158678958326653343067,39.6,0.9942802200119158678958326653343067
11,49.0140093931078193385395996146520830,48.0,1.0140093931078193385395996146520830
12,58.2319621770305260547575407110335967,57.2,1.0319621770305260547575407110335967
13,68.2484327018459010902249920243055333,67.2,1.0484327018459010902249920243055333
14,79.0636476652371385141173784489985897,78.0,1.0636476652371385141173784489985897
15,90.6777854483189479525241332362485377,89.6,1.0777854483189479525241332362485377
16,103.090988920508000773546381149467931,102.0,1.090988920508000773546381149467931
17,116.303374272984435250484370771296237,115.2,1.103374272984435250484370771296237
18,130.315037269698056667276121577140217,129.2,1.115037269698056667276121577140217
19,145.126057770472315446043503831901939,144.0,1.126057770472315446043503831901939
20,160.736503068638243994826647566527690,159.6,1.136503068638243994826647566527690
21,177.146430397116154207171790765781924,176.0,1.146430397116154207171790765781924
22,194.355888839574377850223301106702513,193.2,1.155888839574377850223301106702513
23,212.364920808365791422916007530321794,211.2,1.164920808365791422916007530321794
24,231.173563201928238477873520433876192,230.0,1.173563201928238477873520433876192
25,250.781848321580456144647734979352735,249.6,1.181848321580456144647734979352735
26,271.189804605329662987854954074438373,270.0,1.189804605329662987854954074438373
27,292.397457220834134931398956419497948,291.2,1.197457220834134931398956419497948
28,314.404828548762245170025376228685210,313.2,1.204828548762245170025376228685210
29,337.211938579994416167365265391266782,336.0,1.211938579994416167365265391266782
30,360.818805244464944269911679807448723,359.6,1.218805244464944269911679807448723
31,385.225444685294718965994733979097237,384.0,1.225444685294718965994733979097237
32,410.431871488787959233881040725714701,409.2,1.231871488787959233881040725714701
33,436.438098878556441618842979419573752,435.2,1.238098878556441618842979419573752
34,463.244138880284148412785872721820773,462.0,1.244138880284148412785872721820773
35,490.850002462306069244257991684890090,489.6,1.250002462306069244257991684890090
36,519.255699656141410508082287854382583,518.0,1.255699656141410508082287854382583
37,548.461239660317382515313333981923121,547.2,1.261239660317382515313333981923121
38,578.466630930189315501073520911288259,577.2,1.266630930189315501073520911288259
39,609.271881255965006978302270881378833,608.0,1.271881255965006978302270881378833
40,640.876997830745382141907797830522469,639.6,1.276997830745382141907797830522469
41,673.281987310076798754092687758955230,672.0,1.281987310076798754092687758955230
42,706.486855864255335340122944182680351,705.2,1.286855864255335340122944182680351
43,740.491609224416915178898063558161449,739.2,1.291609224416915178898063558161449
44,775.296252723279024557180041360782457,774.0,1.296252723279024557180041360782457
45,810.900791331262214187346747247737404,809.6,1.300791331262214187346747247737404
46,847.305229688606436405946105983532522,846.0,1.305229688606436405946105983532522
47,884.509572134003794158000250780038644,883.2,1.309572134003794158000250780038644
48,922.513822730191691407764667229730939,921.2,1.313822730191691407764667229730939
49,961.317985286885712072754317657032445,960.0,1.317985286885712072754317657032445
50,1000.92206338137743186419863412716032,999.6,1.32206338137743186419863412716032
51,1041.32606037707690045461750397080794,1040.0,1.32606037707690045461750397080794
52,1082.52997944024118617891331454173292,1081.2,1.32997944024118617891331454173292
53,1124.53382355509792535683015118621692,1123.2,1.33382355509792535683015118621692
54,1167.33759553754525719317687387541385,1166.0,1.33759553754525719317687387541385
55,1210.94129804758604971970044808835229,1209.6,1.34129804758604971970044808835229
56,1255.34493360063424767237206737499944,1254.0,1.34493360063424767237206737499944
57,1300.54850457781397423273068310885810,1299.2,1.34850457781397423273068310885810
58,1346.55201323535722137563870421619977,1345.2,1.35201323535722137563870421619977
59,1393.35546171319320961853018768352546,1392.0,1.35546171319320961853018768352546
60,1440.95885204281147345953043835140944,1439.6,1.35885204281147345953043835140944
61,1489.36218615447116456432195434344072,1488.0,1.36218615447116456432195434344072
62,1538.56546588382076375651876324294460,1537.2,1.36546588382076375651876324294460
63,1588.56869297798515097729110527552426,1587.2,1.36869297798515097729110527552426
64,1639.37186910117066990006073930386724,1638.0,1.37186910117066990006073930386724
65,1690.97499583983328904611473384484704,1689.6,1.37499583983328904611473384484704
66,1743.37807470745011390793178603928866,1742.0,1.37807470745011390793178603928866
67,1796.58110714893024229568959154240517,1795.2,1.38110714893024229568959154240517
68,1850.58409454469719896161343652837198,1849.2,1.38409454469719896161343652837198
69,1905.38703821447187288609966231573286,1904.0,1.38703821447187288609966231573286
70,1960.98993942078195234128364091637974,1959.6,1.38993942078195234128364091637974
71,2017.39279937222125414399111168532493,2016.0,1.39279937222125414399111168532493
72,2074.59561922648004526763178212344103,2073.2,1.39561922648004526763178212344103
73,2132.59840009316540197619090945902497,2131.2,1.39840009316540197619090945902497
74,2191.40114303642883279492171435657381,2190.0,1.40114303642883279492171435657381
75,2251.00384907741676053123863346527176,2249.6,1.40384907741676053123863346527176
76,2311.40651919655800900255613242637306,2310.0,1.40651919655800900255613242637306
77,2372.60915433570113772939977625393397,2371.2,1.40915433570113772939977625393397
78,2434.61175540011330205393606002751961,2433.2,1.41175540011330205393606002751961
79,2497.41432326035126932407527020191630,2496.0,1.41432326035126932407527020191630
80,2561.01685875401428365765716470495007,2559.6,1.41685875401428365765716470495007
81,2625.41936268738762245975273806573709,2624.0,1.41936268738762245975273806573709
82,2690.62183583698492641556173240690115,2689.2,1.42183583698492641556173240690115
83,2756.62427895099669594759591077340099,2755.2,1.42427895099669594759591077340099
84,2823.42669275065172283412197717014563,2822.0,1.42669275065172283412197717014563
85,2891.02907793149766640966432720640640,2889.6,1.42907793149766640966432720640640
86,2959.43143516460646790297844590051316,2958.0,1.43143516460646790297844590051316
87,3028.63376509770983899710594632607412,3027.2,1.43376509770983899710594632607412
88,3098.63606835626963731838646625049563,3097.2,1.43606835626963731838646625049563
89,3169.43834554448755805914015487783500,3168.0,1.43834554448755805914015487783500
90,3241.04059724625822772200518140182536,3239.6,1.44059724625822772200518140182536
91,3313.44282402606946452186402339870230,3312.0,1.44282402606946452186402339870230
92,3386.64502642985318168375308127978329,3385.2,1.44502642985318168375308127978329
93,3460.64720498579014762009459491114148,3459.2,1.44720498579014762009459491114148
94,3535.44936020507157404185168442249313,3534.0,1.44936020507157404185168442249313
95,3611.05149258262028190417833242766276,3609.6,1.45149258262028190417833242766276
96,3687.45360259777399326501964462084332,3686.0,1.45360259777399326501964462084332
97,3764.65569071493311279300822427866223,3763.2,1.45569071493311279300822427866223
98,3842.65775738417518978670761448157825,3841.2,1.45775738417518978670761448157825
99,3921.45980304183809809506480638275839,3920.0,1.45980304183809809506480638275839
100,4001.06182811107382498851758801855226,3999.6,1.46182811107382498851758801855226
101,4081.46383300237463072604813851256544,4080.0,1.46383300237463072604813851256544
102,4162.66581811407321498875311695746137,4161.2,1.46581811407321498875311695746137
103,4244.66778383281841843688759441057623,4243.2,1.46778383281841843688759441057623
104,4327.46973053402788038262992773369499,4326.0,1.46973053402788038262992773369499
105,4411.07165858231898049705751932309450,4409.6,1.47165858231898049705751932309450
106,4495.47356833191930170557989662428538,4494.0,1.47356833191930170557989662428538
107,4580.67546012705777334412005686937744,4579.2,1.47546012705777334412005686937744
108,4666.67733430233757440878060439477951,4665.2,1.47733430233757440878060439477951
109,4753.47919118309180813819715822583740,4752.0,1.47919118309180813819715822583740
110,4841.08103108572289674765629591322238,4839.6,1.48103108572289674765629591322238
111,4929.48285431802657927285691523324519,4928.0,1.48285431802657927285691523324519
112,5018.68466117950134604756036957884826,5017.2,1.48466117950134604756036957884826
113,5108.68645196164408780358061695746772,5107.2,1.48645196164408780358061695746772
114,5199.48822694823268862380938848078591,5198.0,1.48822694823268862380938848078591
115,5291.08998641559625153046873113601321,5289.6,1.48998641559625153046873113601321
116,5383.49173063287359715913508793750298,5382.0,1.49173063287359715913508793750298
117,5476.69345986226064425607232457772517,5475.2,1.49345986226064425607232457772517
118,5570.69517435924723970530556370656266,5569.2,1.49517435924723970530556370656266
119,5665.49687437284397207815134658600406,5664.0,1.49687437284397207815134658600406
120,5761.09856014579947685568471903893611,5759.6,1.49856014579947685568471903893611
121,5857.50023191480870320737960853597996,5856.0,1.50023191480870320737960853597996
122,5954.70188991071259329602601785788714,5953.2,1.50188991071259329602601785788714
123,6052.70353435868959288609571983505253,6051.2,1.50353435868959288609571983505253
124,6151.50516547843939435291923562053796,6150.0,1.50516547843939435291923562053796
125,6251.10678348435928362377405836745903,6249.6,1.50678348435928362377405836745903
126,6351.50838858571344738468634278287454,6350.0,1.50838858571344738468634278287454
127,6452.70998098679557630886196644283864,6451.2,1.50998098679557630886196644283864
128,6554.71156088708507747547300778714959,6553.2,1.51156088708507747547300778714959
129,6657.51312848139719707428746084953907,6656.0,1.51312848139719707428746084953907
130,6761.11468396002733610976295497831212,6759.6,1.51468396002733610976295497831212
131,6865.51622750888982641410693015601109,6864.0,1.51622750888982641410693015601109
132,6970.71775930965141930160529667937795,6969.2,1.51775930965141930160529667937795
133,7076.71927953985972741493713167571878,7075.2,1.51927953985972741493713167571878
134,7183.52078837306684903823467054337482,7182.0,1.52078837306684903823467054337482
135,7291.12228597894838604330504795600895,7289.6,1.52228597894838604330504795600895
136,7399.52377252341806294789983373604122,7398.0,1.52377252341806294789983373604122
137,7508.72524816873814125697518077961219,7507.2,1.52524816873814125697518077961219
138,7618.72671307362580964589444181881577,7617.2,1.52671307362580964589444181881577
139,7729.52816739335572843861969217912198,7728.0,1.52816739335572843861969217912198
140,7841.12961127985889138797038777852167,7839.6,1.52961127985889138797038777852167
141,7953.53104488181796320753717814175787,7952.0,1.53104488181796320753717814175787
142,8066.73246834475924323157221837260094,8065.2,1.53246834475924323157221837260094
143,8180.73388181114139692900766436498690,8179.2,1.53388181114139692900766436498690
144,8295.53528542044108981811735959644223,8294.0,1.53528542044108981811735959644223
145,8411.13667930923565414057738226766976,8409.6,1.53667930923565414057738226766976
146,8527.53806361128291078493046796299112,8526.0,1.53806361128291078493046796299112
147,8644.73943845759826074649310758412194,8643.2,1.53943845759826074649310758412194
148,8762.74080397652916145271088097543928,8761.2,1.54080397652916145271088097543928
149,8881.54216029382708975489339493213346,8880.0,1.54216029382708975489339493213346
150,9001.14350753271709522718283694529543,8999.6,1.54350753271709522718283694529543
151,9121.54484581396503968698662769249483,9120.0,1.54484581396503968698662769249483
152,9242.74617525594261323601975478853525,9241.2,1.54617525594261323601975478853525
153,9364.74749597469021577162594276848429,9363.2,1.54749597469021577162594276848429
154,9487.54880808397778786759465130704453,9486.0,1.54880808397778786759465130704453
155,9611.15011169536366926044128334766837,9609.6,1.55011169536366926044128334766837
156,9735.55140691825156280748789316741940,9734.0,1.55140691825156280748789316741940
157,9860.75269385994567496332148282089133,9859.2,1.55269385994567496332148282089133
158,9986.75397262570410459270481247995674,9985.2,1.55397262570410459270481247995674
159,10113.5552433187905437927464460379038,10112.0,1.5552433187905437927464460379038
160,10241.1565060405243570618411091338834,10239.6,1.5565060405243570618411091338834
161,10369.5577608903290973114727655347318,10368.0,1.5577608903290973114727655347318
162,10498.7590079657795181819531068866055,10497.2,1.5590079657795181819531068866055
163,10628.7602473626471375153661780697614,10627.2,1.5602473626471375153661780697614
164,10759.5614791749444066222856142061121,10758.0,1.5614791749444066222856142061121
165,10891.1627034949675339424535077097762,10889.6,1.5627034949675339424535077097762
166,11023.5639204133380136149809777103210,11022.0,1.5639204133380136149809777103210
167,11156.7651300190429061903614507073862,11155.2,1.5651300190429061903614507073862
168,11290.7663323994739141731815697872215,11289.2,1.5663323994739141731815697872215
169,11425.5675276404652974575916757133523,11424.0,1.5675276404652974575916757133523
170,11561.1687158263306683986232173667070,11559.6,1.5687158263306683986232173667070
171,11697.5698970398987067137851180168527,11696.0,1.5698970398987067137851180168527
172,11834.7710713625478320815686011055537,11833.2,1.5710713625478320815686011055537
173,11972.7722388742398698391626438469457,11971.2,1.5722388742398698391626438469457
174,12111.5733996535527456228655120785135,12110.0,1.5733996535527456228655120785135
175,12251.1745537777122429360969082734311,12249.6,1.5745537777122429360969082734311
176,12391.5757013226228533513348899093331,12390.0,1.5757013226228533513348899093331
177,12532.7768423628977526064865362540658,12531.2,1.5768423628977526064865362540658
178,12674.7779769718879317500600224728466,12673.2,1.5779769718879317500600224728466
179,12817.5791052217105097800552934298345,12816.0,1.5791052217105097800552934298345
180,12961.1802271832762587229437080779533,12959.6,1.5802271832762587229437080779533
181,13105.5813429263163638012942372439381,13104.0,1.5813429263163638012942372439381
182,13250.7824525194084463854028886792072,13249.2,1.5824525194084463854028886792072
183,13396.7835560300018727781707754898426,13395.2,1.5835560300018727781707754898426
184,13543.5846535244423730747381039861197,13542.0,1.5846535244423730747381039861197
185,13691.1857450679959919049687898713981,13689.6,1.5857450679959919049687898713981
186,13839.5868307248723920273759530064275,13838.0,1.5868307248723920273759530064275
187,13988.7879105582475345749572215003768,13987.2,1.5879105582475345749572215003768
188,14138.7889846302857513892248902265237,14137.2,1.5889846302857513892248902265237
189,14289.5900530021612331734897474892182,14288.0,1.5900530021612331734897474892182
190,14441.1911157340789491164439789298579,14439.6,1.5911157340789491164439789298579
191,14593.5921728852950172085623388188862,14592.0,1.5921728852950172085623388188862
192,14746.7932245141365416334914925931075,14745.2,1.5932245141365416334914925931075
193,14900.7942706780209355382415112513893,14899.2,1.5942706780209355382415112513893
194,15055.5953114334747425229278499048705,15054.0,1.5953114334747425229278499048705
195,15211.1963468361519747823874276361156,15209.6,1.5963468361519747823874276361156
196,15367.5973769408519815915333841225669,15366.0,1.5973769408519815915333841225669
197,15524.7984018015368625097333927576785,15523.2,1.5984018015368625097333927576785
198,15682.7994214713484394661544491360503,15681.2,1.5994214713484394661544491360503
199,15841.6004360026248005598914873476813,15840.0,1.6004360026248005598914873476813
200,16001.2014454469164295150424791377950,15999.6,1.6014454469164295150424791377950
201,16161.6024498550019317671106372725211,16160.0,1.6024498550019317671106372725211
202,16322.8034492769033705568470881093314,16321.2,1.6034492769033705568470881093314
203,16484.8044437619012236862175153676119,16483.2,1.6044437619012236862175153676119
204,16647.6054333585489725513565708937791,16646.0,1.6054333585489725513565708937791
205,16811.2064181146873334178235739283222,16809.6,1.6064181146873334178235739283222
206,16975.6073980774581439568586388210456,16974.0,1.6073980774581439568586388210456
207,17140.8083732933179109132664604799954,17139.2,1.6083732933179109132664604799954
208,17306.8093438080510331263344116003727,17305.2,1.6093438080510331263344116003727
209,17473.6103096667827056466145495831572,17472.0,1.6103096667827056466145495831572
210,17641.2112709139915164441704301767088,17639.6,1.6112709139915164441704301767088
211,17809.6122275935217430672472819072261,17808.0,1.6122275935217430672472819072261
212,17978.8131797485953594784895683626438,17977.2,1.6131797485953594784895683626438
213,18148.8141274218237574465960891316596,18147.2,1.6141274218237574465960891316596
214,18319.6150706552191974690979810587830,18318.0,1.6150706552191974690979810587830
215,18491.2160094902059884324866566031237,18489.6,1.6160094902059884324866566031237
216,18663.6169439676314099641441747077200,18662.0,1.6169439676314099641441747077200
217,18836.8178741277763814351135662968991,18835.2,1.6178741277763814351135662968991
218,19010.8188000103658865861542921654196,19009.2,1.6188000103658865861542921654196
219,19185.6197216545791570500137968113138,19184.0,1.6197216545791570500137968113138
220,19361.2206390990596272780380255413723,19359.6,1.6206390990596272780380255413723
221,19537.6215523819246587734055962626683,19536.0,1.6215523819246587734055962626683
222,19714.8224615407750508283461261492185,19713.2,1.6224615407750508283461261492185
223,19892.8233666127043313261684164958998,19891.2,1.6233666127043313261684164958998
224,20071.6242676343078426673916474744206,20070.0,1.6242676343078426673916474744206
225,20251.2251646416916253765166693962797,20249.6,1.6251646416916253765166693962797
226,20431.6260576704811029273726910163543,20430.0,1.6260576704811029273726910163543
227,20612.8269467558295764298803961644958,20611.2,1.6269467558295764298803961644958
228,20794.8278319324265309884253808190639,20793.2,1.6278319324265309884253808190639
229,20977.6287132345057608839795732136369,20976.0,1.6287132345057608839795732136369
230,21161.2295906958533182662014991347802,21159.6,1.6295906958533182662014991347802
231,21345.6304643498152871447724038671453,21344.0,1.6304643498152871447724038671453
232,21530.8313342293053930888752682250375,21529.2,1.6313342293053930888752682250375
233,21716.8322003668124436203074179298776,21715.2,1.6322003668124436203074179298776
234,21903.6330627944076154462789531175001,21902.0,1.6330627944076154462789531175001
235,22091.2339215437515817029827107613232,22089.6,1.6339215437515817029827107613232
236,22279.6347766461014889086901522606537,22278.0,1.6347766461014889086901522606537
237,22468.8356281323177872464857892346018,22467.2,1.6356281323177872464857892346018
238,22658.8364760328709159076363861220589,22657.2,1.6364760328709159076363861220589
