Eigenstate,Energy,Kinetic Energy,Potential Energy
1,0.500000000022878351399563710904359271,0.0,0.500000000022878351399563710904359271
2,1.84623093780045249856496912769380967,1.2,0.64623093780045249856496912769380967
3,3.93633761014364309749222380684789483,3.2,0.73633761014364309749222380684789483
4,6.79966527872793174185066938762836997,6.0,0.79966527872793174185066938762836997
5,10.4480465768683861847534854535972125,9.6,0.8480465768683861847534854535972125
6,14.8870659993193399504716169359254354,14.0,0.8870659993193399504716169359254354
7,20.1197208275188072221215154653463539,19.2,0.9197208275188072221215154653463539
8,26.1477838478436553851330250528794579,25.2,0.9477838478436553851330250528794579
9,32.9723835593001213589710621088512741,32.0,0.9723835593001213589710621088512741
10,40.5942802160367523844508581383228325,39.6,0.9942802160367523844508581383228325
11,49.0140093881945718347406605187465229,48.0,1.0140093881945718347406605187465229
12,58.2319621710781989715186358730644603,57.2,1.0319621710781989715186358730644603
13,68.2484326947534342782033287070988444,67.2,1.0484326947534342782033287070988444
14,79.0636476569034172673329088462987906,78.0,1.0636476569034172673329088462987906
15,90.6777854386428091203708052407838891,89.6,1.0777854386428091203708052407838891
16,103.090988909388236409443718017253369,102.0,1.090988909388236409443718017253369
17,116.303374260319794658141271338245176,115.2,1.103374260319794658141271338245176
18,130.315037255387247372344695242418504,129.2,1.115037255387247372344695242418504
19,145.126057754414003427508273617973451,144.0,1.126057754414003427508273617973451
20,160.736503050731053394168914817399798,159.6,1.136503050731053394168914817399798
21,177.146430377258666661209067610620737,176.0,1.146430377258666661209067610620737
22,194.355888817665131547520318017009543,193.2,1.155888817665131547520318017009543
23,212.364920784303279953589316214845367,211.2,1.164920784303279953589316214845367
24,231.173563175610909526505440099033731,230.0,1.173563175610909526505440099033731
25,250.781848292906710062308037541187510,249.6,1.181848292906710062308037541187510
26,271.189804574197851269696069459243799,270.0,1.189804574197851269696069459243799
27,292.397457187142558619553568902724922,291.2,1.197457187142558619553568902724922
28,314.404828512409153196700232822649600,313.2,1.204828512409153196700232822649600
29,337.211938540878003649505427724656341,336.0,1.211938540878003649505427724656341
30,360.818805202483350764213750840158570,359.6,1.218805202483350764213750840158570
31,385.225444640346026691110002671186310,384.0,1.225444640346026691110002671186310
32,410.431871440770191265186876970716832,409.2,1.231871440770191265186876970716832
33,436.438098827367560060045184568730821,435.2,1.238098827367560060045184568730821
34,463.244138825822052547755444719589347,462.0,1.244138825822052547755444719589347
35,490.850002404468593671837950615248487,489.6,1.250002404468593671837950615248487
36,519.255699594826323262076776917042359,518.0,1.255699594826323262076776917042359
37,548.461239595422383171457637740268782,547.2,1.261239595422383171457637740268782
38,578.466630861612033272454454663876397,577.2,1.266630861612033272454454663876397
39,609.271881183602998800434508440820529,608.0,1.271881183602998800434508440820529
40,640.876997754496130748458737497391965,639.6,1.276997754496130748458737497391965
41,673.281987229837710744075548225413520,672.0,1.281987229837710744075548225413520
42,706.486855779923739237236512505801271,705.2,1.286855779923739237236512505801271
43,740.491609135890059483575462207676535,739.2,1.291609135890059483575462207676535
44,775.296252630454075791813048628833565,774.0,1.296252630454075791813048628833565
45,810.900791234036254935072640200790377,809.6,1.300791234036254935072640200790377
46,847.305229586876463343317604789688822,846.0,1.305229586876463343317604789688822
47,884.509572027666716081803545412795453,883.2,1.309572027666716081803545412795453
48,922.513822619144327256203651652133177,921.2,1.313822619144327256203651652133177
49,961.317985171024788941179590873366927,960.0,1.317985171024788941179590873366927
50,1000.92206326059958301552621431141114,999.6,1.32206326059958301552621431141114
51,1041.32606025127866332455355403182522,1040.0,1.32606025127866332455355403182522
52,1082.52997930931900037607667925711650,1081.2,1.32997930931900037607667925711650
53,1124.53382341894813065784346403586847,1123.2,1.33382341894813065784346403586847
54,1167.33759539606409153277885850284613,1166.0,1.33759539606409153277885850284613
55,1210.94129790066964717591634956338025,1209.6,1.34129790066964717591634956338025
56,1255.34493344817863644676554229545602,1254.0,1.34493344817863644676554229545602
57,1300.54850441971507462574864966686874,1299.2,1.34850441971507462574864966686874
58,1346.55201307151084375705024942990596,1345.2,1.35201307151084375705024942990596
59,1393.35546154349505239295161208721346,1392.0,1.35546154349505239295161208721346
60,1440.95885186715712102702051981142390,1439.6,1.35885186715712102702051981142390
61,1489.36218597275608527602447392132863,1488.0,1.36218597275608527602447392132863
62,1538.56546569594030786532311634611796,1537.2,1.36546569594030786532311634611796
63,1588.56869278383454858347628920160570,1587.2,1.36869278383454858347628920160570
64,1639.37186890064502889188311245132002,1638.0,1.37186890064502889188311245132002
65,1690.97499563282759303529552341087987,1689.6,1.37499563282759303529552341087987
66,1743.37807449385922015999639382827974,1742.0,1.37807449385922015999639382827974
67,1796.58110692864887965510720771539212,1795.2,1.38110692864887965510720771539212
68,1850.58409431761996577168229607790148,1849.2,1.38409431761996577168229607790148
69,1905.38703798049323490352033752096241,1904.0,1.38703798049323490352033752096241
70,1960.98993917979624064536023985445713,1959.6,1.38993917979624064536023985445713
71,2017.39279912412266304039774464920801,2016.0,1.39279912412266304039774464920801
72,2074.59561897116263018667959146221156,2073.2,1.39561897116263018667959146221156
73,2132.59839983052307736552886999977235,2131.2,1.39839983052307736552886999977235
74,2191.40114276635537000660262021339485,2190.0,1.40114276635537000660262021339485
75,2251.00384879980578570307996161518624,2249.6,1.40384879980578570307996161518624
76,2311.40651891130300093372391532635735,2310.0,1.40651891130300093372391532635735
77,2372.60915404269542575014214701966024,2371.2,1.40915404269542575014214701966024
78,2434.61175509925006388939174712703348,2433.2,1.41175509925006388939174712703348
79,2497.41432295152352895208104992307210,2496.0,1.41432295152352895208104992307210
80,2561.01685843711490916047709632634402,2559.6,1.41685843711490916047709632634402
81,2625.41936236230932386965082511935308,2624.0,1.41936236230932386965082511935308
82,2690.62183550362025355413860867380337,2689.2,1.42183550362025355413860867380337
83,2756.62427860923803625880912148787924,2755.2,1.42427860923803625880912148787924
84,2823.42669240039129921090844339631138,2822.0,1.42669240039129921090844339631138
85,2891.02907757262753501408264933331530,2889.6,1.42907757262753501408264933331530
86,2959.43143479701851597978781931134554,2958.0,1.43143479701851597978781931134554
87,3028.63376472129578268069757628954491,3027.2,1.43376472129578268069757628954491
88,3098.63606797092101943298255044195424,3097.2,1.43606797092101943298255044195424
89,3169.43834515009574591217469663374718,3168.0,1.43834515009574591217469663374718
90,3241.04059684271441089060011021047169,3239.6,1.44059684271441089060011021047169
91,3313.44282361326465263231332302294759,3312.0,1.44282361326465263231332302294759
92,3386.64502600767820218392689651597714,3385.2,1.44502600767820218392689651597714
93,3460.64720455413564354467454626807284,3459.2,1.44720455413564354467454626807284
94,3535.44935976382800177030790273237619,3534.0,1.44935976382800177030790273237619
95,3611.05149213167790891139801088454777,3609.6,1.45149213167790891139801088454777
96,3687.45360213702289586449624753800414,3686.0,1.45360213702289586449624753800414
97,3764.65569024426317387249973281626163,3763.2,1.45569024426317387249973281626163
98,3842.65775690347609653627159364872528,3841.2,1.45775690347609653627159364872528
99,3921.45980255099933972737732276119598,3920.0,1.45980255099933972737732276119598
100,4001.06182760998469045138240267518585,3999.6,1.46182760998469045138240267518585
101,4081.46383249092420640700187845932035,4080.0,1.46383249092420640700187845932035
102,4162.66581759215038241167149862083720,4161.2,1.46581759215038241167149862083720
103,4244.66778330031185195049713151498835,4243.2,1.46778330031185195049713151498835
104,4327.46972999082604484082881425226317,4326.0,1.46972999082604484082881425226317
105,4411.07165802831012893094879874995698,4409.6,1.47165802831012893094879874995698
106,4495.47356776699147298711933586719768,4494.0,1.47356776699147298711933586719768
107,4580.67545955109878984128047705004444,4579.2,1.47545955109878984128047705004444
108,4666.67733371523503963213377768685659,4665.2,1.47733371523503963213377768685659
109,4753.47919058473310437881367844677701,4752.0,1.47919058473310437881367844677701
110,4841.08103047599518270622320612889243,4839.6,1.48103047599518270622320612889243
111,4929.48285369681678767991218127480310,4928.0,1.48285369681678767991218127480310
112,5018.68466054669618127474260414513084,5017.2,1.48466054669618127474260414513084
113,5108.68645131713002346579181890567742,5107.2,1.48645131713002346579181890567742
114,5199.48822629189596517218774389285042,5198.0,1.48822629189596517218774389285042
115,5291.08998574732287383606784400470622,5289.6,1.48998574732287383606784400470622
116,5383.49172995254933208720534141223094,5382.0,1.49172995254933208720534141223094
117,5476.69345916977101823083934922463951,5475.2,1.49345916977101823083934922463951
118,5570.69517365447753626514009983191374,5569.2,1.49517365447753626514009983191374
119,5665.49687365567922942102409028826581,5664.0,1.49687365567922942102409028826581
120,5761.09855941612448537479901178482568,5759.6,1.49855941612448537479901178482568
121,5857.50023117250800301687411863173173,5856.0,1.50023117250800301687411863173173
122,5954.70188915567047174663886326291646,5953.2,1.50188915567047174663886326291646
123,6052.70353359079008207068066083211698,6051.2,1.50353359079008207068066083211698
124,6151.50516469756626860170397057051528,6150.0,1.50516469756626860170397057051528
125,6251.10678269039605698924980131615388,6249.6,1.50678269039605698924980131615388
126,6351.50838777854337111601714493078316,6350.0,1.50838777854337111601714493078316
127,6452.70998016630163631570147613378260,6451.2,1.50998016630163631570147613378260
128,6554.71156005314999178107558032096232,6553.2,1.51156005314999178107558032096232
129,6657.51312763390341325779982376735913,6656.0,1.51312763390341325779982376735913
130,6761.11468309885702873758175242931388,6759.6,1.51468309885702873758175242931388
131,6865.51622663392489446018681895914883,6864.0,1.51622663392489446018681895914883
132,6970.71775842077348355660124071806202,6969.2,1.51775842077348355660124071806202
133,7076.71927863695012788406401698290449,7075.2,1.51927863695012788406401698290449
134,7183.52078745600664232772633225301567,7182.0,1.52078745600664232772633225301567
135,7291.12228504761834273535402073502735,7289.6,1.52228504761834273535402073502735
136,7399.52377157769866496395843550504398,7398.0,1.52377157769866496395843550504398
137,7508.72524720850957920929750962765944,7507.2,1.52524720850957920929750962765944
138,7618.72671209876798017719812843810402,7617.2,1.52671209876798017719812843810402
139,7729.52816640374823154974539105582141,7728.0,1.52816640374823154974539105582141
140,7841.12961027538102775341603433639290,7839.6,1.52961027538102775341603433639290
141,7953.53104386234873147874329222781475,7952.0,1.53104386234873147874329222781475
142,8066.73246731017733732783352247368983,8065.2,1.53246731017733732783352247368983
143,8180.73388076132520331588547707015343,8179.2,1.53388076132520331588547707015343
144,8295.53528435526868477322625281196820,8294.0,1.53528435526868477322625281196820
145,8411.13667822858480100661874000352623,8409.6,1.53667822858480100661874000352623
146,8527.53806251503105720984455424021244,8526.0,1.53806251503105720984455424021244
147,8644.73943734562253591060043472367799,8643.2,1.53943734562253591060043472367799
148,8762.74080284870637328271265176531132,8761.2,1.54080284870637328271265176531132
149,8881.54215915003372212459981725195922,8880.0,1.54215915003372212459981725195922
150,9001.14350637282930514483724029722337,8999.6,1.54350637282930514483724029722337
151,9121.54484463785865446905215902019368,9120.0,1.54484463785865446905215902019368
152,9242.74617406349312766729460577263589,9241.2,1.54617406349312766729460577263589
153,9364.74749476577278925155199602506237,9363.2,1.54749476577278925155199602506237
154,9487.54880685846724154262339469230065,9486.0,1.54880685846724154262339469230065
155,9611.15011045313448314231985544460548,9609.6,1.55011045313448314231985544460548
156,9735.55140565917787287732704430850377,9734.0,1.55140565917787287732704430850377
157,9860.75269258390127026130626183636599,9859.2,1.55269258390127026130626183636599
158,9986.75397133256242429330767036438840,9985.2,1.55397133256242429330767036438840
159,10113.5552420084246742653013650951265,10112.0,1.5552420084246742653013650951265
160,10241.1565047128070289163363471523361,10239.6,1.5565047128070289163363471523361
161,10369.5577595451326824294186514600081,10368.0,1.5577595451326824294186514600081
162,10498.7590066029760267321802312238773,10497.2,1.5590066029760267321802312238773
163,10628.7602459821082149546082631608624,10627.2,1.5602459821082149546082631608624
164,10759.5614777765413306804001150689976,10758.0,1.5614777765413306804001150689976
165,10891.1627020785712115921318825454505,10889.6,1.5627020785712115921318825454505
166,11023.5639189788189780257994918747831,11022.0,1.5639189788189780257994918747831
167,11156.7651285662713136670221099369864,11155.2,1.5651285662713136670221099369864
168,11290.7663309283195410777916171035344,11289.2,1.5663309283195410777916171035344
169,11425.5675261507975371158289501071173,11424.0,1.5675261507975371158289501071173
170,11561.1687143180185279896333320402023,11559.6,1.5687143180185279896333320402023
171,11697.5698955128108041436553504229531,11696.0,1.5698955128108041436553504229531
172,11834.7710698165523928402220382817956,11833.2,1.5710698165523928402220382817956
173,11972.7722373092047238405149380590298,11971.2,1.5722373092047238405149380590298
174,12111.5733980693453240280853079270983,12110.0,1.5733980693453240280853079270983
175,12251.1745521741995749598096812267085,12249.6,1.5745521741995749598096812267085
176,12391.5756996996715630506087504025959,12390.0,1.5756996996715630506087504025959
177,12532.7768407203740556524371704963996,12531.2,1.5768407203740556524371704963996
178,12674.7779753096576321819106053736731,12673.2,1.5779753096576321819106053736731
179,12817.5791035396389967414859381716480,12816.0,1.5791035396389967414859381716480
180,12961.1802254812285031805636097942168,12959.6,1.5802254812285031805636097942168
181,13105.5813412041569152450683164915399,13104.0,1.5813412041569152450683164915399
182,13250.7824507770014295108633763816184,13249.2,1.5824507770014295108633763816184
183,13396.7835542672109841502427705909025,13395.2,1.5835542672109841502427705909025
184,13543.5846517411308777730067176741888,13542.0,1.5846517411308777730067176741888
185,13691.1857432640267201502139672754424,13689.6,1.5857432640267201502139672754424
186,13839.5868289001077357891999481980728,13838.0,1.5868289001077357891999481980728
187,13988.7879087125494441603277498097713,13987.2,1.5879087125494441603277498097713
188,14138.7889827635157320117559453119698,14137.2,1.5889827635157320117559453119698
189,14289.5900511141803415032802918069236,14288.0,1.5900511141803415032802918069236
190,14441.1911138247477898102933425046041,14439.6,1.5911138247477898102933425046041
191,14593.5921709544737394203796505893383,14592.0,1.5921709544737394203796505893383
192,14746.7932225616848355047147481322267,14745.2,1.5932225616848355047147481322267
193,14900.7942687037980286680805761680725,14899.2,1.5942687037980286680805761680725
194,15055.5953094373393964182438759644097,15054.0,1.5953094373393964182438759644097
195,15211.1963448179624812870197716540984,15209.6,1.5963448179624812870197716540984
196,15367.5973749004661592948833375332741,15366.0,1.5973749004661592948833375332741
197,15524.7983997388120531344124987346873,15523.2,1.5983997388120531344124987346873
198,15682.7994193861415042345034820949669,15681.2,1.5994193861415042345034820949669
199,15841.6004338947921165391745233140176,15840.0,1.6004338947921165391745233140176
200,16001.2014433163138859411187824010208,15999.6,1.6014433163138859411187824010208
201,16161.6024477014849263463854523224699,16160.0,1.6024477014849263463854523224699
202,16322.8034471003268057463005125320890,16321.2,1.6034471003268057463005125320890
203,16484.8044415621195029513091692265570,16483.2,1.6044415621195029513091692265570
204,16647.6054311354159966016016848119875,16646.0,1.6054311354159966016016848119875
205,16811.2064158680564964198346589063598,16809.6,1.6064158680564964198346589063598
206,16975.6073958071823297246448389455047,16974.0,1.6073958071823297246448389455047
207,17140.8083709992494890755810022805431,17139.2,1.6083709992494890755810022805431
208,17306.8093414900418552708586848991257,17305.2,1.6093414900418552708586848991257
209,17473.6103073246841014407654386587375,17472.0,1.6103073246841014407654386587375
210,17641.2112685476542897323157355836018,17639.6,1.6112685476542897323157355836018
211,17809.6122252027961679441120700521193,17808.0,1.6122252027961679441120700521193
212,17978.8131773333311763385344013970523,17977.2,1.6131773333311763385344013970523
213,18148.8141249818701690091460599074305,18147.2,1.6141249818701690091460599074305
214,18319.6150681904248647789997016179806,18318.0,1.6150681904248647789997016179806
215,18491.2160070004190268360680678649444,18489.6,1.6160070004190268360680678649444
216,18663.6169414526993850602502475900233,18662.0,1.6169414526993850602502475900233
217,18836.8178715875463050009888880492438,18835.2,1.6178715875463050009888880492438
218,19010.8187974446842124779413470920728,19009.2,1.6187974446842124779413470920728
219,19185.6197190632917770776338218154628,19184.0,1.6197190632917770776338218154628
220,19361.2206364820118670542191016019349,19359.6,1.6206364820118670542191016019349
221,19537.6215497389612735366205428354290,19536.0,1.6215497389612735366205428354290
222,19714.8224588717402212394205517508912,19713.2,1.6224588717402212394205517508912
223,19892.8233639174416592383172846135966,19891.2,1.6233639174416592383172846135966
224,20071.6242649126603468694402184440170,20070.0,1.6242649126603468694402184440170
225,20251.2251618935017373090596454210830,20249.6,1.6251618935017373090596454210830
226,20431.6260548955906623716231079951573,20430.0,1.6260548955906623716231079951573
227,20612.8269439540798271689575087559423,20611.2,1.6269439540798271689575087559423
228,20794.8278291036581164408283942359408,20793.2,1.6278291036581164408283942359408
229,20977.6287103785587197089918577664245,20976.0,1.6287103785587197089918577664245
230,21161.2295878125670799409675718605872,21159.6,1.6295878125670799409675718605872
231,21345.6304614390286675127874080515758,21344.0,1.6304614390286675127874080515758
232,21530.8313312908565898796244224812459,21529.2,1.6313312908565898796244224812459
233,21716.8321974005390319397904697781427,21715.2,1.6321974005390319397904697781427
234,21903.6330598001465432381519835346652,21902.0,1.6330598001465432381519835346652
235,22091.2339185213391651800474775749814,22089.6,1.6339185213391651800474775749814
236,22279.6347735953734079544583482457606,22278.0,1.6347735953734079544583482457606
237,22468.8356250531090807865431281932978,22467.2,1.6356250531090807865431281932978
238,22658.8364729250159772505288961449129,22657.2,1.6364729250159772505288961449129
