Eigenstate,Energy,Kinetic Energy,Potential Energy
1,0.500000000030515374476152244740177461,0.0,0.500000000030515374476152244740177461
2,1.84623093785030300831661482647828428,1.2,0.64623093785030300831661482647828428
3,3.93633761029007496134641717794910417,3.2,0.73633761029007496134641717794910417
4,6.79966527903293263377940198029678356,6.0,0.79966527903293263377940198029678356
5,10.4480465773967102316603550381975058,9.6,0.8480465773967102316603550381975058
6,14.8870660001368746082402939870549122,14.0,0.8870660001368746082402939870549122
7,20.1197208286919714456989656299193324,19.2,0.9197208286919714456989656299193324
8,26.1477838494391485481344147596292430,25.2,0.9477838494391485481344147596292430
9,32.9723835613848064161314647885558072,32.0,0.9723835613848064161314647885558072
10,40.5942802186775964931591265662377375,39.6,0.9942802186775964931591265662377375
11,49.0140093914586140256503832579162615,48.0,1.0140093914586140256503832579162615
12,58.2319621750325316029254500810294241,57.2,1.0319621750325316029254500810294241
13,68.2484326994651919943246789398179596,67.2,1.0484326994651919943246789398179596
14,79.0636476624397702750651114189666682,78.0,1.0636476624397702750651114189666682
15,90.6777854450709590712733037246496015,89.6,1.0777854450709590712733037246496015
16,103.090988916775413918173152679868377,102.0,1.090988916775413918173152679868377
17,116.303374268733257885352989451159330,115.2,1.103374268733257885352989451159330
18,130.315037264894281321433548979951582,129.2,1.115037264894281321433548979951582
19,145.126057765081919733065499437909809,144.0,1.126057765081919733065499437909809
20,160.736503062627190457298299997489432,159.6,1.136503062627190457298299997489432
21,177.146430390450390034771001088181694,176.0,1.146430390450390034771001088181694
22,194.355888832219834504934199949360231,193.2,1.155888832219834504934199949360231
23,212.364920800288384194804457318501261,211.2,1.164920800288384194804457318501261
24,231.173563193093865988107963753742591,230.0,1.173563193093865988107963753742591
25,250.781848311954999807844258958902256,249.6,1.181848311954999807844258958902256
26,271.189804594878986442625704257704561,270.0,1.189804594878986442625704257704561
27,292.397457209524083445721702442003544,291.2,1.197457209524083445721702442003544
28,314.404828536558645026429080129829531,313.2,1.204828536558645026429080129829531
29,337.211938566863074031745100770472095,336.0,1.211938566863074031745100770472095
30,360.818805230371646546915659602066652,359.6,1.218805230371646546915659602066652
31,385.225444670205231143273718328219963,384.0,1.225444670205231143273718328219963
32,410.431871472668025217002938596756512,409.2,1.231871472668025217002938596756512
33,436.438098861371783058297471567465488,435.2,1.238098861371783058297471567465488
34,463.244138862000464024217551768314835,462.0,1.244138862000464024217551768314835
35,490.850002442889034122841639461723624,489.6,1.250002442889034122841639461723624
36,519.255699635556675437778305303851841,518.0,1.255699635556675437778305303851841
37,548.461239638530573273602494299964135,547.2,1.261239638530573273602494299964135
38,578.466630907166032159659709299092549,577.2,1.266630907166032159659709299092549
39,609.271881231670823200183283142638077,608.0,1.271881231670823200183283142638077
40,640.876997805145844475142763226794197,639.6,1.276997805145844475142763226794197
41,673.281987283137425922536630648692817,672.0,1.281987283137425922536630648692817
42,706.486855835941617531351559065058776,705.2,1.286855835941617531351559065058776
43,740.491609194694313329506809588138376,739.2,1.291609194694313329506809588138376
44,775.296252692112969635609471420217946,774.0,1.296252692112969635609471420217946
45,810.900791298618106474359266746808990,809.6,1.300791298618106474359266746808990
46,847.305229654449644772857046178517849,846.0,1.305229654449644772857046178517849
47,884.509572098299655342747469055639076,883.2,1.309572098299655342747469055639076
48,922.513822692905509288885128524796554,921.2,1.313822692905509288885128524796554
49,961.317985247982756941322820850424090,960.0,1.317985247982756941322820850424090
50,1000.92206334082293969377253334338428,999.6,1.32206334082293969377253334338428
51,1041.32606033483607216922164877289272,1040.0,1.32606033483607216922164877289272
52,1082.52997939627918691909117744377605,1081.2,1.32997939627918691909117744377605
53,1124.53382350937988374378003530806430,1123.2,1.33382350937988374378003530806430
54,1167.33759549003626459098597557873125,1166.0,1.33759549003626459098597557873125
55,1210.94129799825115949568426802183477,1209.6,1.34129799825115949568426802183477
56,1255.34493354943847445552206563977040,1254.0,1.34493354943847445552206563977040
57,1300.54850452472229317026908842153374,1299.2,1.34850452472229317026908842153374
58,1346.55201318033456738767586056601983,1345.2,1.35201318033456738767586056601983
59,1393.35546165620447665081677714479927,1392.0,1.35546165620447665081677714479927
60,1440.95885198382151373429420884190918,1439.6,1.35885198382151373429420884190918
61,1489.36218609344478782917618496838197,1488.0,1.36218609344478782917618496838197
62,1538.56546582072273653142759953357290,1537.2,1.36546582072273653142759953357290
63,1588.56869291278019579957499294639765,1587.2,1.36869291278019579957499294639765
64,1639.37186903382346456742353303810728,1638.0,1.37186903382346456742353303810728
65,1690.97499577030846585767253659778526,1689.6,1.37499577030846585767253659778526
66,1743.37807463571225890322223380193744,1742.0,1.37807463571225890322223380193744
67,1796.58110707494389449163906981889269,1795.2,1.38110707494389449163906981889269
68,1850.58409446842684958743863562220499,1849.2,1.38409446842684958743863562220499
69,1905.38703813588196461611884707722513,1904.0,1.38703813588196461611884707722513
70,1960.98993933983687852561213513775030,1959.6,1.38993933983687852561213513775030
71,2017.39279928888535803709463584852351,2016.0,1.39279928888535803709463584852351
72,2074.59561914071761925471054558161224,2073.2,1.39561914071761925471054558161224
73,2132.59840000494068679736662467487086,2131.2,1.39840000494068679736662467487086
74,2191.40114294570601676719907487313819,2190.0,1.40114294570601676719907487313819
75,2251.00384898415997876821218327059563,2249.6,1.40384898415997876821218327059563
76,2311.40651910073134263183288388360499,2310.0,1.40651910073134263183288388360499
77,2372.60915423726861310770742587495955,2371.2,1.40915423726861310770742587495955
78,2434.61175529903888997988614047650024,2433.2,1.41175529903888997988614047650024
79,2497.41432315659888424855010908243794,2496.0,1.41432315659888424855010908243794
80,2561.01685864754778289178910517564945,2559.6,1.41685864754778289178910517564945
81,2625.41936257817080538046362357375173,2624.0,1.41936257817080538046362357375173
82,2690.62183572498153366863027806469270,2689.2,1.42183572498153366863027806469270
83,2756.62427883617040864822020420071488,2755.2,1.42427883617040864822020420071488
84,2823.42669263296616176494397465858661,2822.0,1.42669263296616176494397465858661
85,2891.02907781091639121622287363097316,2889.6,1.42907781091639121622287363097316
86,2959.43143504109297628655698315437352,2958.0,1.43143504109297628655698315437352
87,3028.63376497122756590494076729787458,3027.2,1.43376497122756590494076729787458
88,3098.63606822678195413120103534943745,3097.2,1.43606822678195413120103534943745
89,3169.43834541195777177597071481633244,3168.0,1.43834541195777177597071481633244
90,3241.04059711064958014228255222688469,3239.6,1.44059711064958014228255222688469
91,3313.44282388734513142471619456887794,3312.0,1.44282388734513142471619456887794
92,3386.64502628797627200449292203250005,3385.2,1.44502628797627200449292203250005
93,3460.64720484072370262385669641670483,3459.2,1.44720484072370262385669641670483
94,3535.44936005677856649434207344996783,3534.0,1.44936005677856649434207344996783
95,3611.05149243106361523950051205267834,3609.6,1.45149243106361523950051205267834
96,3687.45360244291650075054013300739034,3686.0,1.45360244291650075054013300739034
97,3764.65569055673755669122448558629048,3763.2,1.45569055673755669122448558629048
98,3842.65775722260426051408100748641233,3841.2,1.45775722260426051408100748641233
99,3921.45980287685441337778088269945637,3920.0,1.45980287685441337778088269945637
100,4001.06182794263992901513582242949120,3999.6,1.46182794263992901513582242949120
101,4081.46383283045299329700286692953082,4080.0,1.46383283045299329700286692953082
102,4162.66581793862623066266721911858452,4161.2,1.46581793862623066266721911858452
103,4244.66778365380840567366016797073989,4243.2,1.46778365380840567366016797073989
104,4327.46973035141708068325891900673095,4326.0,1.46973035141708068325891900673095
105,4411.07165839606955754015800288155652,4409.6,1.47165839606955754015800288155652
106,4495.47356814199334048055844748580567,4494.0,1.47356814199334048055844748580567
107,4580.67545993341727928096533414977924,4579.2,1.47545993341727928096533414977924
108,4666.67733410494447250443004332299417,4665.2,1.47733410494447250443004332299417
109,4753.47919098190794207943932968301590,4752.0,1.47919098190794207943932968301590
110,4841.08103088071002803052826291147357,4839.6,1.48103088071002803052826291147357
111,4929.48285410914638631849559977495942,4928.0,1.48285410914638631849559977495942
112,5018.68466096671542331446666699448843,5017.2,1.48466096671542331446666699448843
113,5108.68645174491394489625472592846015,5107.2,1.48645174491394489625472592846015
114,5199.48822672751974939771549883977492,5198.0,1.48822672751974939771549883977492
115,5291.08998619086185319328696163612081,5289.6,1.48998619086185319328696163612081
116,5383.49173040407898936825824301171725,5382.0,1.49173040407898936825824301171725
117,5476.69345962936698821230475287238628,5475.2,1.49345962936698821230475287238628
118,5570.69517412221560724272110786000777,5569.2,1.49517412221560724272110786000777
119,5665.49687413163534475006706099384247,5664.0,1.49687413163534475006706099384247
120,5761.09855990037474501670673962008349,5759.6,1.49855990037474501670673962008349
121,5857.50023166512866509147723414291332,5856.0,1.50023166512866509147723414291332
122,5954.70188965673795409058979342965261,5953.2,1.50188965673795409058979342965261
123,6052.70353410038096380193490230505091,6051.2,1.50353410038096380193490230505091
124,6151.50516521575729169015384095229222,6150.0,1.50516521575729169015384095229222
125,6251.10678321726412783357628291337140,6249.6,1.50678321726412783357628291337140
126,6351.50838831416556212682584425937835,6350.0,1.50838831416556212682584425937835
127,6452.70998071075518750500914213097430,6451.2,1.50998071075518750500914213097430
128,6554.71156060651231235821410693330397,6553.2,1.51156060651231235821410693330397
129,6657.51312819625208323180506136962643,6656.0,1.51312819625208323180506136962643
130,6761.11468367026980052613491569113086,6759.6,1.51468367026980052613491569113086
131,6865.51622721447969450517669112892791,6864.0,1.51622721447969450517669112892791
132,6970.71775901054841394637594929430449,6969.2,1.51775901054841394637594929430449
133,7076.71927923602346798244141605059033,7075.2,1.51927923602346798244141605059033
134,7183.52078806445685040983267442734852,7182.0,1.52078806445685040983267442734852
135,7291.12228566552405763036098812293064,7289.6,1.52228566552405763036098812293064
136,7399.52377220513870770478902856781882,7398.0,1.52377220513870770478902856781882
137,7508.72524784556295468937187350594190,7507.2,1.52524784556295468937187350594190
138,7618.72671274551387881429079535842801,7617.2,1.52671274551387881429079535842801
139,7729.52816706026603095702594569657393,7728.0,1.52816706026603095702594569657393
140,7841.12961094175029441774568254491741,7839.6,1.52961094175029441774568254491741
141,7953.53104453864922244630032281920873,7952.0,1.53104453864922244630032281920873
142,8066.73246799648900189714115156820277,8065.2,1.53246799648900189714115156820277
143,8180.73388145772818473831603552613014,8179.2,1.53388145772818473831603552613014
144,8295.53528506184332196105629806886102,8294.0,1.53528506184332196105629806886102
145,8411.13667894541163024871002833652432,8409.6,1.53667894541163024871002833652432
146,8527.53806324219081389502650848482890,8526.0,1.53806324219081389502650848482890
147,8644.73943808319615625883013053532589,8643.2,1.53943808319615625883013053532589
148,8762.74080359677499608408897095518972,8761.2,1.54080359677499608408897095518972
149,8881.54215990867869048630891022293860,8880.0,1.54215990867869048630891022293860
150,9001.14350714213216824610699078479857,8999.6,1.54350714213216824610699078479857
151,9121.54484541790116932419395812286264,9120.0,1.54484541790116932419395812286264
152,9242.74617485435726089691119994747371,9241.2,1.54617485435726089691119994747371
153,9364.74749556754071886199081365854488,9363.2,1.54749556754071886199081365854488
154,9487.54880767122135871375530959936982,9486.0,1.54880767122135871375530959936982
155,9611.15011127695739402372389245802644,9609.6,1.55011127695739402372389245802644
156,9735.55140649415240039296219689047868,9734.0,1.55140649415240039296219689047868
157,9860.75269343011045592275205080714203,9859.2,1.55269343011045592275205080714203
158,9986.75397219008953002165579018918632,9985.2,1.55397219008953002165579018918632
159,10113.5552428773531842217813285081036,10112.0,1.5552428773531842217813285081036
160,10241.1565055932206513417586076429456,10239.6,1.5565055932206513417586076429456
161,10369.5577604371153514925193438491574,10368.0,1.5577604371153514925193438491574
162,10498.7590075066119043869523211244297,10497.2,1.5590075066119043869523211244297
163,10628.7602468974816928067044145345930,10627.2,1.5602468974816928067044145345930
164,10759.5614787037370318626933244231597,10758.0,1.5614787037370318626933244231597
165,10891.1627030176739926495205741336836,10889.6,1.5627030176739926495205741336836
166,11023.5639199299139308093443414702192,11022.0,1.5639199299139308093443414702192
167,11156.7651295294437672375025569063532,11155.2,1.5651295294437672375025569063532
168,11290.7663319036550636187707301278773,11289.2,1.5663319036550636187707301278773
169,11425.5675271383819378563159151550495,11424.0,1.5675271383819378563159151550495
170,11561.1687153179378591364335895639868,11559.6,1.5687153179378591364335895639868
171,11697.5698965251513628234989808114064,11696.0,1.5698965251513628234989808114064
172,11834.7710708414007230517618399932109,11833.2,1.5710708414007230517618399932109
173,11972.7722383466476184162861695198774,11971.2,1.5722383466476184162861695198774
174,12111.5733991194698266065199537563992,12110.0,1.5733991194698266065199537563992
175,12251.1745532370929819673986634636973,12249.6,1.5745532370929819673986634636973
176,12391.5757007754214256943063235491414,12390.0,1.5757007754214256943063235491414
177,12532.7768418090681819224024464855259,12531.2,1.5768418090681819224024464855259
178,12674.7779764113840888646818725294679,12673.2,1.5779764113840888646818725294679
179,12817.5791046544861114436842435457399,12816.0,1.5791046544861114436842435457399
180,12961.1802266092848663632227634109579,12959.6,1.5802266092848663632227634109579
181,13105.5813423455113822686892663022924,13104.0,1.5813423455113822686892663022924
182,13250.7824519317431226912917119915453,13249.2,1.5824519317431226912917119915453
183,13396.7835554354292948254688089903285,13395.2,1.5835554354292948254688089903285
184,13543.5846529229154683809884918174424,13542.0,1.5846529229154683809884918174424
185,13691.1857444594675263178243149173983,13689.6,1.5857444594675263178243149173983
186,13839.5868301092949684323993815607989,13838.0,1.5868301092949684323993815607989
187,13988.7879099355735915956660471486492,13987.2,1.5879099355735915956660471486492
188,14138.7889840004675620793058530335907,14137.2,1.5889840004675620793058530335907
189,14289.5900523651509037011077887987032,14288.0,1.5900523651509037011077887987032
190,14441.1911150898284174405696745967361,14439.6,1.5911150898284174405696745967361
191,14593.5921722337560517472411601231829,14592.0,1.5921722337560517472411601231829
192,14746.7932238552607399239775095030658,14745.2,1.5932238552607399239775095030658
193,14900.7942700117597228889175503335898,14899.2,1.5942700117597228889175503335898
194,15055.5953107597793706569333564053106,15054.0,1.5953107597793706569333564053106
195,15211.1963461549735204728746146102924,15209.6,1.5963461549735204728746146102924
196,15367.5973762521413452884714672658711,15366.0,1.5973762521413452884714672658711
197,15524.7984011052447669581800863852872,15523.2,1.5984011052447669581800863852872
198,15682.7994207674254283159130820817679,15681.2,1.5994207674254283159130820817679
199,15841.6004352910212369664713844106791,15840.0,1.6004352910212369664713844106791
200,16001.2014447275824947318395363721362,15999.6,1.6014447275824947318395363721362
201,16161.6024491278876237287242042280216,16160.0,1.6024491278876237287242042280216
202,16322.8034485419585024534485202501848,16321.2,1.6034485419585024534485202501848
203,16484.8044430190754225288850746995344,16483.2,1.6044430190754225288850746995344
204,16647.6054326077916777282903540565436,16646.0,1.6054326077916777282903540565436
205,16811.2064173559477952413536014039947,16809.6,1.6064173559477952413536014039947
206,16975.6073973106854222011582986370940,16974.0,1.6073973106854222011582986370940
207,17140.8083725184608733426826624943319,17139.2,1.6083725184608733426826624943319
208,17306.8093430250583540142451000359371,17305.2,1.6093430250583540142451000359371
209,17473.6103088756028642847232410648833,17472.0,1.6103088756028642847232410648833
210,17641.2112701145727956421468135141473,17639.6,1.6112701145727956421468135141473
211,17809.6122267858122276426217987033042,17808.0,1.6122267858122276426217987033042
212,17978.8131789325429347367092880072888,17977.2,1.6131789325429347367092880072888
213,18148.8141265973761076511480868058662,18147.2,1.6141265973761076511480868058662
214,18319.6150698223238043016058064359414,18318.0,1.6150698223238043016058064359414
215,18491.2160086488101294426843270358968,18489.6,1.6160086488101294426843270358968
216,18663.6169431176821570096313843053287,18662.0,1.6169431176821570096313843053287
217,18836.8178732692205991107949065120065,18835.2,1.6178732692205991107949065120065
218,19010.8187991431502306432642049698064,19009.2,1.6187991431502306432642049698064
219,19185.6197207786500728046282142830711,19184.0,1.6197207786500728046282142830711
220,19361.2206382143633480089726068293005,19359.6,1.6206382143633480089726068293005
221,19537.6215514884072041093995501645997,19536.0,1.6215514884072041093995501645997
222,19714.8224606383822251244296038674539,19713.2,1.6224606383822251244296038674539
223,19892.8233657013817220291106100687765,19891.2,1.6233657013817220291106100687765
224,20071.6242667140008186701255264021599,20070.0,1.6242667140008186701255264021599
225,20251.2251637123453353614354455849705,20249.6,1.6251637123453353614354455849705
226,20431.6260567320404736983920542156869,20430.0,1.6260567320404736983920542156869
227,20612.8269458082393112331595413874886,20611.2,1.6269458082393112331595413874886
228,20794.8278309756311078216387441613324,20793.2,1.6278309756311078216387441613324
229,20977.6287122684494307940302430723241,20976.0,1.6287122684494307940302430723241
230,21161.2295897204801036352661561985120,21159.6,1.6295897204801036352661561985120
231,21345.6304633650689799645665451032517,21344.0,1.6304633650689799645665451032517
232,21530.8313332351295532230264518338560,21529.2,1.6313332351295532230264518338560
233,21716.8321993631503970547231319591153,21715.2,1.6321993631503970547231319591153
234,21903.6330617812024525273944879427387,21902.0,1.6330617812024525273944879427387
235,22091.2339205209461553637735388916030,22089.6,1.6339205209461553637735388916030
236,22279.6347756136384128823319196717281,22278.0,1.6347756136384128823319196717281
237,22468.8356270901394342675440680151047,22467.2,1.6356270901394342675440680151047
238,22658.8364749809194159006670290359421,22657.2,1.6364749809194159006670290359421
