Eigenstate,Energy,Kinetic Energy,Potential Energy
1,0.500000000019568055141073621277069249,0.0,0.500000000019568055141073621277069249
2,1.84623093777884462397636433281517368,1.2,0.64623093777884462397636433281517368
3,3.93633761008017177449641367412222321,3.2,0.73633761008017177449641367412222321
4,6.79966527859572840911678857902073577,6.0,0.79966527859572840911678857902073577
5,10.4480465766393833685436434430381057,9.6,0.8480465766393833685436434430381057
6,14.8870659989649792230365288726379264,14.0,0.8870659989649792230365288726379264
7,20.1197208270103001418988024951357436,19.2,0.9197208270103001418988024951357436
8,26.1477838471520924033170993649182220,25.2,0.9477838471520924033170993649182220
9,32.9723835583965225380804404903648551,32.0,0.9723835583965225380804404903648551
10,40.5942802148920932111000592105653114,39.6,0.9942802148920932111000592105653114
11,49.0140093867797973079460125465461493,48.0,1.0140093867797973079460125465461493
12,58.2319621693642317164371551313639511,57.2,1.0319621693642317164371551313639511
13,68.2484326927111794073370769322060701,67.2,1.0484326927111794073370769322060701
14,79.0636476545037653699360862501836516,78.0,1.0636476545037653699360862501836516
15,90.6777854358566381226776874692047698,89.6,1.0777854358566381226776874692047698
16,103.090988906186412725641484525849910,102.0,1.090988906186412725641484525849910
17,116.303374256673173880019797665776173,115.2,1.103374256673173880019797665776173
18,130.315037251266674649608783722877676,129.2,1.115037251266674649608783722877676
19,145.126057749790313635037006815911167,144.0,1.126057749790313635037006815911167
20,160.736503045575071149015518836920354,159.6,1.136503045575071149015518836920354
21,177.146430371541206231361323450004375,176.0,1.146430371541206231361323450004375
22,194.355888811356996681194469632113330,193.2,1.155888811356996681194469632113330
23,212.364920777375263649170223207002455,211.2,1.164920777375263649170223207002455
24,231.173563168033793757455963317027505,230.0,1.173563168033793757455963317027505
25,250.781848284651265467420635130616999,249.6,1.181848284651265467420635130616999
26,271.189804565234836816314606114472122,270.0,1.189804565234836816314606114472122
27,292.397457177442721245453412056014397,291.2,1.197457177442721245453412056014397
28,314.404828501943227434922439720819804,313.2,1.204828501943227434922439720819804
29,337.211938529616711239427354253403190,336.0,1.211938529616711239427354253403190
30,360.818805190397400251390982371743359,359.6,1.218805190397400251390982371743359
31,385.225444627406113017866586460901148,384.0,1.225444627406113017866586460901148
32,410.431871426946995353509685765785942,409.2,1.231871426946995353509685765785942
33,436.438098812631748388017011667128636,435.2,1.238098812631748388017011667128636
34,463.244138810144276720514026449193192,462.0,1.244138810144276720514026449193192
35,490.850002387819489987855831281525177,489.6,1.250002387819489987855831281525177
36,519.255699577176512275406231938579647,518.0,1.255699577176512275406231938579647
37,548.461239576742469250465799771960343,547.2,1.261239576742469250465799771960343
38,578.466630841872604155479017773888159,577.2,1.266630841872604155479017773888159
39,609.271881162774625148714426354935745,608.0,1.271881162774625148714426354935745
40,640.876997732549365696633028317839113,639.6,1.276997732549365696633028317839113
41,673.281987206743089448493549996757943,672.0,1.281987206743089448493549996757943
42,706.486855755651778422282286779665998,705.2,1.286855755651778422282286779665998
43,740.491609110411256986175641363279344,739.2,1.291609110411256986175641363279344
44,775.296252603738910104269863003319124,774.0,1.296252603738910104269863003319124
45,810.900791206055184746340966622788757,809.6,1.300791206055184746340966622788757
46,847.305229557599927078825798764385589,846.0,1.305229557599927078825798764385589
47,884.509571997065131441901829622283048,883.2,1.309571997065131441901829622283048
48,922.513822587188090753310372886449583,921.2,1.313822587188090753310372886449583
49,961.317985137684275435684294274910355,960.0,1.317985137684275435684294274910355
50,1000.92206322584514525049883618862004,999.6,1.32206322584514525049883618862004
51,1041.32606021508063145930080952878035,1040.0,1.32606021508063145930080952878035
52,1082.52997927164768151857970607093571,1081.2,1.32997927164768151857970607093571
53,1124.53382337977380839610475460889297,1123.2,1.33382337977380839610475460889297
54,1167.33759535535702546510131461937465,1166.0,1.33759535535702546510131461937465
55,1210.94129785840007244013282630196167,1209.6,1.34129785840007244013282630196167
56,1255.34493340431676324843334784826304,1254.0,1.34493340431676324843334784826304
57,1300.54850437423108776532010741359664,1299.2,1.34850437423108776532010741359664
58,1346.55201302437490215602745910065493,1345.2,1.35201302437490215602745910065493
59,1393.35546149467728861903099927594578,1392.0,1.35546149467728861903099927594578
60,1440.95885181662764081823048200045782,1439.6,1.35885181662764081823048200045782
61,1489.36218592048496706385745133869983,1488.0,1.36218592048496706385745133869983
62,1538.56546564189760229686166135755211,1537.2,1.36546564189760229686166135755211
63,1588.56869272799027804251115278196329,1587.2,1.36869272799027804251115278196329
64,1639.37186884296918701902000223781129,1638.0,1.37186884296918701902000223781129
65,1690.97499557329014424704594008407087,1689.6,1.37499557329014424704594008407087
66,1743.37807443243009916684688406083995,1742.0,1.37807443243009916684688406083995
67,1796.58110686529799097856037851765463,1795.2,1.38110686529799097856037851765463
68,1850.58409425231718326026207491520851,1849.2,1.38409425231718326026207491520851
69,1905.38703791320840124773314945729313,1904.0,1.38703791320840124773314945729313
70,1960.98993911049916689160309652451700,1959.6,1.38993911049916689160309652451700
71,2017.39279905278312810380356255282202,2016.0,1.39279905278312810380356255282202
72,2074.59561889775038036288950848240709,2073.2,1.39561889775038036288950848240709
73,2132.59839975500782584138076895657230,2131.2,1.39839975500782584138076895657230
74,2191.40114268870679636972461042271543,2190.0,1.40114268870679636972461042271543
75,2251.00384871999353545037710411664917,2249.6,1.40384871999353545037710411664917
76,2311.40651882929668497874609961017785,2310.0,1.40651882929668497874609961017785
77,2372.60915395846461992932063421999929,2371.2,1.40915395846461992932063421999929
78,2434.61175501276430846713155995142863,2433.2,1.41175501276430846713155995142863
79,2497.41432286275232812469606826047928,2496.0,1.41432286275232812469606826047928
80,2561.01685834602773055895443230513647,2559.6,1.41685834602773055895443230513647
81,2625.41936226887559806123076337544571,2624.0,1.41936226887559806123076337544571
82,2690.62183540780937354269615140296822,2689.2,1.42183540780937354269615140296822
83,2756.62427851101935698402293405318280,2755.2,1.42427851101935698402293405318280
84,2823.42669229973413704620277895198726,2822.0,1.42669229973413704620277895198726
85,2891.02907746950116726332760222730024,2889.6,1.42907746950116726332760222730024
86,2959.43143469139218037274307817415737,2958.0,1.43143469139218037274307817415737
87,3028.63376461313867686718464065634926,3027.2,1.43376461313867686718464065634926
88,3098.63606786020230047577019963816001,3097.2,1.43606786020230047577019963816001
89,3169.43834503678452977856233203442299,3168.0,1.43834503678452977856233203442299
90,3241.04059672677977194268342301831078,3239.6,1.44059672677977194268342301831078
91,3313.44282349467562311591657944431567,3312.0,1.44282349467562311591657944431567
92,3386.64502588640377171618598451470806,3385.2,1.44502588640377171618598451470806
93,3460.64720443014475860025478199545940,3459.2,1.44720443014475860025478199545940
94,3535.44935963708956516624044789577624,3534.0,1.44935963708956516624044789577624
95,3611.05149200216077929051861895283152,3609.6,1.45149200216077929051861895283152
96,3687.45360200469588717746992379586302,3686.0,1.45360200469588717746992379586302
97,3764.65569010909505485841475943233294,3763.2,1.45569010909505485841475943233294
98,3842.65775676543559020178624519397754,3841.2,1.45775676543559020178624519397754
99,3921.45980241005512282440247265099445,3920.0,1.45980241005512282440247265099445
100,4001.06182746610539295328310109169140,3999.6,1.46182746610539295328310109169140
101,4081.46383234407841098330086146245512,4080.0,1.46383234407841098330086146245512
102,4162.66581744230662390123746017380447,4161.2,1.46581744230662390123746017380447
103,4244.66778314743861683320050203513279,4243.2,1.46778314743861683320050203513279
104,4327.46972983489177070764762861159278,4326.0,1.46972983489177070764762861159278
105,4411.07165786928320395250716541748339,4409.6,1.47165786928320395250716541748339
106,4495.47356760484023538064088121396065,4494.0,1.47356760484023538064088121396065
107,4580.67545938579152733593903007658542,4579.2,1.47545938579152733593903007658542
108,4666.67733354673998893278346748128053,4665.2,1.47733354673998893278346748128053
109,4753.47919041301845062808046523345266,4752.0,1.47919041301845062808046523345266
110,4841.08103030102905894493980225517188,4839.6,1.48103030102905894493980225517188
111,4929.48285351856727430587817444614730,4928.0,1.48285351856727430587817444614730
112,5018.68466036513130549979149346175986,5017.2,1.48466036513130549979149346175986
113,5108.68645113221775877114657974870140,5107.2,1.48645113221775877114657974870140
114,5199.48822610360423076208640339302706,5198.0,1.48822610360423076208640339302706
115,5291.08998555561953408964045318185667,5289.6,1.48998555561953408964045318185667
116,5383.49172975740219600858361353786283,5382.0,1.49172975740219600858361353786283
117,5476.69345897114783889748013047693326,5475.2,1.49345897114783889748013047693326
118,5570.69517345234601027434371202726061,5569.2,1.49517345234601027434371202726061
119,5665.49687345000699633462849343497478,5664.0,1.49687345000699633462849343497478
120,5761.09855920687912716203060623648326,5759.6,1.49855920687912716203060623648326
121,5857.50023095965704349533590182413007,5856.0,1.50023095965704349533590182413007
122,5954.70188893918137602141653371524456,5953.2,1.50188893918137602141653371524456
123,6052.70353337063025597154716494784769,6051.2,1.50353337063025597154716494784769
124,6151.50516447370305811840285838019667,6150.0,1.50516447370305811840285838019667
125,6251.10678246279674770483764465959050,6249.6,1.50678246279674770483764465959050
126,6351.50838754717518763824516006792845,6350.0,1.50838754717518763824516006792845
127,6452.70997993113174170641637759564750,6451.2,1.50997993113174170641637759564750
128,6554.71155981414548698361955786191116,6553.2,1.51155981414548698361955786191116
129,6657.51312739103133652238944509702448,6656.0,1.51312739103133652238944509702448
130,6761.11468285208435504464544856013659,6759.6,1.51468285208435504464544856013659
131,6865.51622638321853494164050027073195,6864.0,1.51622638321853494164050027073195
132,6970.71775816610028491504146659003904,6969.2,1.51775816610028491504146659003904
133,7076.71927837827687180985803349839659,7075.2,1.51927837827687180985803349839659
134,7183.52078719330004491397814113332788,7182.0,1.52078719330004491397814113332788
135,7291.12228478084505389072553616415403,7289.6,1.52228478084505389072553616415403
136,7399.52377130682526782332467885245978,7398.0,1.52377130682526782332467885245978
137,7508.72524693350258954221461176414277,7507.2,1.52524693350258954221461176414277
138,7618.72671181959384579416284632409353,7617.2,1.52671181959384579416284632409353
139,7729.52816612037333170622465480827493,7728.0,1.52816612037333170622465480827493
140,7841.12960998777167255162494790646142,7839.6,1.52960998777167255162494790646142
141,7953.53104357047116126714990926104294,7952.0,1.53104357047116126714990926104294
142,8066.73246701399772209836848710973437,8065.2,1.53246701399772209836848710973437
143,8180.73388046080964209883460919024503,8179.2,1.53388046080964209883460919024503
144,8295.53528405038320502978389353087534,8294.0,1.53528405038320502978389353087534
145,8411.13667791929535801907965745754294,8409.6,1.53667791929535801907965745754294
146,8527.53806220130353346941199965757245,8526.0,1.53806220130353346941199965757245
147,8644.73943702742274050278781575400013,8643.2,1.53943702742274050278781575400013
148,8762.74080252600004127031615423301153,8761.2,1.54080252600004127031615423301153
149,8881.54215882278651392821916161452173,8880.0,1.54215882278651392821916161452173
150,9001.14350604100680592092162769868283,8999.6,1.54350604100680592092162769868283
151,9121.54484430142637348544828558465758,9120.0,1.54484430142637348544828558465758
152,9242.74617372241649767627351904420239,9241.2,1.54617372241649767627351904420239
153,9364.74749442001716586029138454478612,9363.2,1.54749442001716586029138454478612
154,9487.54880650799790258112177929762070,9486.0,1.54880650799790258112177929762070
155,9611.15011009791662802871900257488708,9609.6,1.55011009791662802871900257488708
156,9735.55140529917662198061870465424118,9734.0,1.55140529917662198061870465424118
157,9860.75269221908166426139929866542586,9859.2,1.55269221908166426139929866542586
158,9986.75397096288942353843138288844962,9985.2,1.55397096288942353843138288844962
159,10113.5552416338631581267207267040762,10112.0,1.5552416338631581267207267040762
160,10241.1565043333217951403546758382554,10239.6,1.5565043333217951403546758382554
161,10369.5577591606884464866430706386863,10368.0,1.5577591606884464866430706386863
162,10498.7590062135374211640251627691017,10497.2,1.5590062135374211640251627691017
163,10628.7602455876397887170119987264662,10627.2,1.5602455876397887170119987264662
164,10759.5614773770075484847293288333378,10758.0,1.5614773770075484847293288333378
165,10891.1627016739364532432488183640796,10889.6,1.5627016739364532432488183640796
166,11023.5639185690475377572663897704630,11022.0,1.5639185690475377572663897704630
167,11156.7651281513273994734172305958665,11155.2,1.5651281513273994734172305958665
168,11290.7663305081672740441110811061467,11289.2,1.5663305081672740441110811061467
169,11425.5675257254009507439484418868718,11424.0,1.5675257254009507439484418868718
170,11561.1687138873415675218035268244702,11559.6,1.5687138873415675218035268244702
171,11697.5698950768173258830047432977674,11696.0,1.5698950768173258830047432977674
172,11834.7710693752061634682406981145887,11833.2,1.5710693752061634682406981145887
173,11972.7722368624694197314925016084068,11971.2,1.5722368624694197314925016084068
174,12111.5733976171845305604763846751335,12110.0,1.5733976171845305604763846751335
175,12251.1745517165767858244996131251132,12249.6,1.5745517165767858244996131251132
176,12391.5756992365501795560525064121539,12390.0,1.5756992365501795560525064121539
177,12532.7768402517173860266439726703337,12531.2,1.5768402517173860266439726703337
178,12674.7779748354288908712467117336872,12673.2,1.5779748354288908712467117336872
179,12817.5791030598013037062677392035101,12816.0,1.5791030598013037062677392035101
180,12961.1802249957448831874131269134716,12959.6,1.5802249957448831874131269134716
181,13105.5813407129902971560028699272730,13104.0,1.5813407129902971560028699272730
182,13250.7824502801146455690910830154861,13249.2,1.5824502801146455690910830154861
183,13396.7835537645667692626352782552375,13395.2,1.5835537645667692626352782552375
184,13543.5846512326918687892204260798272,13542.0,1.5846512326918687892204260798272
185,13691.1857427497554551384307501731192,13689.6,1.5857427497554551384307501731192
186,13839.5868283799666533084581892545303,13838.0,1.5868283799666533084581892545303
187,13988.7879081865008825294143199492789,13987.2,1.5879081865008825294143199492789
188,14138.7889822315219285746295137439527,14137.2,1.5889822315219285746295137439527
189,14289.5900505762034318909961880175653,14288.0,1.5900505762034318909961880175653
190,14441.1911132807498071993999152563988,14439.6,1.5911132807498071993999152563988
191,14593.5921704044166137877558953356939,14592.0,1.5921704044166137877558953356939
192,14746.7932220055303928788187987370375,14745.2,1.5932220055303928788187987370375
193,14900.7942681415079903765783092421450,14899.2,1.5942681415079903765783092421450
194,15055.5953088688753783319868016438892,15054.0,1.5953088688753783319868016438892
195,15211.1963442432859930603410607699605,15209.6,1.5963442432859930603410607699605
196,15367.5973743195386036021806423320683,15366.0,1.5973743195386036021806423320683
197,15524.7983991515947249029859895364662,15523.2,1.5983991515947249029859895364662
198,15682.7994187925955898736173381742434,15681.2,1.5994187925955898736173381742434
199,15841.6004332948786931653097686886101,15840.0,1.6004332948786931653097686886101
200,16001.2014427099939205993852523512119,15999.6,1.6014427099939205993852523512119
201,16161.6024470887192752280603585289806,16160.0,1.6024470887192752280603585289806
202,16322.8034464810762134024608523909014,16321.2,1.6034464810762134024608523909014
203,16484.8044409363446015025249863228882,16483.2,1.6044409363446015025249863228882
204,16647.6054305030773049436569485241185,16646.0,1.6054305030773049436569485241185
205,16811.2064152291144194254422774630367,16809.6,1.6064152291144194254422774630367
206,16975.6073951615971574411220540575541,16974.0,1.6073951615971574411220540575541
207,17140.8083703469813959184512074179364,17139.2,1.6083703469813959184512074179364
208,17306.8093408310508992133453801295989,17305.2,1.6093408310508992133453801295989
209,17473.6103066589302231991438507557036,17472.0,1.6103066589302231991438507557036
210,17641.2112678750973119470873291105675,17639.6,1.6112678750973119470873291105675
211,17809.6122245233957943569669077958183,17808.0,1.6122245233957943569669077958183
212,17978.8131766470469909650661297352610,17977.2,1.6131766470469909650661297352610
213,18148.8141242886616353072838685891345,18147.2,1.6141242886616353072838685891345
214,18319.6150674902513248131214587888985,18318.0,1.6150674902513248131214587888985
215,18491.2160062932397004367585808325493,18489.6,1.6160062932397004367585808325493
216,18663.6169407384733689796681964263020,18662.0,1.6169407384733689796681964263020
217,18836.8178708662325720638058007160671,18835.2,1.6178708662325720638058007160671
218,19010.8187967162416107278156980050867,19009.2,1.6187967162416107278156980050867
219,19185.6197183276790289191829761013932,19184.0,1.6197183276790289191829761013932
220,19361.2206357391875683904516364757842,19359.6,1.6206357391875683904516364757842
221,19537.6215489888838929017911254912191,19536.0,1.6215489888838929017911254912191
222,19714.8224581143680989272692693220754,19713.2,1.6224581143680989272692693220754
223,19892.8233631527330064256550220637300,19891.2,1.6233631527330064256550220637300
224,20071.6242641405732447350414422582682,20070.0,1.6242641405732447350414422582682
225,20251.2251611139941361478235304278883,20249.6,1.6251611139941361478235304278883
226,20431.6260541086203807039637318406096,20430.0,1.6260541086203807039637318406096
227,20612.8269431596045508453835189176140,20611.2,1.6269431596045508453835189176140
228,20794.8278283016353977416722100555201,20793.2,1.6278283016353977416722100555201
229,20977.6287095689459764392481907232452,20976.0,1.6287095689459764392481907232452
230,21161.2295869953215945202006681112736,21159.6,1.6295869953215945202006681112736
231,21345.6304606141075860600661636668815,21344.0,1.6304606141075860600661636668815
232,21530.8313304582169212934441964753206,21529.2,1.6313304582169212934441964753206
233,21716.8321965601376469729400118085797,21715.2,1.6321965601376469729400118085797
234,21903.6330589519401735674836455563769,21902.0,1.6330589519401735674836455563769
235,22091.2339176652844024711085218061405,22089.6,1.6339176652844024711085218061405
236,22279.6347727314267029209408342598724,22278.0,1.6347727314267029209408342598724
237,22468.8356241812267422445094564202070,22467.2,1.6356241812267422445094564202070
238,22658.8364720451541711673698489711820,22657.2,1.6364720451541711673698489711820
