Eigenstate,Energy,Kinetic Energy,Potential Energy
1,0.500000000441706132958521362064123803,0.0,0.500000000441706132958521362064123803
2,1.84623094053438514215719365160434528,1.2,0.64623094053438514215719365160434528
3,3.93633761817454645639499371842798656,3.2,0.73633761817454645639499371842798656
4,6.79966529545594811043792194103327907,6.0,0.79966529545594811043792194103327907
5,10.4480466058459735290418407826117986,9.6,0.8480466058459735290418407826117986
6,14.8870660441619147241460909271869818,14.0,0.8870660441619147241460909271869818
7,20.1197208918719454607577746139291732,19.2,0.9197208918719454607577746139291732
8,26.1477839353695298514788269325858239,25.2,0.9477839353695298514788269325858239
9,32.9723836736713011527284629027124908,32.0,0.9723836736713011527284629027124908
10,40.5942803609331540805813955409834380,39.6,0.9942803609331540805813955409834380
11,49.0140095673018944383235139584798805,48.0,1.0140095673018944383235139584798805
12,58.2319623880871152275012905210865458,57.2,1.0319623880871152275012905210865458
13,68.2484329533591939723737222097399611,67.2,1.0484329533591939723737222097399611
14,79.0636479608056878619813581627514112,78.0,1.0636479608056878619813581627514112
15,90.6777857915456598066609796459528385,89.6,1.0777857915456598066609796459528385
16,103.090989315000212488063070619793428,102.0,1.090989315000212488063070619793428
17,116.303374722354050921748953951857480,115.2,1.103374722354050921748953951857480
18,130.315037777561721303575104388336178,129.2,1.115037777561721303575104388336178
19,145.126058340451616074362248397509814,144.0,1.126058340451616074362248397509814
20,160.736503704359930022589238389335711,159.6,1.136503704359930022589238389335711
21,177.146431102212371913424086201025367,176.0,1.146431102212371913424086201025367
22,194.355889617682915511239723148560149,193.2,1.155889617682915511239723148560149
23,212.364921663130332643263163744119988,211.2,1.164921663130332643263163744119988
24,231.173564136998622010792503573323730,230.0,1.173564136998622010792503573323730
25,250.781849340612940972056438708273610,249.6,1.181849340612940972056438708273610
26,271.189805711987197768429836778614860,270.0,1.189805711987197768429836778614860
27,292.397458418786631164294916211653899,291.2,1.197458418786631164294916211653899
28,314.404829841686853593507968474106260,313.2,1.204829841686853593507968474106260
29,337.211939971575806036742156091694472,336.0,1.211939971575806036742156091694472
30,360.818806738395585251535906076016408,359.6,1.218806738395585251535906076016408
31,385.225446285275165453191070376783947,384.0,1.225446285275165453191070376783947
32,410.431873198527136942907581123206094,409.2,1.231873198527136942907581123206094
33,436.438100701771936362980080853567244,435.2,1.238100701771936362980080853567244
34,463.244140820702496983554421688778692,462.0,1.244140820702496983554421688778692
35,490.850004523663052352911314227244526,489.6,1.250004523663052352911314227244526
36,519.255701842182347759557655525158071,518.0,1.255701842182347759557655525158071
37,548.461241974797429401994931886733670,547.2,1.261241974797429401994931886733670
38,578.466633376873762415911005199018025,577.2,1.266633376873762415911005199018025
39,609.271883838629580256725331435514670,608.0,1.271883838629580256725331435514670
40,640.877000553176547150086307259367825,639.6,1.277000553176547150086307259367825
41,673.281990176072065047800508466864147,672.0,1.281990176072065047800508466864147
42,706.486858877623563924069346351986646,705.2,1.286858877623563924069346351986646
43,740.491612388978627901121904502539342,739.2,1.291612388978627901121904502539342
44,775.296256042866715677136201555587548,774.0,1.296256042866715677136201555587548
45,810.900794809720664159792101764971485,809.6,1.300794809720664159792101764971485
46,847.305233329793027925763023195118530,846.0,1.305233329793027925763023195118530
47,884.509575941788830513765322229859168,883.2,1.309575941788830513765322229859168
48,922.513826708458717194250307132152568,921.2,1.313826708458717194250307132152568
49,961.317989439531836314695004682242828,960.0,1.317989439531836314695004682242828
50,1000.92206771231365360560774721208440,999.6,1.32206771231365360560774721208440
51,1041.32606489022843686974205756204779,1040.0,1.32606489022843686974205756204779
52,1082.52998413954780326259013139095850,1081.2,1.32998413954780326259013139095850
53,1124.53382844451427125358463134652363,1123.2,1.33382844451427125358463134652363
54,1167.33760062104119822590366798624195,1166.0,1.33760062104119822590366798624195
55,1210.94130332914700918020080469105690,1209.6,1.34130332914700918020080469105690
56,1255.34493908426154743740871808461965,1254.0,1.34493908426154743740871808461965
57,1300.54851026752517927061024414738363,1299.2,1.34851026752517927061024414738363
58,1346.55201913518648720965518751980867,1345.2,1.35201913518648720965518751980867
59,1393.35546782719163281490387464173323,1392.0,1.35546782719163281490387464173323
60,1440.95885837504744520876830692634256,1439.6,1.35885837504744520876830692634256
61,1489.36219270903072742621042074646700,1488.0,1.36219270903072742621042074646700
62,1538.56547266480797164024408191891321,1537.2,1.36547266480797164024408191891321
63,1588.56869998952243242946954510331759,1587.2,1.36869998952243242946954510331759
64,1639.37187634739919477475629921287111,1638.0,1.37187634739919477475629921287111
65,1690.97500332491333863223001839512206,1689.6,1.37500332491333863223001839512206
66,1743.37808243556145459067716520943848,1742.0,1.37808243556145459067716520943848
67,1796.58111512427250283017465975693425,1795.2,1.38111512427250283017465975693425
68,1850.58410277149025143796165738649980,1849.2,1.38410277149025143796165738649980
69,1905.38704669695621746686824544074631,1904.0,1.38704669695621746686824544074631
70,1960.98994816321910585337107539595829,1959.6,1.38994816321910585337107539595829
71,2017.39280837889414260864719106034273,2016.0,1.39280837889414260864719106034273
72,2074.59562850169340045363859179099747,2073.2,1.39562850169340045363859179099747
73,2132.59840964124616206277202131033168,2131.2,1.39840964124616206277202131033168
74,2191.40115286172654723245171950528640,2190.0,1.40115286172654723245171950528640
75,2251.00385918430399918937621928048529,2249.6,1.40385918430399918937621928048529
76,2311.40652958943077569700519105342213,2310.0,1.40652958943077569700519105342213
77,2372.60916501897928822012324959875850,2371.2,1.40916501897928822012324959875850
78,2434.61176637824096660930199234950384,2433.2,1.41176637824096660930199234950384
79,2497.41433453779727994710826977697622,2496.0,1.41433453779727994710826977697622
80,2561.01687033527260607229996652370917,2559.6,1.41687033527260607229996652370917
81,2625.41937457697779295681805958010813,2624.0,1.41937457697779295681805958010813
82,2690.62184803945249365986920299179397,2689.2,1.42184803945249365986920299179397
83,2756.62429147091366784964803407832620,2755.2,1.42429147091366784964803407832620
84,2823.42670559261701859157759787303469,2822.0,1.42670559261701859157759787303469
85,2891.02909110013757382581817103971827,2889.6,1.42909110013757382581817103971827
86,2959.43144866457510609145200335329531,2958.0,1.43144866457510609145200335329531
87,3028.63377893368962658400348206707731,3027.2,1.43377893368962658400348206707731
88,3098.63608253297176625526541726740594,3097.2,1.43608253297176625526541726740594
89,3169.43836006665247316229435736849796,3168.0,1.43836006665247316229435736849796
90,3241.04061211865611205576128663162753,3239.6,1.44061211865611205576128663162753
91,3313.44283925350073074584904341199417,3312.0,1.44283925350073074584904341199417
92,3386.64504201714896948640272755708981,3385.2,1.44504201714896948640272755708981
93,3460.64722093781282736304414932064950,3459.2,1.44722093781282736304414932064950
94,3535.44937652671525674228088109656582,3534.0,1.44937652671525674228088109656582
95,3611.05150927881133568467378918932534,3609.6,1.45150927881133568467378918932534
96,3687.45361967347156640307141361987786,3686.0,1.45361967347156640307141361987786
97,3764.65570817512966350487788059915367,3763.2,1.45570817512966350487788059915367
98,3842.65777523389702288308800657279887,3841.2,1.45777523389702288308800657279887
99,3921.45982128614590864870735776634667,3920.0,1.45982128614590864870735776634667
100,4001.06184675506324915682401554522538,3999.6,1.46184675506324915682401554522538
101,4081.46385205117680387452055118497001,4080.0,1.46385205117680387452055118497001
102,4162.66583757285533726416511444723696,4161.2,1.46583757285533726416511444723696
103,4244.66780370678432794208262865608960,4243.2,1.46780370678432794208262865608960
104,4327.46975082841863410798068115024190,4326.0,1.46975082841863410798068115024190
105,4411.07167930241344316681937891584037,4409.6,1.47167930241344316681937891584037
106,4495.47358948303474270066046113208594,4494.0,1.47358948303474270066046113208594
107,4580.67548171455047186615765077611322,4579.2,1.47548171455047186615765077611322
108,4666.67735633160343305388184593540349,4665.2,1.47735633160343305388184593540349
109,4753.47921365956697505223437880216262,4752.0,1.47921365956697505223437880216262
110,4841.08105401488439653866399245931613,4839.6,1.48105401488439653866399245931613
111,4929.48287770539295285980314050348858,4928.0,1.48287770539295285980314050348858
112,5018.68468503063329962860175731694536,5017.2,1.48468503063329962860175731694536
113,5108.68647628214515113084253556254873,5107.2,1.48647628214515113084253556254873
114,5199.48825174374988277577106018775171,5198.0,1.48825174374988277577106018775171
115,5291.09001169182076637717550834120191,5289.6,1.49001169182076637717550834120191
116,5383.49175639554147871971196544062322,5382.0,1.49175639554147871971196544062322
117,5476.69348611715349215237894781153297,5475.2,1.49348611715349215237894781153297
118,5570.69520111219291492005298329407028,5569.2,1.49520111219291492005298329407028
119,5665.49690162971731523040039237606356,5664.0,1.49690162971731523040039237606356
120,5761.09858791252303721136919025570136,5759.6,1.49858791252303721136919025570136
121,5857.50026019735347864734627102784424,5856.0,1.50026019735347864734627102784424
122,5954.70191871509878146906218152284949,5953.2,1.50191871509878146906218152284949
123,6052.70356369098735377952791414448482,6051.2,1.50356369098735377952791414448482
124,6151.50519534476962451861561931377884,6150.0,1.50519534476962451861561931377884
125,6251.10681389089440230277867736447320,6249.6,1.50681389089440230277867736447320
126,6351.50841953867819477924930311680155,6350.0,1.50841953867819477924930311680155
127,6452.71001249246782425632031680149717,6451.2,1.51001249246782425632031680149717
128,6554.71159295179665278428091964532357,6553.2,1.51159295179665278428091964532357
129,6657.51316111153471778849878215342798,6656.0,1.51316111153471778849878215342798
130,6761.11471716203306097443737882477098,6759.6,1.51471716203306097443737882477098
131,6865.51626128926251782045070048709358,6864.0,1.51626128926251782045070048709358
132,6970.71779367494721999717152629661313,6969.2,1.51779367494721999717152629661313
133,7076.71931449669305127090115174452493,7075.2,1.51931449669305127090115174452493
134,7183.52082392811128617264348510959929,7182.0,1.52082392811128617264348510959929
135,7291.12232213893762260627038440999837,7289.6,1.52232213893762260627038440999837
136,7399.52380929514681588196934802199414,7398.0,1.52380929514681588196934802199414
137,7508.72528555906310835339504056968378,7507.2,1.52528555906310835339504056968378
138,7618.72675108946663522515386952693751,7617.2,1.52675108946663522515386952693751
139,7729.52820604169598499156979996294694,7728.0,1.52820604169598499156979996294694
140,7841.12965056774707752193379311519096,7839.6,1.52965056774707752193379311519096
141,7953.53108481636851825017438551163023,7952.0,1.53108481636851825017438551163023
142,8066.73250893315357885386515014673298,8065.2,1.53250893315357885386515014673298
143,8180.73392306062894615755879005132987,8179.2,1.53392306062894615755879005132987
144,8295.53532733834037381605004249902753,8294.0,1.53532733834037381605004249902753
145,8411.13672190293536714567636725270520,8409.6,1.53672190293536714567636725270520
146,8527.53810688824302360328516279009859,8526.0,1.53810688824302360328516279009859
147,8644.73948242535114320980519817793626,8643.2,1.53948242535114320980519817793626
148,8762.74084864268072425761532857398585,8761.2,1.54084864268072425761532857398585
149,8881.54220566605794611313191838675074,8880.0,1.54220566605794611313191838675074
150,9001.14355361878374276625597976679702,8999.6,1.54355361878374276625597976679702
151,9121.54489262170106305202588422030822,9120.0,1.54489262170106305202588422030822
152,9242.74622279325990785505499218507274,9241.2,1.54622279325990785505499218507274
153,9364.74754424958023325820124256347889,9363.2,1.54754424958023325820124256347889
154,9487.54885710451280354680897727531247,9486.0,1.54885710451280354680897727531247
155,9611.15016146969807231697875188054047,9609.6,1.55016146969807231697875188054047
156,9735.55145745462316956706529159548494,9734.0,1.55145745462316956706529159548494
157,9860.75274516667706583222022503368438,9859.2,1.55274516667706583222022503368438
158,9986.75402471120398519370834576197837,9985.2,1.55402471120398519370834576197837
159,10113.5552961915551308498553374061499,10112.0,1.5552961915551308498553374061499
160,10241.1565597091387896006278777123378,10239.6,1.5565597091387896006278777123378
161,10369.5578153634688737568623659469429,10368.0,1.5578153634688737568623659469429
162,10498.7590632522119599505994989618937,10497.2,1.5590632522119599505994989618937
163,10628.7603034712328797156483006544048,10627.2,1.5603034712328797156483006544048
164,10759.5615361146389164912916216750956,10758.0,1.5615361146389164912916216750956
165,10891.1627612748226576661741576743178,10889.6,1.5627612748226576661741576743178
166,11023.5639790425035521952978605339062,11022.0,1.5639790425035521952978605339062
167,11156.7651895067682210403385065565844,11155.2,1.5651895067682210403385065565844
168,11290.7663927551095631406408809306855,11289.2,1.5663927551095631406408809306855
169,11425.5675888734647019960052302297404,11424.0,1.5675888734647019960052302297404
170,11561.1687779462518126240179018951958,11559.6,1.5687779462518126240179018951958
171,11697.5699600564058691066295602904258,11696.0,1.5699600564058691066295602904258
172,11834.7711352854133506135386503153580,11833.2,1.5711352854133506135386503153580
173,11972.7723037133459413262733750318225,11971.2,1.5723037133459413262733750318225
174,12111.5734654188932601287419842450715,12110.0,1.5734654188932601287419842450715
175,12251.1746204793946540721561701402673,12249.6,1.5746204793946540721561701402673
176,12391.5757689708700853444001911599990,12390.0,1.5757689708700853444001911599990
177,12532.7769109680501450288636570923542,12531.2,1.5769109680501450288636570923542
178,12674.7780465444052228324249653392917,12673.2,1.5780465444052228324249653392917
179,12817.5791757721738592536405474392648,12816.0,1.5791757721738592536405474392648
180,12961.1802987223903111645164416650553,12959.6,1.5802987223903111645164416650553
181,13105.5814154649113534823041859998661,13104.0,1.5814154649113534823041859998661
182,13250.7825260684423446554975854170074,13249.2,1.5825260684423446554975854170074
183,13396.7836306005625790430507796246562,13395.2,1.5836306005625790430507796246562
184,13543.5847291277499504590890907892824,13542.0,1.5847291277499504590890907892824
185,13691.1858217154049487230149689089553,13689.6,1.5858217154049487230149689089553
186,13839.5869084278740102164639282549682,13838.0,1.5869084278740102164639282549682
187,13988.7879893284722462815713099753104,13987.2,1.5879893284722462815713099753104
188,14138.7890644795055649319705986227285,14137.2,1.5890644795055649319705986227285
189,14289.5901339422922096439250994117471,14288.0,1.5901339422922096439250994117471
190,14441.1911977771837309162188622406034,14439.6,1.5911977771837309162188622406034
191,14593.5922560435854098602121390014947,14592.0,1.5922560435854098602121390014947
192,14746.7933087999761502424475659295779,14745.2,1.5933087999761502424475659295779
193,14900.7943561039278573252504168448575,14899.2,1.5943561039278573252504168448575
194,15055.5953980121243168891375917376581,15054.0,1.5953980121243168891375917376581
195,15211.1964345803795924139508225197974,15209.6,1.5964345803795924139508225197974
196,15367.5974658636559541567254539544323,15366.0,1.5974658636559541567254539544323
197,15524.7984919160813545493663155942222,15523.2,1.5984919160813545493663155942222
198,15682.7995127909664641275573877508830,15681.2,1.5995127909664641275573877508830
199,15841.6005285408212808759809629889580,15840.0,1.6005285408212808759809629889580
200,16001.2015392173713269830845893577112,15999.6,1.6015392173713269830845893577112
201,16161.6025448715734440367704564190759,16160.0,1.6025448715734440367704564190759
202,16322.8035455536312000941363479776161,16321.2,1.6035455536312000941363479776161
203,16484.8045413130099193389880862224331,16483.2,1.6045413130099193389880862224331
204,16647.6055321984513460032150848057007,16646.0,1.6055321984513460032150848057007
205,16811.2065182579879525808134066363123,16809.6,1.6065182579879525808134066363123
206,16975.6074995389569054190544030094312,16974.0,1.6074995389569054190544030094312
207,17140.8084760880136936256781868630518,17139.2,1.6084760880136936256781868630518
208,17306.8094479511454355842927416331991,17305.2,1.6094479511454355842927416331991
209,17473.6104151736838688942570034361758,17472.0,1.6104151736838688942570034361758
210,17641.2113778003180353068246100060531,17639.6,1.6113778003180353068246100060531
211,17809.6123358751066680955891554233554,17808.0,1.6123358751066680955891554233554
212,17978.8132894414902921704240710561399,17977.2,1.6132894414902921704240710561399
213,18148.8142385423030413980078042652288,18147.2,1.6142385423030413980078042652288
214,18319.6151832197842081930926501971622,18318.0,1.6151832197842081930926501971622
215,18491.2161235155895246786113419599938,18489.6,1.6161235155895246786113419599938
216,18663.6170594708021894645174383090053,18662.0,1.6170594708021894645174383090053
217,18836.8179911259436441035308834469030,18835.2,1.6179911259436441035308834469030
218,19010.8189185209841082992679816916652,19009.2,1.6189185209841082992679816916652
219,19185.6198416953528772467540402685467,19184.0,1.6198416953528772467540402685467
220,19361.2207606879483937247353220603237,19359.6,1.6207606879483937247353220603237
221,19537.6216755371480929578056245806300,19536.0,1.6216755371480929578056245806300
222,19714.8225862808180375660411272458470,19713.2,1.6225862808180375660411272458470
223,19892.8234929563223362881360671706670,19891.2,1.6234929563223362881360671706670
224,20071.6243956005323616675382675437059,20070.0,1.6243956005323616675382675437059
225,20251.2252942498357693936340117066695,20249.6,1.6252942498357693936340117066695
226,20431.6261889401453229769050046175565,20430.0,1.6261889401453229769050046175565
227,20612.8270797069075325476986056678680,20611.2,1.6270797069075325476986056678680
228,20794.8279665851111097416441148912598,20793.2,1.6279665851111097416441148912598
229,20977.6288496092952459830109813982381,20976.0,1.6288496092952459830109813982381
230,21161.2297288135577190180262058704758,21159.6,1.6297288135577190180262058704758
231,21345.6306042315628296601313572085701,21344.0,1.6306042315628296601313572085701
232,21530.8314758965491793360962235176604,21529.2,1.6314758965491793360962235176604
233,21716.8323438413372836060745275411689,21715.2,1.6323438413372836060745275411689
234,21903.6332080983370379992526144776347,21902.0,1.6332080983370379992526144776347
235,22091.2340686995550295401407954946396,22089.6,1.6340686995550295401407954946396
236,22279.6349256766017038769925123948563,22278.0,1.6349256766017038769925123948563
237,22468.8357790606983918543963241909788,22467.2,1.6357790606983918543963241909788
238,22658.8366288826841974926447196985830,22657.2,1.6366288826841974926447196985830
