Eigenstate,Energy,Kinetic Energy,Potential Energy
1,0.500000000025415112756797923415998493,0.0,0.500000000025415112756797923415998493
2,1.84623093781701115029771775612726713,1.2,0.64623093781701115029771775612726713
3,3.93633761019228278074614417509986993,3.2,0.73633761019228278074614417509986993
4,6.79966527882924259087201012805701076,6.0,0.79966527882924259087201012805701076
5,10.4480465770438771806842707395532928,9.6,0.8480465770438771806842707395532928
6,14.8870659995908964267176876678610138,14.0,0.8870659995908964267176876678610138
7,20.1197208279084909307752820035357760,19.2,0.9197208279084909307752820035357760
8,26.1477838483736210705281286920549324,25.2,0.9477838483736210705281286920549324
9,32.9723835599925779221585642552810756,32.0,0.9723835599925779221585642552810756
10,40.5942802169139431336224168782067681,39.6,0.9942802169139431336224168782067681
11,49.0140093892787637204215317407669486,48.0,1.0140093892787637204215317407669486
12,58.2319621723916764002416265459278609,57.2,1.0319621723916764002416265459278609
13,68.2484326963184954187040757964417457,67.2,1.0484326963184954187040757964417457
14,79.0636476587423717911746753170115959,78.0,1.0636476587423717911746753170115959
15,90.6777854407779768079136300478680420,89.6,1.0777854407779768079136300478680420
16,103.090988911841946299361327112714862,102.0,1.090988911841946299361327112714862
17,116.303374263114384550490960894333383,115.2,1.103374263114384550490960894333383
18,130.315037258545063568721723741621399,129.2,1.115037258545063568721723741621399
19,145.126057757957400634501252717555482,144.0,1.126057757957400634501252717555482
20,160.736503054682394741997939195398130,159.6,1.136503054682394741997939195398130
21,177.146430381640323805347492297861697,176.0,1.146430381640323805347492297861697
22,194.355888822499484831252689534889733,193.2,1.155888822499484831252689534889733
23,212.364920789612718616094512717178020,211.2,1.164920789612718616094512717178020
24,231.173563181417831945490929960624755,230.0,1.173563181417831945490929960624755
25,250.781848299233524023248170596603833,249.6,1.181848299233524023248170596603833
26,271.189804581066974255830871864886978,270.0,1.189804581066974255830871864886978
27,292.397457194576418118291138411257068,291.2,1.197457194576418118291138411257068
28,314.404828520430187019132772263842106,313.2,1.204828520430187019132772263842106
29,337.211938549508660260525614268851700,336.0,1.211938549508660260525614268851700
30,360.818805211746089621290918603773173,359.6,1.218805211746089621290918603773173
31,385.225444650263318590213177305618812,384.0,1.225444650263318590213177305618812
32,410.431871451364518692664441073315865,409.2,1.231871451364518692664441073315865
33,436.438098838661417549517129241764106,435.2,1.238098838661417549517129241764106
34,463.244138837837947041263761022463786,462.0,1.244138837837947041263761022463786
35,490.850002417229044884648069470445034,489.6,1.250002417229044884648069470445034
36,519.255699608353864050638460609000006,518.0,1.255699608353864050638460609000006
37,548.461239609739559904124978651491526,547.2,1.261239609739559904124978651491526
38,578.466630876741406202637263319150339,577.2,1.266630876741406202637263319150339
39,609.271881199567142441911598596445655,608.0,1.271881199567142441911598596445655
40,640.876997771317634252630594139496589,639.6,1.276997771317634252630594139496589
41,673.281987247539178278972009708669244,672.0,1.281987247539178278972009708669244
42,706.486855798527790368126260603117948,705.2,1.286855798527790368126260603117948
43,740.491609155419329555049707960485278,739.2,1.291609155419329555049707960485278
44,775.296252650931216311236937860699977,774.0,1.296252650931216311236937860699977
45,810.900791255483933957315446415247758,809.6,1.300791255483933957315446415247758
46,847.305229609317365856687413357785087,846.0,1.305229609317365856687413357785087
47,884.509572051123544395124387805700180,883.2,1.309572051123544395124387805700180
48,922.513822643639801386983373890966609,921.2,1.313822643639801386983373890966609
49,961.317985196581647004825456117504516,960.0,1.317985196581647004825456117504516
50,1000.92206328724058161557264210465827,999.6,1.32206328724058161557264210465827
51,1041.32606027902657794387270616204483,1040.0,1.32606027902657794387270616204483
52,1082.52997933819662576904798961125917,1081.2,1.32997933819662576904798961125917
53,1124.53382344897828124346284222340589,1123.2,1.33382344897828124346284222340589
54,1167.33759542726960178869227508964094,1166.0,1.33759542726960178869227508964094
55,1210.94129793307337203336596237235393,1209.6,1.34129793307337203336596237235393
56,1255.34493348180345168643950688127465,1254.0,1.34493348180345168643950688127465
57,1300.54850445458387727452834780992574,1299.2,1.34850445458387727452834780992574
58,1346.55201310764655248565095057694621,1345.2,1.35201310764655248565095057694621
59,1393.35546158092060791445455069722595,1392.0,1.35546158092060791445455069722595
60,1440.95885190589548649629612330383315,1439.6,1.35885190589548649629612330383315
61,1489.36218601283024669004800472754912,1488.0,1.36218601283024669004800472754912
62,1538.56546573737327446438534929294328,1537.2,1.36546573737327446438534929294328
63,1588.56869282664935325329304255768956,1587.2,1.36869282664935325329304255768956
64,1639.37186894486472856660851548120140,1638.0,1.37186894486472856660851548120140
65,1690.97499567847526910144485855672219,1689.6,1.37499567847526910144485855672219
66,1743.37807454095797886128519057160749,1742.0,1.37807454095797886128519057160749
67,1796.58110697722185249821403145784280,1795.2,1.38110697722185249821403145784280
68,1850.58409436769030993294335362434088,1849.2,1.38409436769030993294335362434088
69,1905.38703803208413363656465244766443,1904.0,1.38703803208413363656465244766443
70,1960.98993923293090368969466765350764,1959.6,1.38993923293090368969466765350764
71,2017.39279917882432703095165595134471,2016.0,1.39279917882432703095165595134471
72,2074.59561902745455906431946198124793,2073.2,1.39561902745455906431946198124793
73,2132.59839988842856278855345992949985,2131.2,1.39839988842856278855345992949985
74,2191.40114282589773176322980668032374,2190.0,1.40114282589773176322980668032374
75,2251.00384886100837212493662704536701,2249.6,1.40384886100837212493662704536701
76,2311.40651897418918931035062975735517,2310.0,1.40651897418918931035062975735517
77,2372.60915410728862274452467111092398,2371.2,1.40915410728862274452467111092398
78,2434.61175516557370595453167124566329,2433.2,1.41175516557370595453167124566329
79,2497.41432301960108274861812607918699,2496.0,1.41432301960108274861812607918699
80,2561.01685850696987197537607215894817,2559.6,1.41685850696987197537607215894817
81,2625.41936243396522403596580936370196,2624.0,1.41936243396522403596580936370196
82,2690.62183557710065087186820100732029,2689.2,1.42183557710065087186820100732029
83,2756.62427868456652241685575057021733,2755.2,1.42427868456652241685575057021733
84,2823.42669247759149821015553778537840,2822.0,1.42669247759149821015553778537840
85,2891.02907765172310359160343819745971,2889.6,1.42907765172310359160343819745971
86,2959.43143487803314403419973361800547,2958.0,1.43143487803314403419973361800547
87,3028.63376480425319369867638664843732,3027.2,1.43376480425319369867638664843732
88,3098.63606805584497091695052747213860,3097.2,1.43606805584497091695052747213860
89,3169.43834523701002980917722122777614,3168.0,1.43834523701002980917722122777614
90,3241.04059693164285402238531691280675,3239.6,1.44059693164285402238531691280675
91,3313.44282370423111712662948409892792,3312.0,1.44282370423111712662948409892792
92,3386.64502610070658590705239652811567,3385.2,1.44502610070658590705239652811567
93,3460.64720464924988053519542224185799,3459.2,1.44720464924988053519542224185799
94,3535.44935986105206267415804925832487,3534.0,1.44935986105206267415804925832487
95,3611.05149223103580141817728245814502,3609.6,1.45149223103580141817728245814502
96,3687.45360223853866514508178974040956,3686.0,1.45360223853866514508178974040956
97,3764.65569034796090301796601856057713,3763.2,1.45569034796090301796601856057713
98,3842.65775700937990699813472574320990,3841.2,1.45775700937990699813472574320990
99,3921.45980265913339175917931362036803,3920.0,1.45980265913339175917931362036803
100,4001.06182772037318355163121662893285,3999.6,1.46182772037318355163121662893285
101,4081.46383260359137976348316395077988,4080.0,1.46383260359137976348316395077988
102,4162.66581770712051534714803778787565,4161.2,1.46581770712051534714803778787565
103,4244.66778341760926436981212034659446,4243.2,1.46778341760926436981212034659446
104,4327.46973011047509767942923855185393,4326.0,1.46973011047509767942923855185393
105,4411.07165815033522460484524229034316,4409.6,1.47165815033522460484524229034316
106,4495.47356789141705584429868156849226,4494.0,1.47356789141705584429868156849226
107,4580.67545967794934661458806099289308,4579.2,1.47545967794934661458806099289308
108,4666.67733384453509989364167001880074,4665.2,1.47733384453509989364167001880074
109,4753.47919071650724099569186113777727,4752.0,1.47919071650724099569186113777727
110,4841.08103061026801229813053510632373,4839.6,1.48103061026801229813053510632373
111,4929.48285383361297107792411573632072,4928.0,1.48285383361297107792411573632072
112,5018.68466068604042398183280440535906,5017.2,1.48466068604042398183280440535906
113,5108.68645145904707611888480816325082,5107.2,1.48645145904707611888480816325082
114,5199.48822643641062400579994437455920,5198.0,1.48822643641062400579994437455920
115,5291.08998589445998114755440864285511,5289.6,1.48998589445998114755440864285511
116,5383.49173010233377670363029705166995,5382.0,1.49173010233377670363029705166995
117,5476.69345932222773597748668871758407,5475.2,1.49345932222773597748668871758407
118,5570.69517380963151043568356761247482,5569.2,1.49517380963151043568356761247482
119,5665.49687381355549124937350167358130,5664.0,1.49687381355549124937350167358130
120,5761.09855957674811450864108135882486,5759.6,1.49855957674811450864108135882486
121,5857.50023133590412799292585730690862,5856.0,1.50023133590412799292585730690862
122,5954.70188932186427046763173372821127,5953.2,1.50188932186427046763173372821127
123,6052.70353375980678228409379388383093,6051.2,1.50353375980678228409379388383093
124,6151.50516486943114838026484138740851,6150.0,1.50516486943114838026484138740851
125,6251.10678286513444521322089433172655,6249.6,1.50678286513444521322089433172655
126,6351.50838795618064795728724613817796,6350.0,1.50838795618064795728724613817796
127,6452.70998034686323372370035223409584,6451.2,1.50998034686323372370035223409584
128,6554.71156023666139397053091085966583,6553.2,1.51156023666139397053091085966583
129,6657.51312782039015719835538493152776,6656.0,1.51312782039015719835538493152776
130,6761.11468328834470464529595034323363,6759.6,1.51468328834470464529595034323363
131,6865.51622682643914629093080987061741,6864.0,1.51622682643914629093080987061741
132,6970.71775861634000950137599884087328,6969.2,1.51775861634000950137599884087328
133,7076.71927883559468086625580045555320,7075.2,1.51927883559468086625580045555320
134,7183.52078765775503050232015353189006,7182.0,1.52078765775503050232015353189006
135,7291.12228525249642999012486872782861,7289.6,1.52228525249642999012486872782861
136,7399.52377178573237142266005675713639,7398.0,1.52377178573237142266005675713639
137,7508.72524741972488173686873833449500,7507.2,1.52524741972488173686873833449500
138,7618.72671231319091288700688351254053,7617.2,1.52671231319091288700688351254053
139,7729.52816662140488631289056480033494,7728.0,1.52816662140488631289056480033494
140,7841.12961049629755471010761167409540,7839.6,1.52961049629755471010761167409540
141,7953.53104408655133955178123217296102,7952.0,1.53104408655133955178123217296102
142,8066.73246753769229473820601496881724,8065.2,1.53246753769229473820601496881724
143,8180.73388099217883810050732421575432,8179.2,1.53388099217883810050732421575432
144,8295.53528458948738530483831348287595,8294.0,1.53528458948738530483831348287595
145,8411.13667846619501651586943147331376,8409.6,1.53667846619501651586943147331376
146,8527.53806275605929830957462889834421,8526.0,1.53806275605929830957462889834421
147,8644.73943759009537512235231153160607,8643.2,1.53943759009537512235231153160607
148,8762.74080309665044556548578899239059,8761.2,1.54080309665044556548578899239059
149,8881.54215940147572540587371583764740,8880.0,1.54215940147572540587371583764740
150,9001.14350662779600085388381540354387,8999.6,1.54350662779600085388381540354387
151,9121.54484489637686807255940344598472,9120.0,1.54484489637686807255940344598472
152,9242.74617432558974920732356742768284,9241.2,1.54617432558974920732356742768284
153,9364.74749503147477388584924761321300,9363.2,1.54749503147477388584924761321300
154,9487.54880712780161008731135662389866,9486.0,1.54880712780161008731135662389866
155,9611.15011072612832261698746284366602,9609.6,1.55011072612832261698746284366602
156,9735.55140593585833705254339573272771,9734.0,1.55140593585833705254339573272771
157,9860.75269286429558020858006903940491,9859.2,1.55269286429558020858006903940491
158,9986.75397161669786893751544527887573,9985.2,1.55397161669786893751544527887573
159,10113.5552422963286109396074939423691,10112.0,1.5552422963286109396074939423691
160,10241.1565050045068839196283064036658,10239.6,1.5565050045068839196283064036658
161,10369.5577598406559515862808108883586,10368.0,1.5577598406559515862808108883586
162,10498.7590069023502759554298823189983,10497.2,1.5590069023502759554298823189983
163,10628.7602462853610808104175920344815,10627.2,1.5602462853610808104175920344815
164,10759.5614780837005209560280926240932,10758.0,1.5614780837005209560280926240932
165,10891.1627023896645058662901963787190,10889.6,1.5627023896645058662901963787190
166,11023.5639192938742282416767576003925,11022.0,1.5639192938742282416767576003925
167,11156.7651288853164447079908288529120,11155.2,1.5651288853164447079908288529120
168,11290.7663312513825513458225230207816,11289.2,1.5663312513825513458225230207816
169,11425.5675264779064991126375265868858,11424.0,1.5675264779064991126375265868858
170,11561.1687146492015889005834958461198,11559.6,1.5687146492015889005834958461198
171,11697.5698958480961864244454530237138,11696.0,1.5698958480961864244454530237138
172,11834.7710701559683948063785354917321,11833.2,1.5710701559683948063785354917321
173,11972.7722376527797202597192508281091,11971.2,1.5722376527797202597192508281091
174,12111.5733984171077667153595760634459,12110.0,1.5733984171077667153595760634459
175,12251.1745525261779933755873344918849,12249.6,1.5745525261779933755873344918849
176,12391.5757000558945649017159762132734,12390.0,1.5757000558945649017159762132734
177,12532.7768410808703274960115364964679,12531.2,1.5768410808703274960115364964679
178,12674.7779756744559400322833526809952,12673.2,1.5779756744559400322833526809952
179,12817.5791039087681866800545823743278,12816.0,1.5791039087681866800545823743278
180,12961.1802258547175019686817442602036,12959.6,1.5802258547175019686817442602036
181,13105.5813415820347309399796513254104,13104.0,1.5813415820347309399796513254104
182,13250.7824511592971520847073412020128,13249.2,1.5824511592971520847073412020128
183,13396.7835546539537861121590811499223,13395.2,1.5835546539537861121590811499223
184,13543.5846521323500147943666358582534,13542.0,1.5846521323500147943666358582534
185,13691.1857436597515316930061792916091,13689.6,1.5857436597515316930061792916091
186,13839.5868293003676457375990445888247,13838.0,1.5868293003676457375990445888247
187,13988.7879091173739614554737266529638,13987.2,1.5879091173739614554737266529638
188,14138.7889831729344512897732116302971,14137.2,1.5889831729344512897732116302971
189,14289.5900515282229437365649494619951,14288.0,1.5900515282229437365649494619951
190,14441.1911142434440429520976538168584,14439.6,1.5911142434440429520976538168584
191,14593.5921713778534990527229027629232,14592.0,1.5921713778534990527229027629232
192,14746.7932229897780454896499806511209,14745.2,1.5932229897780454896499806511209
193,14900.7942691366347218023467139548666,14899.2,1.5942691366347218023467139548666
194,15055.5953098749496950913331890343529,15054.0,1.5953098749496950913331890343529
195,15211.1963452603765981426907590414492,15209.6,1.5963452603765981426907590414492
196,15367.5973753477143978961493309591538,15366.0,1.5973753477143978961493309591538
197,15524.7984001909248086320365882088893,15523.2,1.5984001909248086320365882088893
198,15682.7994198431492640390305465428453,15681.2,1.5994198431492640390305465428453
199,15841.6004343567254609965314019785936,15840.0,1.6004343567254609965314019785936
200,16001.2014437832034890118139084936680,15999.6,1.6014437832034890118139084936680
201,16161.6024481733615562883394568749708,16160.0,1.6024481733615562883394568749708
202,16322.8034475772213258013395978055917,16321.2,1.6034475772213258013395978055917
203,16484.8044420440628720353532591823697,16483.2,1.6044420440628720353532591823697
204,16647.6054316224392699985796867523853,16646.0,1.6054316224392699985796867523853
205,16811.2064163601908264793593393712306,16809.6,1.6064163601908264793593393712306
206,16975.6073963044589665634801356369646,16974.0,1.6073963044589665634801356369646
207,17140.8083715016997812829348435724291,17139.2,1.6083715016997812829348435724291
208,17306.8093419976972506175346461264197,17305.2,1.6093419976972506175346461264197
209,17473.6103078375761475922068030850369,17472.0,1.6103078375761475922068030850369
210,17641.2112690658146349655758975398127,17639.6,1.6112690658146349655758975398127
211,17809.6122257262565618687853492794232,17808.0,1.6122257262565618687853492794232
212,17978.8131778621234706216817366190076,17977.2,1.6131778621234706216817366190076
213,18148.8141255160263181042502459946541,18147.2,1.6141255160263181042502459946541
214,18319.6150687299769266589851556770650,18318.0,1.6150687299769266589851556770650
215,18491.2160075453991637304204111599553,18489.6,1.6160075453991637304204111599553
216,18663.6169420031398641962712403303789,18662.0,1.6169420031398641962712403303789
217,18836.8178721434794993492225435754245,18835.2,1.6178721434794993492225435754245
218,19010.8187980061426015018073876525143,19009.2,1.6187980061426015018073876525143
219,19185.6197196303079474873048994867139,19184.0,1.6197196303079474873048994867139
220,19361.2206370546185135647784731684192,19359.6,1.6206370546185135647784731684192
221,19537.6215503171911996305373221766153,19536.0,1.6215503171911996305373221766153
222,19714.8224594556263399333798256722798,19713.2,1.6224594556263399333798256722798
223,19892.8233645070169938544427208004001,19891.2,1.6233645070169938544427208004001
224,20071.6242655079580318109471909429650,20070.0,1.6242655079580318109471909429650
225,20251.2251624945550188403771290423505,20249.6,1.6251624945550188403771290423505
226,20431.6260555024328994030229330052722,20430.0,1.6260555024328994030229330052722
227,20612.8269445667444920457298930809669,20611.2,1.6269445667444920457298930809669
228,20794.8278297221787957370430413653649,20793.2,1.6278297221787957370430413653649
229,20977.6287110029691150258841848397914,20976.0,1.6287110029691150258841848397914
230,21161.2295884429010087099899349777462,21159.6,1.6295884429010087099899349777462
231,21345.6304620753200638033656152201944,21344.0,1.6304620753200638033656152201944
232,21530.8313319331395052116601608141744,21529.2,1.6313319331395052116601608141744
233,21716.8321980488476361009504636608162,21715.2,1.6321980488476361009504636608162
234,21903.6330604545151251059852912586784,21902.0,1.6330604545151251059852912586784
235,22091.2339191818021335489724769099182,22089.6,1.6339191818021335489724769099182
236,22279.6347742619652923676614167208018,22278.0,1.6347742619652923676614167208018
237,22468.8356257258645323728314004821676,22467.2,1.6356257258645323728314004821676
238,22658.8364736039697695661797339837354,22657.2,1.6364736039697695661797339837354
