Eigenstate,Energy,Kinetic Energy,Potential Energy
1,0.500000002955259126310778223311830522,0.0,0.500000002955259126310778223311830522
2,1.84623095694277096428596545542862108,1.2,0.64623095694277096428596545542862108
3,3.93633766637842937043358895794153428,3.2,0.73633766637842937043358895794153428
4,6.79966539587504086062204491441208985,6.0,0.79966539587504086062204491441208985
5,10.4480467798275170937906555879921463,9.6,0.8480467798275170937906555879921463
6,14.8870663134490465148464301174820538,14.0,0.8870663134490465148464301174820538
7,20.1197212784115135627552317515280066,19.2,0.9197212784115135627552317515280066
8,26.1477844612353710006495020268146345,25.2,0.9477844612353710006495020268146345
9,32.9723843610317273868519954511907495,32.0,0.9723843610317273868519954511907495
10,40.5942812320373796653819597182893388,39.6,0.9942812320373796653819597182893388
11,49.0140106444753977209613793321930788,48.0,1.0140106444753977209613793321930788
12,58.2319636937315730339352563662032232,57.2,1.0319636937315730339352563662032232
13,68.2484345099549254097379508144125889,67.2,1.0484345099549254097379508144125889
14,79.0636497909155629671274510102359657,78.0,1.0636497909155629671274510102359657
15,90.6777879178199131125154156699924508,89.6,1.0777879178199131125154156699924508
16,103.090991760181846692623034541054073,102.0,1.090991760181846692623034541054073
17,116.303377509284646522069714138687138,115.2,1.103377509284646522069714138687138
18,130.315040929187540990344192848661577,129.2,1.115040929187540990344192848661577
19,145.126061879829935057039098449114868,144.0,1.126061879829935057039098449114868
20,160.736507654665548967406532264851278,159.6,1.136507654665548967406532264851278
21,177.146435486744285034959368542844335,176.0,1.146435486744285034959368542844335
22,194.355894459871116505683758690281633,193.2,1.155894459871116505683758690281633
23,212.364926986542747820443865687555603,211.2,1.164926986542747820443865687555603
24,231.173569965348164476256157985616527,230.0,1.173569965348164476256157985616527
25,250.781855697764682813076872685976434,249.6,1.181855697764682813076872685976434
26,271.189812621965659391005589555408873,270.0,1.189812621965659391005589555408873
27,292.397465905783188516036893816403904,291.2,1.197465905783188516036893816403904
28,314.404837930067265185554115965154759,313.2,1.204837930067265185554115965154759
29,337.211948685887862574971032309041229,336.0,1.211948685887862574971032309041229
30,360.818816103376885389294975158795005,359.6,1.218816103376885389294975158795005
31,385.225456325861021742915544869914968,384.0,1.225456325861021742915544869914968
32,410.431883939858616532727108459544761,409.2,1.231883939858616532727108459544761
33,436.438112169204041384990504943506487,435.2,1.238112169204041384990504943506487
34,463.244153039812489933005525897107234,462.0,1.244153039812489933005525897107234
35,490.850017520258932076676033578137568,489.6,1.250017520258932076676033578137568
36,519.255715642311481968536823472889055,518.0,1.255715642311481968536823472889055
37,548.461256604755349903510341531141423,547.2,1.261256604755349903510341531141423
38,578.466648863213129534603589074840880,577.2,1.266648863213129534603589074840880
39,609.271900208169323180605470576885022,608.0,1.271900208169323180605470576885022
40,640.877017833011187205747069204963428,639.6,1.277017833011187205747069204963428
41,673.282008393581229178259564877551523,672.0,1.282008393581229178259564877551523
42,706.486878060481695916568469289685422,705.2,1.286878060481695916568469289685422
43,740.491632565164905192416121959776176,739.2,1.291632565164905192416121959776176
44,775.296277240675179851982666126247472,774.0,1.296277240675179851982666126247472
45,810.900817057770573555948365126933690,809.6,1.300817057770573555948365126933690
46,847.305256657039441067110494296114180,846.0,1.305256657039441067110494296114180
47,884.509600377533429413364246682409114,883.2,1.309600377533429413364246682409114
48,922.513852282360879902328681778387447,921.2,1.313852282360879902328681778387447
49,961.318016181619968433833705728613449,960.0,1.318016181619968433833705728613449
50,1000.92209565299678885775567960453637,999.6,1.32209565299678885775567960453637
51,1041.32609406030811717821586482931998,1040.0,1.32609406030811717821586482931998
52,1082.53001457023024920792263010972503,1081.2,1.33001457023024920792263010972503
53,1124.53386016742285417603982738484826,1123.2,1.33386016742285417603982738484826
54,1167.33763366822922568077983722664213,1166.0,1.33763366822922568077983722664213
55,1210.94133773311083590579729118830758,1209.6,1.34133773311083590579729118830758
56,1255.34497487795402447093170548248603,1254.0,1.34497487795402447093170548248603
57,1300.54854748436945434552301857843868,1299.2,1.34854748436945434552301857843868
58,1346.55205780909017009037615651712262,1345.2,1.35205780909017009037615651712262
59,1393.35550799256133977258835532587503,1392.0,1.35550799256133977258835532587503
60,1440.95890006680373741666102547155106,1439.6,1.35890006680373741666102547155106
61,1489.36223596262345865619088793763972,1488.0,1.36223596262345865619088793763972
62,1538.56551751623206127527260321564495,1537.2,1.36551751623206127527260321564495
63,1588.56874647533408047137815185717131,1587.2,1.36874647533408047137815185717131
64,1639.37192450473255622496448245615806,1638.0,1.37192450473255622496448245615806
65,1690.97505319149767535639041407970565,1689.6,1.37505319149767535639041407970565
66,1743.37813404973878354895740831303061,1742.0,1.37813404973878354895740831303061
67,1796.58116852501576036497480974280554,1795.2,1.38116852501576036497480974280554
68,1850.58415799842199416260786438437317,1849.2,1.38415799842199416260786438437317
69,1905.38710379036788119461631529170469,1904.0,1.38710379036788119461631529170469
70,1960.99000716409084494838407744913232,1959.6,1.39000716409084494838407744913232
71,2017.39286932891527313230291876715278,2016.0,1.39286932891527313230291876715278
72,2074.59569144328347152332012794418599,2073.2,1.39569144328347152332012794418599
73,2132.59847461757668093941250148119936,2131.2,1.39847461757668093941250148119936
74,2191.40121991674338481070761977253754,2190.0,1.40121991674338481070761977253754
75,2251.00392836275050378397437102235603,2249.6,1.40392836275050378397437102235603
76,2311.40660093687162430421450692811060,2310.0,1.40660093687162430421450692811060
77,2372.60923858182510578848801821883884,2371.2,1.40923858182510578848801821883884
78,2434.61184220377374528294868360044267,2433.2,1.41184220377374528294868360044267
79,2497.41441267419663175267122305134069,2496.0,1.41441267419663175267122305134069
80,2561.01695083164288411166980174780367,2559.6,1.41695083164288411166980174780367
81,2625.41945748337611784769517633665440,2624.0,1.41945748337611784769517633665440
82,2690.62193340691772374006592151414461,2689.2,1.42193340691772374006592151414461
83,2756.62437935149635353520549423419197,2755.2,1.42437935149635353520549423419197
84,2823.42679603941038325939870260141208,2822.0,1.42679603941038325939870260141208
85,2891.02918416730956568555399886536911,2889.6,1.42918416730956568555399886536911
86,2959.43154440740156772608565098836193,2958.0,1.43154440740156772608565098836193
87,3028.63387740858863118191013194183620,3027.2,1.43387740858863118191013194183620
88,3098.63618379753917203684570992161032,3097.2,1.43618379753917203684570992161032
89,3169.43846417969875013070673653400448,3168.0,1.43846417969875013070673653400448
90,3241.04071914024449798355158775315905,3239.6,1.44071914024449798355158775315905
91,3313.44294924498677625785907627037252,3312.0,1.44294924498677625785907627037252
92,3386.64515504122153522550110654761908,3385.2,1.44515504122153522550110654761908
93,3460.64733705853659954109632060713371,3459.2,1.44733705853659954109632060713371
94,3535.44949580957485089740689841102083,3534.0,1.44949580957485089740689841102083
95,3611.05163179075706220131980977717811,3609.6,1.45163179075706220131980977717811
96,3687.45374548296693531884811288853568,3686.0,1.45374548296693531884811288853568
97,3764.65583735220071034395163124058279,3763.2,1.45583735220071034395163124058279
98,3842.65790785018354173767385704291506,3841.2,1.45790785018354173767385704291506
99,3921.45995741495468349709782144594641,3920.0,1.45995741495468349709782144594641
100,4001.06198647142337947886495097136744,3999.6,1.46198647142337947886495097136744
101,4081.46399543189722602588693263685754,4080.0,1.46399543189722602588693263685754
102,4162.66598469658464882323419937701047,4161.2,1.46598469658464882323419937701047
103,4244.66795465407302837374209866459728,4243.2,1.46795465407302837374209866459728
104,4327.46990568178390162560774206106411,4326.0,1.46990568178390162560774206106411
105,4411.07183814640657464755722549054670,4409.6,1.47183814640657464755722549054670
106,4495.47375240431139095322649648860202,4494.0,1.47375240431139095322649648860202
107,4580.67564880194382250082137369916937,4579.2,1.47564880194382250082137369916937
108,4666.67752767620047170009250856610781,4665.2,1.47752767620047170009250856610781
109,4753.47938935478800475332419964019449,4752.0,1.47938935478800475332419964019449
110,4841.08123415656597487136581574862962,4839.6,1.48123415656597487136581574862962
111,4929.48306239187442872951025517076634,4928.0,1.48306239187442872951025517076634
112,5018.68487436284714083421964864868315,5017.2,1.48487436284714083421964864868315
113,5108.68667036371126573578168087072702,5107.2,1.48667036371126573578168087072702
114,5199.48845068107415012937796357408057,5198.0,1.48845068107415012937796357408057
115,5291.09021559419800737512572413925211,5289.6,1.49021559419800737512572413925211
116,5383.49196537526310965063121725664306,5382.0,1.49196537526310965063121725664306
117,5476.69370028962012233654232997647747,5475.2,1.49370028962012233654232997647747
118,5570.69542059603216539785393844812538,5569.2,1.49542059603216539785393844812538
119,5665.49712654690715410576615876438035,5664.0,1.49712654690715410576615876438035
120,5761.09881838852094701061930550163994,5759.6,1.49881838852094701061930550163994
121,5857.50049636123179234043278789300915,5856.0,1.50049636123179234043278789300915
122,5954.70216069968654675291368325174985,5953.2,1.50216069968654675291368325174985
123,6052.70381163301910999128934780006921,6051.2,1.50381163301910999128934780006921
124,6151.50544938504150329359711730670057,6150.0,1.50544938504150329359711730670057
125,6251.10707417442799199844169800771718,6249.6,1.50707417442799199844169800771718
126,6351.50868621489263995149139915662304,6350.0,1.50868621489263995149139915662304
127,6452.71028571536066531731343460233810,6451.2,1.51028571536066531731343460233810
128,6554.71187288013394763492899193547024,6553.2,1.51187288013394763492899193547024
129,6657.51344790905102697158769470427928,6656.0,1.51344790905102697158769470427928
130,6761.11501099764192103410736850808112,6759.6,1.51501099764192103410736850808112
131,6865.51656233727807440923939887730762,6864.0,1.51656233727807440923939887730762
132,6970.71810211531774320923675475632991,6969.2,1.51810211531774320923675475632991
133,7076.71963051524711110538588785239774,7075.2,1.51963051524711110538588785239774
134,7183.52114771681742639659664744091752,7182.0,1.52114771681742639659664744091752
135,7291.12265389617843709520324459639896,7289.6,1.52265389617843709520324459639896
136,7399.52414922600840332914538035145490,7398.0,1.52414922600840332914538035145490
137,7508.72563387564095968298969269133769,7507.2,1.52563387564095968298969269133769
138,7618.72710801118909381944637799228175,7617.2,1.52710801118909381944637799228175
139,7729.52857179566651373235127021836008,7728.0,1.52857179566651373235127021836008
140,7841.13002538910666952955356816023792,7839.6,1.53002538910666952955356816023792
141,7953.53146894867970106598155651125945,7952.0,1.53146894867970106598155651125945
142,8066.73290262880758576108029320599327,8065.2,1.53290262880758576108029320599327
143,8180.73432658127776461878142737839595,8179.2,1.53432658127776461878142737839595
144,8295.53574095535553102804593489916848,8294.0,1.53574095535553102804593489916848
145,8411.13714589789547806009608544306355,8409.6,1.53714589789547806009608544306355
146,8527.53854155345230922945135884340497,8526.0,1.53854155345230922945135884340497
147,8644.73992806439132863323049805067960,8643.2,1.53992806439132863323049805067960
148,8762.74130557099894887944110195788593,8761.2,1.54130557099894887944110195788593
149,8881.54267421159356575802075051650462,8880.0,1.54267421159356575802075051650462
150,9001.14403412263717749806166013463434,8999.6,1.54403412263717749806166013463434
151,9121.54538543884814917335106696632193,9120.0,1.54538543884814917335106696632193
152,9242.74672829331555152704174202657565,9241.2,1.54672829331555152704174202657565
153,9364.74806281761554089834462056218927,9363.2,1.54806281761554089834462056218927
154,9487.54938914193028573348219746450873,9486.0,1.54938914193028573348219746450873
155,9611.15070739516998919443814270597758,9609.6,1.55070739516998919443814270597758
156,9735.55201770509861343202709995806819,9734.0,1.55201770509861343202709995806819
157,9860.75332019846396845352952040142017,9859.2,1.55332019846396845352952040142017
158,9986.75461500113290244176167729641099,9985.2,1.55461500113290244176167729641099
159,10113.5559022382324057866638438343145,10112.0,1.5559022382324057866638438343145
160,10241.1571820342975393751574082851701,10239.6,1.5571820342975393751574082851701
161,10369.5584545134271995137911332539013,10368.0,1.5584545134271995137911332539013
162,10498.7597197994488588886759298146115,10497.2,1.5597197994488588886759298146115
163,10628.7609780160935636029977337755925,10627.2,1.5609780160935636029977337755925
164,10759.5622292871826338543970327967397,10758.0,1.5622292871826338543970327967397
165,10891.1634737368277039717061101783860,10889.6,1.5634737368277039717061101783860
166,11023.5647114896459648399887916669313,11022.0,1.5647114896459648399887916669313
167,11156.7659426709927307570380766330806,11155.2,1.5659426709927307570380766330806
168,11290.7671674072137542988318390884786,11289.2,1.5671674072137542988318390884786
169,11425.5683858259200733228660798233294,11424.0,1.5683858259200733228660798233294
170,11561.1695980562885893012857525113959,11559.6,1.5695980562885893012857525113959
171,11697.5708042293920715221366354869775,11696.0,1.5708042293920715221366354869775
172,11834.7720044785628638386732446617406,11833.2,1.5720044785628638386732446617406
173,11972.7731989397952607188481364119047,11971.2,1.5731989397952607188481364119047
174,12111.5743877521923431964607980413835,12110.0,1.5743877521923431964607980413835
175,12251.1755710584640459901097232299566,12249.6,1.5755710584640459901097232299566
176,12391.5767490054843995443006039446959,12390.0,1.5767490054843995443006039446959
177,12532.7779217449173092132356062529023,12531.2,1.5779217449173092132356062529023
178,12674.7790894339219378902084575506476,12673.2,1.5790894339219378902084575506476
179,12817.5802522359508267192543431652432,12816.0,1.5802522359508267192543431652432
180,12961.1814103216564152139110437227141,12959.6,1.5814103216564152139110437227141
181,13105.5825638699246997772574712539542,13104.0,1.5825638699246997772574712539542
182,13250.7837130690585689675796269722869,13249.2,1.5837130690585689675796269722869
183,13396.7848581181380384829441458368672,13395.2,1.5848581181380384829441458368672
184,13543.5859992285904368015271135804254,13542.0,1.5859992285904368015271135804254
185,13691.1871366260108715255001031430745,13689.6,1.5871366260108715255001031430745
186,13839.5882705522824599743199184460446,13838.0,1.5882705522824599743199184460446
187,13988.7894012680573924350619294259616,13987.2,1.5894012680573924350619294259616
188,14138.7905290556746402740521662967809,14137.2,1.5905290556746402740521662967809
189,14289.5916542226090534159757767988692,14288.0,1.5916542226090534159757767988692
190,14441.1927771055710430458156785610546,14439.6,1.5927771055710430458156785610546
191,14593.5938980754079175367560804892728,14592.0,1.5938980754079175367560804892728
192,14746.7950175429998151550728459048738,14745.2,1.5950175429998151550728459048738
193,14900.7961359663987156237953996673772,14899.2,1.5961359663987156237953996673772
194,15055.5972538595333795123120963794644,15054.0,1.5972538595333795123120963794644
195,15211.1983718029037125360732617625340,15209.6,1.5983718029037125360732617625340
196,15367.5994904568257858751380640437020,15366.0,1.5994904568257858751380640437020
197,15524.8006105779795534191477587706013,15523.2,1.6006105779795534191477587706013
198,15682.8017330402791317030148092838755,15681.2,1.6017330402791317030148092838755
199,15841.6028588614668349635496730123469,15840.0,1.6028588614668349635496730123469
200,16001.2039892373835951327121120374857,15999.6,1.6039892373835951327121120374857
201,16161.6051255866794923515265752566585,16160.0,1.6051255866794923515265752566585
202,16322.8062696099436408789622556205528,16321.2,1.6062696099436408789622556205528
203,16484.8074233690921847026825780677119,16483.2,1.6074233690921847026825780677119
204,16647.6085893957636756494010905947311,16646.0,1.6085893957636756494010905947311
205,16811.2097708421444871937751289112133,16809.6,1.6097708421444871937751289112133
206,16975.6109716953694184383481452454623,16974.0,1.6109716953694184383481452454623
207,17140.8121970898253396811512499588798,17139.2,1.6121970898253396811512499588798
208,17306.8134537750411793423395559996265,17305.2,1.6134537750411793423395559996265
209,17473.6147508400396321070566673596485,17472.0,1.6147508400396321070566673596485
210,17641.2161008790101901367395145847341,17639.6,1.6161008790101901367395145847341
211,17809.6175219564706820098090438745714,17808.0,1.6175219564706820098090438745714
212,17978.8190411143379096266459319069120,17977.2,1.6190411143379096266459319069120
213,18148.8207010942593668785323101958845,18147.2,1.6207010942593668785323101958845
214,18319.6225744730315621130815754847282,18318.0,1.6225744730315621130815754847282
215,18491.2247973563331410228189658268602,18489.6,1.6247973563331410228189658268602
216,18663.6276656299413248915750030387942,18662.0,1.6276656299413248915750030387942
217,18836.8320025583323392712947655028782,18835.2,1.6320025583323392712947655028782
218,19010.8416638165849318575258114064304,19009.2,1.6416638165849318575258114064304
