Eigenstate,Energy,Kinetic Energy,Potential Energy
1,0.500000000072170777960444943728092640,0.0,0.500000000072170777960444943728092640
2,1.84623093812220853702828255710559715,1.2,0.64623093812220853702828255710559715
3,3.93633761108877899157615947649892547,3.2,0.73633761108877899157615947649892547
4,6.79966528069655185930383420567667592,6.0,0.79966528069655185930383420567667592
5,10.4480465802784610855604207933068550,9.6,0.8480465802784610855604207933068550
6,14.8870660045961691236969243060219379,14.0,0.8870660045961691236969243060219379
7,20.1197208350911382138323924652750838,19.2,0.9197208350911382138323924652750838
8,26.1477838581420668088118649020905959,25.2,0.9477838581420668088118649020905959
9,32.9723835727562723669706796973407566,32.0,0.9723835727562723669706796973407566
10,40.5942802330830030070563966948633698,39.6,0.9942802330830030070563966948633698
11,49.0140094092637779084400450318626527,48.0,1.0140094092637779084400450318626527
12,58.2319621966035960369416196641052104,57.2,1.0319621966035960369416196641052104
13,68.2484327251685699151439835240353152,67.2,1.0484327251685699151439835240353152
14,79.0636476926421113070704790610022204,78.0,1.0636476926421113070704790610022204
15,90.6777854801391306775455773254451656,89.6,1.0777854801391306775455773254451656
16,103.090988957076491480892920761806484,102.0,1.090988957076491480892920761806484
17,116.303374314634520597189891432909103,115.2,1.103374314634520597189891432909103
18,130.315037316763211975766250708063997,129.2,1.115037316763211975766250708063997
19,145.126057823286207201801301301441169,144.0,1.126057823286207201801301301441169
20,160.736503127534734066509569815033043,159.6,1.136503127534734066509569815033043
21,177.146430462429305309774752579471505,176.0,1.146430462429305309774752579471505
22,194.355888911638459923141730110150651,193.2,1.155888911638459923141730110150651
23,212.364920887515288693648194869596121,211.2,1.164920887515288693648194869596121
24,231.173563288497857048211863188967000,230.0,1.173563288497857048211863188967000
25,250.781848415905131981312169378519540,249.6,1.181848415905131981312169378519540
26,271.189804707744570230866249228290484,270.0,1.189804707744570230866249228290484
27,292.397457331674694455641717840208922,291.2,1.197457331674694455641717840208922
28,314.404828668364133351349478725219619,313.2,1.204828668364133351349478725219619
29,337.211938708693573816148125183991556,336.0,1.211938708693573816148125183991556
30,360.818805382597585703539696744472612,359.6,1.218805382597585703539696744472612
31,385.225444833197341198094342204606284,384.0,1.225444833197341198094342204606284
32,410.431871646797351262940170969707664,409.2,1.231871646797351262940170969707664
33,436.438099047009693802533274091309275,435.2,1.238099047009693802533274091309275
34,463.244139059518661917122536143658363,462.0,1.244139059518661917122536143658363
35,490.850002652659565558931330735349720,489.6,1.250002652659565558931330735349720
36,519.255699857951941021017437716627866,518.0,1.255699857951941021017437716627866
37,548.461239873923338140875950671013159,547.2,1.261239873923338140875950671013159
38,578.466631155929436357423045120222408,577.2,1.266631155929436357423045120222408
39,609.271881494178392110263555935095679,608.0,1.271881494178392110263555935095679
40,640.876998081771499286433656710290033,639.6,1.276998081771499286433656710290033
41,673.281987574255494145960018662599936,672.0,1.281987574255494145960018662599936
42,706.486856141926843555971212274776010,705.2,1.286856141926843555971212274776010
43,740.491609515921869018102151131780300,739.2,1.291609515921869018102151131780300
44,775.296253028958464958366269538331527,774.0,1.296253028958464958366269538331527
45,810.900791651457600179624226639536312,809.6,1.300791651457600179624226639536312
46,847.305230023659655094145621388358652,846.0,1.305230023659655094145621388358652
47,884.509572484257170741397540082075290,883.2,1.309572484257170741397540082075290
48,922.513823095987999231920839307778924,921.2,1.313823095987999231920839307778924
49,961.317985668568182714238190273821246,960.0,1.317985668568182714238190273821246
50,1000.92206377928976524806820270948966,999.6,1.32206377928976524806820270948966
51,1041.32606079156327500463397552750494,1040.0,1.32606079156327500463397552750494
52,1082.52997987164626900054372234675831,1081.2,1.32997987164626900054372234675831
53,1124.53382400376688245316578952413871,1123.2,1.33382400376688245316578952413871
54,1167.33759600382376371395664089270064,1166.0,1.33759600382376371395664089270064
55,1210.94129853182030024368186135750929,1209.6,1.34129853182030024368186135750929
56,1255.34493410317096652333972397252789,1254.0,1.34493410317096652333972397252789
57,1300.54850509900042582947311261566857,1299.2,1.34850509900042582947311261566857
58,1346.55201377554122061626107377742325,1345.2,1.35201377554122061626107377742325
59,1393.35546227272313229950230987236350,1392.0,1.35546227272313229950230987236350
60,1440.95885262203626672989834792990866,1439.6,1.35885262203626672989834792990866
61,1489.36218675374035741553682577172295,1488.0,1.36218675374035741553682577172295
62,1538.56546650348447754836002930013668,1537.2,1.36546650348447754836002930013668
63,1588.56869361839411000038128119576060,1587.2,1.36869361839411000038128119576060
64,1639.37186976267621197548826629660854,1638.0,1.37186976267621197548826629660854
65,1690.97499652278737616269837097532394,1689.6,1.37499652278737616269837097532394
66,1743.37807541220534289767568195042260,1742.0,1.37807541220534289767568195042260
67,1796.58110787583985554799257231422423,1795.2,1.38110787583985554799257231422423
68,1850.58409529411509517680943015671652,1849.2,1.38409529411509517680943015671652
69,1905.38703898675261786891861687192201,1904.0,1.38703898675261786891861687192201
70,1960.98994021628078983483366220277239,1959.6,1.38994021628078983483366220277239
71,2017.39280019129411670487370216832500,2016.0,1.39280019129411670487370216832500
72,2074.59562006948356518281198970178068,2073.2,1.39562006948356518281198970178068
73,2132.59840096045692222225414229088348,2131.2,1.39840096045692222225414229088348
74,2191.40114392836641804035803577278098,2190.0,1.40114392836641804035803577278098
75,2251.00384999435920818240435386172314,2249.6,1.40384999435920818240435386172314
76,2311.40652013886486029397075248159493,2310.0,1.40652013886486029397075248159493
77,2372.60915530373268885904472994077945,2371.2,1.40915530373268885904472994077945
78,2434.61175639423061536422951084852237,2433.2,1.41175639423061536422951084852237
79,2497.41432428091618452920495907383581,2496.0,1.41432428091618452920495907383581
80,2561.01685980138942911796070099032157,2559.6,1.41685980138942911796070099032157
81,2625.41936376193642650384218835593555,2624.0,1.41936376193642650384218835593555
82,2690.62183693907162871089651042015963,2689.2,1.42183693907162871089651042015963
83,2756.62428008098635892021501333637243,2755.2,1.42428008098635892021501333637243
84,2823.42669390891024313825370486047209,2822.0,1.42669390891024313825370486047209
85,2891.02907911839178644793848046505825,2889.6,1.42907911839178644793848046505825
86,2959.43143638050378739797281307959604,2958.0,1.43143638050378739797281307959604
87,3028.63376634297882661496587220172694,3027.2,1.43376634297882661496587220172694
88,3098.63606963127964234526294500886954,3097.2,1.43606963127964234526294500886954
89,3169.43834684960882213119870186984277,3168.0,1.43834684960882213119870186984277
90,3241.04059858186189660976451480541088,3239.6,1.44059858186189660976451480541088
91,3313.44282539252759996963039841924249,3312.0,1.44282539252759996963039841924249
92,3386.64502782753877330492282011312774,3385.2,1.44502782753877330492282011312774
93,3460.64720641507712484910423423833902,3459.2,1.44720641507712484910423423833902
94,3535.44936166633481814356195884142469,3534.0,1.44936166633481814356195884142469
95,3611.05149407623563804148512205038709,3609.6,1.45149407623563804148512205038709
96,3687.45360412411828262549181199925711,3686.0,1.45360412411828262549181199925711
97,3764.65569227438414477535941376341127,3763.2,1.45569227438414477535941376341127
98,3842.65775897711177424791585665098386,3841.2,1.45775897711177424791585665098386
99,3921.45980466864005765896107054465046,3920.0,1.45980466864005765896107054465046
100,4001.06182977212200741667139665742623,3999.6,1.46182977212200741667139665742623
101,4081.46383469805092135178562799452574,4080.0,1.46383469805092135178562799452574
102,4162.66581984476054921515013806928088,4161.2,1.46581984476054921515013806928088
103,4244.66778559890079429958770276460322,4243.2,1.46778559890079429958770276460322
104,4327.46973233589037117834486821719185,4326.0,1.46973233589037117834486821719185
105,4411.07166042034774747861488469214794,4409.6,1.47166042034774747861488469214794
106,4495.47357020650160684439051350359818,4494.0,1.47357020650160684439051350359818
107,4580.67546203858199216094512268124223,4579.2,1.47546203858199216094512268124223
108,4666.67733625119320887368652972791920,4665.2,1.47733625119320887368652972791920
109,4753.47919316966949964059378279551119,4752.0,1.47919316966949964059378279551119
110,4841.08103311041443913732222900501175,4839.6,1.48103311041443913732222900501175
111,4929.48285638122493197286359677703455,4928.0,1.48285638122493197286359677703455
112,5018.68466328160064724001481644748626,5017.2,1.48466328160064724001481644748626
113,5108.68645410303966768911494056933348,5107.2,1.48645410303966768911494056933348
114,5199.48822912932108275575356981583428,5198.0,1.48822912932108275575356981583428
115,5291.08998863677521422465152544219711,5289.6,1.48998863677521422465152544219711
116,5383.49173289454211498026663082986253,5382.0,1.49173289454211498026663082986253
117,5476.69346216481894958167065153590710,5475.2,1.49346216481894958167065153590710
118,5570.69517670309682436813795120790915,5569.2,1.49517670309682436813795120790915
119,5665.49687675838760108817042437022391,5664.0,1.49687675838760108817042437022391
120,5761.09856257344120220244839218687150,5759.6,1.49856257344120220244839218687150
121,5857.50023438495387774395281018481081,5856.0,1.50023438495387774395281018481081
122,5954.70189242376788470537175811840605,5953.2,1.50189242376788470537175811840605
123,6052.70353691506299773097217555887066,6051.2,1.50353691506299773097217555887066
124,6151.50516807854025221030922869412567,6150.0,1.50516807854025221030922869412567
125,6251.10678612859829130488301041371619,6249.6,1.50678612859829130488301041371619
126,6351.50839127450267324155447277022677,6350.0,1.50839127450267324155447277022677
127,6452.70998372054847462864641592852173,6451.2,1.50998372054847462864641592852173
128,6554.71156366621650296346584311935768,6553.2,1.51156366621650296346584311935768
129,6657.51313130632341942674547230438537,6656.0,1.51313130632341942674547230438537
130,6761.11468683116605467763564379153875,6759.6,1.51468683116605467763564379153875
131,6865.51623042666018495875951926476142,6864.0,1.51623042666018495875951926476142
132,6970.71776227447402084364441549839704,6969.2,1.51776227447402084364441549839704
133,7076.71928255215664917725719580865754,7075.2,1.51928255215664917725719580865754
134,7183.52079143326165748441438058824136,7182.0,1.52079143326165748441438058824136
135,7291.12228908746615201249429926810001,7289.6,1.52228908746615201249429926810001
136,7399.52377568068537688734842247358286,7398.0,1.52377568068537688734842247358286
137,7508.72525137518312855336637299389547,7507.2,1.52525137518312855336637299389547
138,7618.72671632967814605665775757549854,7617.2,1.52671632967814605665775757549854
139,7729.52817069944665562440926768293878,7728.0,1.52817069944665562440926768293878
140,7841.12961463642123254750686507995400,7839.6,1.52961463642123254750686507995400
141,7953.53104828928613881602319683159406,7952.0,1.53104828928613881602319683159406
142,8066.73247180356928688390389532061836,8065.2,1.53247180356928688390389532061836
143,8180.73388532173097128901671882735538,8179.2,1.53388532173097128901671882735538
144,8295.53528898324950267509114020413004,8294.0,1.53528898324950267509114020413004
145,8411.13668292470387457431672126964953,8409.6,1.53668292470387457431672126964953
146,8527.53806727985358544061823531082000,8526.0,1.53806727985358544061823531082000
147,8644.73944217971573022065946605374562,8643.2,1.53944217971573022065946605374562
148,8762.74080775263947679159429237100634,8761.2,1.54080775263947679159429237100634
149,8881.54216412437802906651032638451267,8880.0,1.54216412437802906651032638451267
150,9001.14351141815818040843204333817567,8999.6,1.54351141815818040843204333817567
151,9121.54484975474755326712851970025828,9120.0,1.54484975474755326712851970025828
152,9242.74617925251961533788476850971599,9241.2,1.54617925251961533788476850971599
153,9364.74750002751656119192040563544879,9363.2,1.54750002751656119192040563544879
154,9487.54881219351014327768672004963155,9486.0,1.54881219351014327768672004963155
155,9611.15011586206053052902446792366862,9609.6,1.55011586206053052902446792366862
156,9735.55141114257327244653447840186203,9734.0,1.55141114257327244653447840186203
157,9860.75269814235443969875283174914366,9859.2,1.55269814235443969875283174914366
158,9986.75397696666401306122126529023345,9985.2,1.55397696666401306122126529023345
159,10113.5552477187675843662745104944617,10112.0,1.5552477187675843662745104944617
160,10241.1565104999864358010717551641787,10239.6,1.5565104999864358010717551641787
161,10369.5577654097460560499801294142833,10368.0,1.5577654097460560499801294142833
162,10498.7590125456231527423994300937191,10497.2,1.5590125456231527423994300937191
163,10628.7602520033912160593145537162867,10627.2,1.5602520033912160593145537162867
164,10759.5614838770646881351592909156007,10758.0,1.5614838770646881351592909156007
165,10891.1627082589417868551971251039278,10889.6,1.5627082589417868551971251039278
166,11023.5639252396460345639958751675559,11022.0,1.5639252396460345639958751675559
167,11156.7651349081665389173046133947422,11155.2,1.5651349081665389173046133947422
168,11290.7663373518970685662356574958679,11289.2,1.5663373518970685662356574958679
169,11425.5675326566739687358306395879520,11424.0,1.5675326566739687358306395879520
170,11561.1687209068129564411166968542301,11559.6,1.5687209068129564411166968542301
171,11697.5699021851448355351026619301468,11696.0,1.5699021851448355351026619301468
172,11834.7710765730501694553635060211083,11833.2,1.5710765730501694553635060211083
173,11972.7722441504929470715337973174978,11971.2,1.5722441504929470715337973174978
174,12111.5734049960532774772148819906039,12110.0,1.5734049960532774772148819906039
175,12251.1745591869591477112194894527383,12249.6,1.5745591869591477112194894527383
176,12391.5757067991172731144976533273762,12390.0,1.5757067991172731144976533273762
177,12532.7768479071430735832727143669345,12531.2,1.5768479071430735832727143669345
178,12674.7779825843898048727751871537224,12673.2,1.5779825843898048727751871537224
179,12817.5791109029768713965122270898994,12816.0,1.5791109029768713965122270898994
180,12961.1802329338173514674637412446970,12959.6,1.5802329338173514674637412446970
181,13105.5813487466447576297837640066975,13104.0,1.5813487466447576297837640066975
182,13250.7824584100390597763851196519440,13249.2,1.5824584100390597763851196519440
183,13396.7835619914519941016743426419506,13395.2,1.5835619914519941016743426419506
184,13543.5846595572316821309661791992671,13542.0,1.5846595572316821309661791992671
185,13691.1857511726465816346946829708724,13689.6,1.5857511726465816346946829708724
186,13839.5868369019087903960333720756601,13838.0,1.5868369019087903960333720756601
187,13988.7879168081967266324166851004416,13987.2,1.5879168081967266324166851004416
188,14138.7889909536772015072708863645733,14137.2,1.5889909536772015072708863645733
189,14289.5900593995269074630367663443203,14288.0,1.5900593995269074630367663443203
190,14441.1911222059533380265530942231193,14439.6,1.5911222059533380265530942231193
191,14593.5921794322151583093448347307208,14592.0,1.5921794322151583093448347307208
192,14746.7932311366420425850105402288536,14745.2,1.5932311366420425850105402288536
193,14900.7942773766539972475470110598354,14899.2,1.5942773766539972475470110598354
194,15055.5953182087801824913860854300360,15054.0,1.5953182087801824913860854300360
195,15211.1963536886772506454918406894780,15209.6,1.5963536886772506454918406894780
196,15367.5973838711472148534094325843756,15366.0,1.5973838711472148534094325843756
197,15524.7984088101548624745763936032923,15523.2,1.5984088101548624745763936032923
198,15682.7994285588447273688664542113008,15681.2,1.5994285588447273688664542113008
199,15841.6004431695576338982102681322588,15840.0,1.6004431695576338982102681322588
200,16001.2014526938468265854830823267839,15999.6,1.6014526938468265854830823267839
201,16161.6024571824936964070683107791788,16160.0,1.6024571824936964070683107791788
202,16322.8034566855231170952385738275190,16321.2,1.6034566855231170952385738275190
203,16484.8044512522184021050662315498687,16483.2,1.6044512522184021050662315498687
204,16647.6054409311358938607570234021889,16646.0,1.6054409311358938607570234021889
205,16811.2064257701191952467492177544995,16809.6,1.6064257701191952467492177544995
206,16975.6074058163130563623080511869284,16974.0,1.6074058163130563623080511869284
207,17140.8083811161769224102730220968186,17139.2,1.6083811161769224102730220968186
208,17306.8093517154981569413953861290113,17305.2,1.6093517154981569413953861290113
209,17473.6103176594049461971273406035388,17472.0,1.6103176594049461971273406035388
210,17641.2112789923788960464952131191575,17639.6,1.6112789923788960464952131191575
211,17809.6122357582673288760477305173180,17808.0,1.6122357582673288760477305173180
212,17978.8131880002952906600361890745944,17977.2,1.6131880002952906600361890745944
213,18148.8141357610772725887500639414753,18147.2,1.6141357610772725887500639414753
214,18319.6150790826286622307268412231482,18318.0,1.6150790826286622307268412231482
215,18491.2160180063769234350979057220076,18489.6,1.6160180063769234350979057220076
216,18663.6169525731725189285572896107070,18662.0,1.6169525731725189285572896107070
217,18836.8178828232995795660265292176780,18835.2,1.6178828232995795660265292176780
218,19010.8188087964863292074959879332866,19009.2,1.6188087964863292074959879332866
219,19185.6197305319152684940110132732458,19184.0,1.6197305319152684940110132732458
220,19361.2206480682331300309615339373350,19359.6,1.6206480682331300309615339373350
221,19537.6215614435606028809978334410036,19536.0,1.6215614435606028809978334410036
222,19714.8224706955018435639713622848153,19713.2,1.6224706955018435639713622848153
223,19892.8233758611537671247639311994025,19891.2,1.6233758611537671247639311994025
224,20071.6242769771151333283381976013664,20070.0,1.6242769771151333283381976013664
225,20251.2251740794954305385865038498624,20249.6,1.6251740794954305385865038498624
226,20431.6260672039235608189528953742440,20430.0,1.6260672039235608189528953742440
227,20612.8269563855563348977108619981437,20611.2,1.6269563855563348977108619981437
228,20794.8278416590867788081323996874125,20793.2,1.6278416590867788081323996874125
229,20977.6287230587522593557277430114273,20976.0,1.6287230587522593557277430114273
230,21161.2296006183424330988296546071516,21159.6,1.6296006183424330988296546071516
231,21345.6304743712070206318227765607325,21344.0,1.6304743712070206318227765607325
232,21530.8313443502634165799692632442891,21529.2,1.6313443502634165799692632442891
233,21716.8322105880041302913659777157886,21715.2,1.6322105880041302913659777157886
234,21903.6330731165040733721312869883338,21902.0,1.6330731165040733721312869883338
235,22091.2339319674276872359528299556154,22089.6,1.6339319674276872359528299556154
236,22279.6347871720359203667980686305455,22278.0,1.6347871720359203667980686305455
237,22468.8356387611930589149474538073905,22467.2,1.6356387611930589149474538073905
238,22658.8364867653734123573947687428620,22657.2,1.6364867653734123573947687428620
