Eigenstate,Energy,Kinetic Energy,Potential Energy
1,0.500000000047591487750063331533249454,0.0,0.500000000047591487750063331533249454
2,1.84623093796176714698467647728760501,1.2,0.64623093796176714698467647728760501
3,3.93633761061749265097165526053776725,3.2,0.73633761061749265097165526053776725
4,6.79966527971490851079539211529264758,6.0,0.79966527971490851079539211529264758
5,10.4480465785780368979740721588559621,9.6,0.8480465785780368979740721588559621
6,14.8870660019648818070625869754244453,14.0,0.8870660019648818070625869754244453
7,20.1197208313151811750636424787143481,19.2,0.9197208313151811750636424787143481
8,26.1477838530067144386826354625764609,25.2,0.9477838530067144386826354625764609
9,32.9723835660462532718773770410736857,32.0,0.9723835660462532718773770410736857
10,40.5942802245826883094354896724421415,39.6,0.9942802245826883094354896724421415
11,49.0140093987572824885382650496919550,48.0,1.0140093987572824885382650496919550
12,58.2319621838748354094208802612361284,57.2,1.0319621838748354094208802612361284
13,68.2484327100012929517209941112259741,67.2,1.0484327100012929517209941112259741
14,79.0636476748199190570949881226854248,78.0,1.0636476748199190570949881226854248
15,90.6777854594454868002923696272140547,89.6,1.0777854594454868002923696272140547
16,103.090988933294727407286346868160875,102.0,1.090988933294727407286346868160875
17,116.303374287547837261607663320202367,115.2,1.103374287547837261607663320202367
18,130.315037286154679246145821574256781,129.2,1.115037286154679246145821574256781
19,145.126057788938761722680604943613634,144.0,1.126057788938761722680604943613634
20,160.736503089231175980951917446582919,159.6,1.136503089231175980951917446582919
21,177.146430419952294171879029181322785,176.0,1.146430419952294171879029181322785
22,194.355888864770510014474502347910675,193.2,1.155888864770510014474502347910675
23,212.364920836038763892628553851846193,211.2,1.164920836038763892628553851846193
24,231.173563232194965358487804857703875,230.0,1.173563232194965358487804857703875
25,250.781848354557919795835941156710824,249.6,1.181848354557919795835941156710824
26,271.189804641134916387992472322457488,270.0,1.189804641134916387992472322457488
27,292.397457259584304129166179286775249,291.2,1.197457259584304129166179286775249
28,314.404828590574531806067131515766456,313.2,1.204828590574531806067131515766456
29,337.211938624986100052982156121250494,336.0,1.211938624986100052982156121250494
30,360.818805292753386012742310027504703,359.6,1.218805292753386012742310027504703
31,385.225444736997362634875841614607973,384.0,1.225444736997362634875841614607973
32,410.431871544022335056754439916289035,409.2,1.231871544022335056754439916289035
33,436.438098937440168708861180771858048,435.2,1.238098937440168708861180771858048
34,463.244138942934937518756383145801306,462.0,1.244138942934937518756383145801306
35,490.850002528841725522334367895244616,489.6,1.250002528841725522334367895244616
36,519.255699726679836312212045251271253,518.0,1.255699726679836312212045251271253
37,548.461239734976580204428561092081618,547.2,1.261239734976580204428561092081618
38,578.466631009087390261388748812917746,577.2,1.266631009087390261388748812917746
39,609.271881339220169659387786750420107,608.0,1.271881339220169659387786750420107
40,640.876997918475952105451680872199910,639.6,1.276997918475952105451680872199910
41,673.281987402401206734463874422493420,672.0,1.281987402401206734463874422493420
42,706.486855961292126316010305444558949,705.2,1.286855961292126316010305444558949
43,740.491609326284751255434136872526741,739.2,1.291609326284751255434136872526741
44,775.296252830096687858068498788024233,774.0,1.296252830096687858068498788024233
45,810.900791443148609756604405713900568,809.6,1.300791443148609756604405713900568
46,847.305229805680595118946879515700253,846.0,1.305229805680595118946879515700253
47,884.509572256384875641572619119820234,883.2,1.309572256384875641572619119820234
48,922.513822857998986969148381015390128,921.2,1.313822857998986969148381015390128
49,961.317985420238647637267822772664884,960.0,1.317985420238647637267822772664884
50,1000.92206352039557092150760753137757,999.6,1.32206352039557092150760753137757
51,1041.32606052187994701352813746733121,1040.0,1.32606052187994701352813746733121
52,1082.52997959094898773064242147234787,1081.2,1.32997959094898773064242147234787
53,1124.53382371183047584672865469995162,1123.2,1.33382371183047584672865469995162
54,1167.33759570042270000090440609509910,1166.0,1.33759570042270000090440609509910
55,1210.94129821672868064786711674932659,1209.6,1.34129821672868064786711674932659
56,1255.34493377616251794367940403344970,1254.0,1.34493377616251794367940403344970
57,1300.54850475984849349565773651341340,1299.2,1.34850475984849349565773651341340
58,1346.55201342401876071873148021285588,1345.2,1.35201342401876071873148021285588
59,1393.35546190860270459336338205659347,1392.0,1.35546190860270459336338205659347
60,1440.95885224509002711241992980770585,1439.6,1.35885224509002711241992980770585
61,1489.36218636374005047687495193792272,1488.0,1.36218636374005047687495193792272
62,1538.56546610020142909511603802304904,1537.2,1.36546610020142909511603802304904
63,1588.56869320159921955160242164798401,1587.2,1.36869320159921955160242164798401
64,1639.37186933213994523070062424823228,1638.0,1.37186933213994523070062424823228
65,1690.97499607827975744155117553577689,1689.6,1.37499607827975744155117553577689
66,1743.37807495349594755076534288643680,1742.0,1.37807495349594755076534288643680
67,1796.58110740269780233842483374278680,1795.2,1.38110740269780233842483374278680
68,1850.58409480630903863204874471436430,1849.2,1.38409480630903863204874471436430
69,1905.38703848405074060246512412567243,1904.0,1.38703848405074060246512412567243
70,1960.98993969845079483726016445282814,1959.6,1.38993969845079483726016445282814
71,2017.39279965810321960374712520967163,2016.0,1.39279965810321960374712520967163
72,2074.59561952069848647101672803815089,2073.2,1.39561952069848647101672803815089
73,2132.59840039584387945422755047150415,2131.2,1.39840039584387945422755047150415
74,2191.40114334769111799574179178298941,2190.0,1.40114334769111799574179178298941
75,2251.00384939738683899660884646078558,2249.6,1.40384939738683899660884646078558
76,2311.40651952536008355514362860349045,2310.0,1.40651952536008355514362860349045
77,2372.60915467345963167092855420601598,2371.2,1.40915467345963167092855420601598
78,2434.61175574695286237438769481979252,2433.2,1.41175574695286237438769481979252
79,2497.41432361639676992208935417775488,2496.0,1.41432361639676992208935417775488
80,2561.01685911939082857228868590267233,2559.6,1.41685911939082857228868590267233
81,2625.41936306222054911374547565264163,2624.0,1.41936306222054911374547565264163
82,2690.62183622139980887029847095319610,2689.2,1.42183622139980887029847095319610
83,2756.62427934511934816988794963755684,2755.2,1.42427934511934816988794963755684
84,2823.42669315460820197500209232224626,2822.0,1.42669315460820197500209232224626
85,2891.02907834541427609534893187096436,2889.6,1.42907834541427609534893187096436
86,2959.43143558860976153816623301891407,2958.0,1.43143558860976153816623301891407
87,3028.63376553192662308078190133713745,3027.2,1.43376553192662308078190133713745
88,3098.63606880082697477230162006005524,3097.2,1.43606880082697477230162006005524
89,3169.43834599951277156913893178605197,3168.0,1.43834599951277156913893178605197
90,3241.04059771187890309237368946526024,3239.6,1.44059771187890309237368946526024
91,3313.44282450241345404287411499451901,3312.0,1.44282450241345404287411499451901
92,3386.64502691704860751257843824884892,3385.2,1.44502691704860751257843824884892
93,3460.64720548396540517527655079358365,3459.2,1.44720548396540517527655079358365
94,3535.44936071435533541149392524848315,3534.0,1.44936071435533541149392524848315
95,3611.05149310314149926805108974133655,3609.6,1.45149310314149926805108974133655
96,3687.45360312966190233075535319468870,3686.0,1.45360312966190233075535319468870
97,3764.65569125831723624657215026864000,3763.2,1.45569125831723624657215026864000
98,3842.65775793918534075732828775968134,3841.2,1.45775793918534075732828775968134
99,3921.45980360860438363481063308215506,3920.0,1.45980360860438363481063308215506
100,4001.06182868972664956670738348944736,3999.6,1.46182868972664956670738348944736
101,4081.46383359304469973868480118848344,4080.0,1.46383359304469973868480118848344
102,4162.66581871689153828317113246998970,4161.2,1.46581871689153828317113246998970
103,4244.66778444791631385180647421156108,4243.2,1.46778444791631385180647421156108
104,4327.46973116153697730380724755619574,4326.0,1.46973116153697730380724755619574
105,4411.07165922237122342873660806670445,4409.6,1.47165922237122342873660806670445
106,4495.47356898464695385792878708153846,4494.0,1.47356898464695385792878708153846
107,4580.67546079259342023685979411543863,4579.2,1.47546079259342023685979411543863
108,4666.67733498081412749120251194787314,4665.2,1.47733498081412749120251194787314
109,4753.47919187464250842577023669278896,4752.0,1.47919187464250842577023669278896
110,4841.08103179048131847542743173356328,4839.6,1.48103179048131847542743173356328
111,4929.48285503612663356584815603120603,4928.0,1.48285503612663356584815603120603
112,5018.68466191107728460836909384036300,5017.2,1.48466191107728460836909384036300
113,5108.68645270683050661739003751302117,5107.2,1.48645270683050661739003751302117
114,5199.48822770716453168101845251699217,5198.0,1.48822770716453168101845251699217
115,5291.08998718840881456715197963837701,5289.6,1.48998718840881456715197963837701
116,5383.49173141970253141554487078021355,5382.0,1.49173141970253141554487078021355
117,5476.69346066324196025339732678961527,5475.2,1.49346066324196025339732678961527
118,5570.69517517451731104090120515782966,5569.2,1.49517517451731104090120515782966
119,5665.49687520253953923945948302684267,5664.0,1.49687520253953923945948302684267
120,5761.09856099005765105306167893284557,5759.6,1.49856099005765105306167893284557
121,5857.50023277376697022605335886225497,5856.0,1.50023277376697022605335886225497
122,5954.70189078450881736740501293270429,5953.2,1.50189078450881736740501293270429
123,6052.70353524746202057865376661993833,6051.2,1.50353524746202057865376661993833
124,6151.50516638232665848288248409118357,6150.0,1.50516638232665848288248409118357
125,6251.10678440350040718583811634356758,6249.6,1.50678440350040718583811634356758
126,6351.50838952024784750299329297224000,6350.0,1.50838952024784750299329297224000
127,6452.70998193686306820846892416959141,6451.2,1.50998193686306820846892416959141
128,6554.71156185282587847454575940873592,6553.2,1.51156185282587847454575940873592
129,6657.51312946295193059725470996030128,6656.0,1.51312946295193059725470996030128
130,6761.11468495753703572166847045954299,6759.6,1.51468495753703572166847045954299
131,6865.51622852249593987639897950357157,6864.0,1.51622852249593987639897950357157
132,6970.71776033949581264960476336206613,6969.2,1.51776033949581264960476336206613
133,7076.71928058608468905722750332392200,7075.2,1.51928058608468905722750332392200
134,7183.52078943581509387821934854130777,7182.0,1.52078943581509387821934854130777
135,7291.12228705836305962317942625346964,7289.6,1.52228705836305962317942625346964
136,7399.52377361964274561528755513174577,7398.0,1.52377361964274561528755513174577
137,7508.72524928191685235448024634348991,7507.2,1.52524928191685235448024634348991
138,7618.72671420390301172382280970028259,7617.2,1.52671420390301172382280970028259
139,7729.52816854087633149112637873647814,7728.0,1.52816854087633149112637873647814
140,7841.12961244476825711289008383763956,7839.6,1.52961244476825711289008383763956
141,7953.53104606426190929015862054132469,7952.0,1.53104606426190929015862054132469
142,8066.73246954488404765261893755464409,8065.2,1.53246954488404765261893755464409
143,8180.73388302909380229708982038013379,8179.2,1.53388302909380229708982038013379
144,8295.53528665636830772692186426479648,8294.0,1.53528665636830772692186426479648
145,8411.13668056328536955106560107881479,8409.6,1.53668056328536955106560107881479
146,8527.53806488360328643281532508977246,8526.0,1.53806488360328643281532508977246
147,8644.73943974833794157526977487205173,8643.2,1.53943974833794157526977487205173
148,8762.74080528583727907251756298023022,8761.2,1.54080528583727907251756298023022
149,8881.54216162185326692748130658709227,8880.0,1.54216162185326692748130658709227
150,9001.14350887961145037727667698793184,8999.6,1.54350887961145037727667698793184
151,9121.54484717987819144031977270063132,9120.0,1.54484717987819144031977270063132
152,9242.74617664102568498433048011513851,9241.2,1.54617664102568498433048011513851
153,9364.74749737909484026490393587309605,9363.2,1.54749737909484026490393587309605
154,9487.54880950785611183386936755910030,9486.0,1.54880950785611183386936755910030
155,9611.15011313886835805340649992571971,9609.6,1.55011313886835805340649992571971
156,9735.55140838153580508225955058297383,9734.0,1.55140838153580508225955058297383
157,9860.75269534316318738062835748153449,9859.2,1.55269534316318738062835748153449
158,9986.75397412900913655181452969429332,9985.2,1.55397412900913655181452969429332
159,10113.5552448423378821934319656302555,10112.0,1.5552448423378821934319656302555
160,10241.1565075844693310956956915289963,10239.6,1.5565075844693310956956915289963
161,10369.5577624548275832828842564937487,10368.0,1.5577624548275832828842564937487
162,10498.7590095509879443590512189682849,10497.2,1.5590095509879443590512189682849
163,10628.7602489687224890112593516021047,10627.2,1.5602489687224890112593516021047
164,10759.5614808020442303069069782179412,10758.0,1.5614808020442303069069782179412
165,10891.1627051432499433853385885106108,10889.6,1.5627051432499433853385885106108
166,11023.5639220829616940593025850942813,11022.0,1.5639220829616940593025850942813
167,11156.7651317101671195585503541864358,11155.2,1.5651317101671195585503541864358
168,11290.7663341122585041044647440163577,11289.2,1.5663341122585041044647440163577
169,11425.5675293750706943777828051765620,11424.0,1.5675293750706943777828051765620
170,11561.1687175829178946225036545889130,11559.6,1.5687175829178946225036545889130
171,11697.5698988186293815804162983361109,11696.0,1.5698988186293815804162983361109
172,11834.7710731635841771228805546292941,11833.2,1.5710731635841771228805546292941
173,11972.7722406977447139821662517762862,11971.2,1.5722406977447139821662517762862
174,12111.5734014996895304258397189110202,12110.0,1.5734014996895304258397189110202
175,12251.1745556466450278591052245480064,12249.6,1.5745556466450278591052245480064
176,12391.5757032145163210614292320031851,12390.0,1.5757032145163210614292320031851
177,12532.7768442779172143179596059947291,12531.2,1.5768442779172143179596059947291
178,12674.7779789101993326001112550365676,12673.2,1.5779789101993326001112550365676
179,12817.5791071834804342402386201132216,12816.0,1.5791071834804342402386201132216
180,12961.1802291686719360467693123303676,12959.6,1.5802291686719360467693123303676
181,13105.5813449355056735083597945326360,13104.0,1.5813449355056735083597945326360
182,13250.7824545525599237824337460287227,13249.2,1.5824545525599237824337460287227
183,13396.7835580872847145173520922793585,13395.2,1.5835580872847145173520922793585
184,13543.5846556060264427497257514390313,13542.0,1.5846556060264427497257514390313
185,13691.1857471740518256849697793246340,13689.6,1.5857471740518256849697793246340
186,13839.5868328555712043296929005489331,13838.0,1.5868328555712043296929005489331
187,13988.7879127137612237763952987656115,13987.2,1.5879127137612237763952987656115
188,14138.7889868107869055767637316423504,14137.2,1.5889868107869055767637316423504
189,14289.5900552078231359346268026989393,14288.0,1.5900552078231359346268026989393
190,14441.1911179650755853696198522129499,14439.6,1.5911179650755853696198522129499
191,14593.5921751418010790740827080998075,14592.0,1.5921751418010790740827080998075
192,14746.7932267963274343453646515831796,14745.2,1.5932267963274343453646515831796
193,14900.7942729860727833973543657576190,14899.2,1.5942729860727833973543657576190
194,15055.5953137675643948919879745178115,15054.0,1.5953137675643948919879745178115
195,15211.1963491964570121230627316403388,15209.6,1.5963491964570121230627316403388
196,15367.5973793275507215442255697654384,15366.0,1.5973793275507215442255697654384
197,15524.7984042148083660164257526839394,15523.2,1.5984042148083660164257526839394
198,15682.7994239113725169367789579490260,15681.2,1.5994239113725169367789579490260
199,15841.6004384695820180826650150384512,15840.0,1.6004384695820180826650150384512
200,16001.2014479409881151112262082299938,15999.6,1.6014479409881151112262082299938
201,16161.6024523763701816906516124409502,16160.0,1.6024523763701816906516124409502
202,16322.8034518257510556393656914135048,16321.2,1.6034518257510556393656914135048
203,16484.8044463384119957278092106050810,16483.2,1.6044463384119957278092106050810
204,16647.6054359629072707576813346633210,16646.0,1.6054359629072707576813346633210
205,16811.2064207470783908839611651491537,16809.6,1.6064207470783908839611651491537
206,16975.6074007380679941984130439760156,16974.0,1.6074007380679941984130439760156
207,17140.8083759823333944452077797976189,17139.2,1.6083759823333944452077797976189
208,17306.8093465256598040900715930836734,17305.2,1.6093465256598040900715930836734
209,17473.6103124131732384857975186932901,17472.0,1.6103124131732384857975186932901
210,17641.2112736893531126297255278004135,17639.6,1.6112736893531126297255278004135
211,17809.6122303980445378721551121086006,17808.0,1.6122303980445378721551121086006
212,17978.8131825824703288028197490889733,17977.2,1.6131825824703288028197490889733
213,18148.8141302852427246933189813011867,18147.2,1.6141302852427246933189813011867
214,18319.6150735483748404711988473590246,18318.0,1.6150735483748404711988473590246
215,18491.2160124132918464319133604084922,18489.6,1.6160124132918464319133604084922
216,18663.6169469208418906431251737465347,18662.0,1.6169469208418906431251737465347
217,18836.8178771113067680003886452391373,18835.2,1.6178771113067680003886452391373
218,19010.8188030244123449066664387554149,19009.2,1.6188030244123449066664387554149
219,19185.6197246993387428486165381251009,19184.0,1.6197246993387428486165381251009
220,19361.2206421747302933777779815630788,19359.6,1.6206421747302933777779815630788
221,19537.6215554887052623989470118432836,19536.0,1.6215554887052623989470118432836
222,19714.8224646788653609631092018633272,19713.2,1.6224646788653609631092018633272
223,19892.8233697823050361257601843274430,19891.2,1.6233697823050361257601843274430
224,20071.6242708356205569299142380084574,20070.0,1.6242708356205569299142380084574
225,20251.2251678749188980703439656841068,20249.6,1.6251678749188980703439656841068
226,20431.6260609358264247769932006261233,20430.0,1.6260609358264247769932006261233
227,20612.8269500534973875604101899551885,20611.2,1.6269500534973875604101899551885
228,20794.8278352626222286294020543006999,20793.2,1.6278352626222286294020543006999
229,20977.6287165974357071330545247479267,20976.0,1.6287165974357071330545247479267
230,21161.2295940917248479133548537170414,21159.6,1.6295940917248479133548537170414
231,21345.6304677788367155576816245984788,21344.0,1.6304677788367155576816245984788
232,21530.8313376916860241600755045359345,21529.2,1.6313376916860241600755045359345
233,21716.8322038627625777767887395100031,21715.2,1.6322038627625777767887395100031
234,21903.6330663241385577221726285265904,21902.0,1.6330663241385577221726285265904
235,22091.2339251074756498759961604309694,22089.6,1.6339251074756498759961604309694
236,22279.6347802440320217009573862887009,22278.0,1.6347802440320217009573862887009
237,22468.8356317646691525905075041505173,22467.2,1.6356317646691525905075041505173
238,22658.8364796998585192779916443432105,22657.2,1.6364796998585192779916443432105
