Eigenstate,Energy,Kinetic Energy,Potential Energy
1,0.500000000740087734592525570447602512,0.0,0.500000000740087734592525570447602512
2,1.84623094248213311273122390343344504,1.2,0.64623094248213311273122390343344504
3,3.93633762389621082130967683374530914,3.2,0.73633762389621082130967683374530914
4,6.79966530737441169043079245368870006,6.0,0.79966530737441169043079245368870006
5,10.4480466264931561676363928446133846,9.6,0.8480466264931561676363928446133846
6,14.8870660761152941458023516122901485,14.0,0.8870660761152941458023516122901485
7,20.1197209377313718298037832393614361,19.2,0.9197209377313718298037832393614361
8,26.1477839977477449667731785728342808,25.2,0.9477839977477449667731785728342808
9,32.9723837551897033432317441004879622,32.0,0.9723837551897033432317441004879622
10,40.5942804642198088987509985516527029,39.6,0.9942804642198088987509985516527029
11,49.0140096949906030987618285586575530,48.0,1.0140096949906030987618285586575530
12,58.2319625428170225968236681132909692,57.2,1.0319625428170225968236681132909692
13,68.2484331377746908468140137202186705,67.2,1.0484331377746908468140137202186705
14,79.0636481775564831747855660314119411,78.0,1.0636481775564831747855660314119411
15,90.6777860432869559291247942681604748,89.6,1.0777860432869559291247942681604748
16,103.090989604392945877446699657578471,102.0,1.090989604392945877446699657578471
17,116.303375052065175874254275651899754,115.2,1.103375052065175874254275651899754
18,130.315038150264523220652419522867203,129.2,1.115038150264523220652419522867203
19,145.126058758826045672833928284130262,144.0,1.126058758826045672833928284130262
20,160.736504171092952939265083538342990,159.6,1.136504171092952939265083538342990
21,177.146431619998330028636903046114652,176.0,1.146431619998330028636903046114652
22,194.355890189223897511052534950664261,193.2,1.155890189223897511052534950664261
23,212.364922291136552121964746382172853,211.2,1.164922291136552121964746382172853
24,231.173564824188801938440363668830023,230.0,1.173564824188801938440363668830023
25,250.781850089714703709162640878928183,249.6,1.181850089714703709162640878928183
26,271.189806525737460058636952708411704,270.0,1.189806525737460058636952708411704
27,292.397459299932003712117905421275943,291.2,1.197459299932003712117905421275943
28,314.404830792984044961129186952078186,313.2,1.204830792984044961129186952078186
29,337.211940995792030686665940903569864,336.0,1.211940995792030686665940903569864
30,360.818807838308975630804033393865637,359.6,1.218807838308975630804033393865637
31,385.225447463675188066732022490069708,384.0,1.225447463675188066732022490069708
32,410.431874458215012403197481332795043,409.2,1.231874458215012403197481332795043
33,436.438102045561063433855935477416278,435.2,1.238102045561063433855935477416278
34,463.244142251418880660094928242349433,462.0,1.244142251418880660094928242349433
35,490.850006044145736038474582813320995,489.6,1.250006044145736038474582813320995
36,519.255703455283849616562581198834589,518.0,1.255703455283849616562581198834589
37,548.461243683384182965751278042811304,547.2,1.261243683384182965751278042811304
38,578.466635183826561571405571468646400,577.2,1.266635183826561571405571468646400
39,609.271885746844028687255849550240858,608.0,1.271885746844028687255849550240858
40,640.877002565563512374375293911897424,639.6,1.277002565563512374375293911897424
41,673.281992295558137169002638074378404,672.0,1.281992295558137169002638074378404
42,706.486861107151519220128668361766822,705.2,1.286861107151519220128668361766822
43,740.491614731507897391407672896895075,739.2,1.291614731507897391407672896895075
44,775.296258501373858805320578421441167,774.0,1.296258501373858805320578421441167
45,810.900797387199847737633757197127921,809.6,1.300797387199847737633757197127921
46,847.305236029256510486910905438210678,846.0,1.305236029256510486910905438210678
47,884.509578766267452230960053490455814,883.2,1.309578766267452230960053490455814
48,922.513829661002395517432577106150247,921.2,1.313829661002395517432577106150247
49,961.317992523210067491572261433285795,960.0,1.317992523210067491572261433285795
50,1000.92207093021602025021746656486716,999.6,1.32207093021602025021746656486716
51,1041.32606824546512174851229935188735,1040.0,1.32606824546512174851229935188735
52,1082.52998763525010947135940047093564,1081.2,1.32998763525010947135940047093564
53,1124.53383208383514896302220019184048,1123.2,1.33383208383514896302220019184048
54,1167.33760440715577817678976674870135,1166.0,1.33760440715577817678976674870135
55,1210.94130726525314311409338839975462,1209.6,1.34130726525314311409338839975462
56,1255.34494317358035565235726870472578,1254.0,1.34494317358035565235726870472578
57,1300.54851451330160549578498958389364,1299.2,1.34851451330160549578498958389364
58,1346.55202354068986099705663058866188,1345.2,1.35202354068986099705663058866188
59,1393.35547239571623965070624193870016,1392.0,1.35547239571623965070624193870016
60,1440.95886310991310455134608013648498,1439.6,1.35886310991310455134608013648498
61,1489.36219761358337888250206223371949,1488.0,1.36219761358337888250206223371949
62,1538.56547774242026949683293119014148,1537.2,1.36547774242026949683293119014148
63,1588.56870524359434875961184192749603,1587.2,1.36870524359434875961184192749603
64,1639.37188178135863134756919935537260,1638.0,1.37188178135863134756919935537260
65,1690.97500894221674785537693199028144,1689.6,1.37500894221674785537693199028144
66,1743.37808823969446972315326793098617,1742.0,1.37808823969446972315326793098617
67,1796.58112111875057770721668978717943,1795.2,1.38112111875057770721668978717943
68,1850.58410895985930995568253846253161,1849.2,1.38410895985930995568253846253161
69,1905.38705308279331307996007338664329,1904.0,1.38705308279331307996007338664329
70,1960.98995475013309134512995341088814,1959.6,1.38995475013309134512995341088814
71,2017.39281517052635039866421970289723,2016.0,1.39281517052635039866421970289723
72,2074.59563550171833371477112331293926,2073.2,1.39563550171833371477112331293926
73,2132.59841685337219692547209211233480,2131.2,1.39841685337219692547209211233480
74,2191.40116028969664636118501788789358,2190.0,1.40116028969664636118501788789358
75,2251.00386683189643702272656709197730,2249.6,1.40386683189643702272656709197730
76,2311.40653746045987565012913814780327,2310.0,1.40653746045987565012913814780327
77,2372.60917311729617215550768091452464,2371.2,1.40917311729617215550768091452464
78,2434.61177470773431688929107039846651,2433.2,1.41177470773431688929107039846651
79,2497.41434310239411438940958687337739,2496.0,1.41434310239411438940958687337739
80,2561.01687913893906613766498374437469,2559.6,1.41687913893906613766498374437469
81,2625.41938362371994550632601266348761,2624.0,1.41938362371994550632601266348761
82,2690.62185733331714662773224758781071,2689.2,1.42185733331714662773224758781071
83,2756.62430101598920018621113130053827,2755.2,1.42430101598920018621113130053827
84,2823.42671539303422484021620945833990,2822.0,1.42671539303422484021620945833990
85,2891.02910116007052370675055113564561,2889.6,1.42910116007052370675055113564561
86,2959.43145898824201947508711762727201,2958.0,1.43145898824201947508711762727201
87,3028.63378952535376424635816622198381,3027.2,1.43378952535376424635816622198381
88,3098.63609339694233681820653425981947,3097.2,1.43609339694233681820653425981947
89,3169.43837120728555663190806557455837,3168.0,1.43837120728555663190806557455837
90,3241.04062354035560038303874213790641,3239.6,1.44062354035560038303874213790641
91,3313.44285096071928584510301649896884,3312.0,1.44285096071928584510301649896884
92,3386.64505401438899915842652542253215,3385.2,1.44505401438899915842652542253215
93,3460.64723322962747958197867317287346,3459.2,1.44723322962747958197867317287346
94,3535.44938911770943277750638342453124,3534.0,1.44938911770943277750638342453124
95,3611.05152217364272254178694223385607,3609.6,1.45152217364272254178694223385607
96,3687.45363287685168908116202810762483,3686.0,1.45363287685168908116202810762483
97,3764.65572169182495758090730815156328,3763.2,1.45572169182495758090730815156328
98,3842.65778906872992794819341088959940,3841.2,1.45778906872992794819341088959940
99,3921.45983544399598313573838982555171,3920.0,1.45983544399598313573838982555171
100,4001.06186124086830711337990311576466,3999.6,1.46186124086830711337990311576466
101,4081.46386686993407425119587401363519,4080.0,1.46386686993407425119587401363519
102,4162.66585272962264630367648878233649,4161.2,1.46585272962264630367648878233649
103,4244.66781920668130527142761998694725,4243.2,1.46781920668130527142761998694725
104,4327.46976667662794315281103100980582,4326.0,1.46976667662794315281103100980582
105,4411.07169550418203652480712734875358,4409.6,1.47169550418203652480712734875358
106,4495.47360604367514312881822018297602,4494.0,1.47360604367514312881822018297602
107,4580.67549863944207955586523765100535,4579.2,1.47549863944207955586523765100535
108,4666.67737362619385988679452864070849,4665.2,1.47737362619385988679452864070849
109,4753.47923132937340655032465955524618,4752.0,1.47923132937340655032465955524618
110,4841.08107206549498224240346809228411,4839.6,1.48107206549498224240346809228411
111,4929.48289614246822588995414060060903,4928.0,1.48289614246822588995414060060903
112,5018.68470385990762620927404738983048,5017.2,1.48470385990762620927404738983048
113,5108.68649550942821087442412894717146,5107.2,1.48649550942821087442412894717146
114,5199.48827137492818055407458952146793,5198.0,1.48827137492818055407458952146793
115,5291.09003173285917662769746267854226,5289.6,1.49003173285917662769746267854226
116,5383.49177685248482306130018862619995,5382.0,1.49177685248482306130018862619995
117,5476.69350699612815121088788766252396,5475.2,1.49350699612815121088788766252396
118,5570.69522241940847529176289913290240,5569.2,1.49522241940847529176289913290240
119,5665.49692337146825253912201073149567,5664.0,1.49692337146825253912201073149567
120,5761.09861009519043624429124413227604,5759.6,1.49861009519043624429124413227604
121,5857.50028282740679158484185536648046,5856.0,1.50028282740679158484185536648046
122,5954.70194179909762525489645427206860,5953.2,1.50194179909762525489645427206860
123,6052.70358723558334771024204824612464,6051.2,1.50358723558334771024204824612464
124,6151.50521935670826916435079836755921,6150.0,1.50521935670826916435079836755921
125,6251.10683837701700090648209658836324,6249.6,1.50683837701700090648209658836324
126,6351.50844450592381831713912805216069,6350.0,1.50844450592381831713912805216069
127,6452.71003794787532137970327704448336,6451.2,1.51003794787532137970327704448336
128,6554.71161890250670590139480877395811,6553.2,1.51161890250670590139480877395811
129,6657.51318756479194658502261778911321,6656.0,1.51318756479194658502261778911321
130,6761.11474412518817471274407130776181,6759.6,1.51474412518817471274407130776181
131,6865.51628876977451780063172753459143,6864.0,1.51628876977451780063172753459143
132,6970.71782168038565360739338999003367,6969.2,1.51782168038565360739338999003367
133,7076.71934303474031910083088026301024,7075.2,1.51934303474031910083088026301024
134,7183.52085300656500371157943596357063,7182.0,1.52085300656500371157943596357063
135,7291.12235176571303809728564031778492,7289.6,1.52235176571303809728564031778492
136,7399.52383947827928595491637950426948,7398.0,1.52383947827928595491637950426948
137,7508.72531630671063311309963747648276,7507.2,1.52531630671063311309963747648276
138,7618.72678240991245452661859267511070,7617.2,1.52678240991245452661859267511070
139,7729.52823794335123769160996491984420,7728.0,1.52823794335123769160996491984420
140,7841.12968305915352555646762936080863,7839.6,1.52968305915352555646762936080863
141,7953.53111790620133744846969911623605,7952.0,1.53111790620133744846969911623605
142,8066.73254263022421846552238453152844,8065.2,1.53254263022421846552238453152844
143,8180.73395737388805913496397902577654,8179.2,1.53395737388805913496397902577654
144,8295.53536227688081996460095435550631,8294.0,1.53536227688081996460095435550631
145,8411.13675747599529132634595597579615,8409.6,1.53675747599529132634595597579615
146,8527.53814310520901124719051775338657,8526.0,1.53814310520901124719051775338657
147,8644.73951929576145548250627498514284,8643.2,1.53951929576145548250627498514284
148,8762.74088617622861529199788098777089,8761.2,1.54088617622861529199788098777089
149,8881.54224387259506481409795119023237,8880.0,1.54224387259506481409795119023237
150,9001.14359250832362177815872570075379,8999.6,1.54359250832362177815872570075379
151,9121.54493220442269757103608188926264,9120.0,1.54493220442269757103608188926264
152,9242.74626307951142706354872503671279,9241.2,1.54626307951142706354872503671279
153,9364.74758524988266725702438403500655,9363.2,1.54758524988266725702438403500655
154,9487.54889882956394876403200113965689,9486.0,1.54889882956394876403200113965689
155,9611.15020393037645847872875835150498,9609.6,1.55020393037645847872875835150498
156,9735.55150066199213142738203742599960,9734.0,1.55150066199213142738203742599960
157,9860.75278913198892297483255124416911,9859.2,1.55278913198892297483255124416911
158,9986.75406944590433333938651628270022,9985.2,1.55406944590433333938651628270022
159,10113.5553417072872482287908626633571,10112.0,1.5553417072872482287908626633571
160,10241.1566060177481620803510728843057,10239.6,1.5566060177481620803510728843057
161,10369.5578624770078425527773431782169,10368.0,1.5578624770078425527773431782169
162,10498.7591111829444958885735285237214,10497.2,1.5591111829444958885735285237214
163,10628.7603522316394881644909923676047,10627.2,1.5603522316394881644909923676047
164,10759.5615857174216772377083645776697,10758.0,1.5615857174216772377083645776697
165,10891.1628117329104041661666771028692,10889.6,1.5628117329104041661666771028692
166,11023.5640303690571948043399985194698,11022.0,1.5640303690571948043399985194698
167,11156.7652417151862190003284187694952,11155.2,1.5652417151862190003284187694952
168,11290.7664458590335502849533902064359,11289.2,1.5664458590335502849533902064359
169,11425.5676428867852713253347335566545,11424.0,1.5676428867852713253347335566545
170,11561.1688328831144651055192459330829,11559.6,1.5688328831144651055192459330829
171,11697.5700159312171322575157822868576,11696.0,1.5700159312171322575157822868576
172,11834.7711921128470726482634322238758,11833.2,1.5711921128470726482634322238758
173,11972.7723615083497668741448076750975,11971.2,1.5723615083497668741448076750975
174,12111.5735241966952937668090914606082,12110.0,1.5735241966952937668090914606082
175,12251.1746802555103181669737785983916,12249.6,1.5746802555103181669737785983916
176,12391.5758297611091789563647977845009,12390.0,1.5758297611091789563647977845009
177,12532.7769727885241109048276684137346,12531.2,1.5769727885241109048276684137346
178,12674.7781094115346297968294809559419,12673.2,1.5781094115346297968294809559419
179,12817.5792397026961076061128542074410,12816.0,1.5792397026961076061128542074410
180,12961.1803637333675690034583268848398,12959.6,1.5803637333675690034583268848398
181,13105.5814815737387322001651151559016,13104.0,1.5814815737387322001651151559016
182,13250.7825932928563221929590858256230,13249.2,1.5825932928563221929590858256230
183,13396.7836989586496798470628851165250,13395.2,1.5836989586496798470628851165250
184,13543.5847986379556914644610713749886,13542.0,1.5847986379556914644610713749886
185,13691.1858923965430610699818596808108,13689.6,1.5858923965430610699818596808108
186,13839.5869802991359468283101057759603,13838.0,1.5869802991359468283101057759603
187,13988.7880624094369858580005470564991,13987.2,1.5880624094369858580005470564991
188,14138.7891387901497233665986101000667,14137.2,1.5891387901497233665986101000667
189,14289.5902095030004703491535859782141,14288.0,1.5902095030004703491535859782141
190,14441.1912746087596060370923451201021,14439.6,1.5912746087596060370923451201021
191,14593.5923341672623448819345861754617,14592.0,1.5923341672623448819345861754617
192,14746.7933882374289850454869152340684,14745.2,1.5933882374289850454869152340684
193,14900.7944368772846573187893992013416,14899.2,1.5944368772846573187893992013416
194,15055.5954801439785884596749069817006,15054.0,1.5954801439785884596749069817006
195,15211.1965180938028975627237134502653,15209.6,1.5965180938028975627237134502653
196,15367.5975507822109398691604569981077,15366.0,1.5975507822109398691604569981077
197,15524.7985782638352131437746664187154,15523.2,1.5985782638352131437746664187154
198,15682.7996005925048415708476327324389,15681.2,1.5996005925048415708476327324389
199,15841.6006178212626508333889357013568,15840.0,1.6006178212626508333889357013568
200,16001.2016300023818491890651998152963,15999.6,1.6016300023818491890651998152963
201,16161.6026371873823264377859749678705,16160.0,1.6026371873823264377859749678705
202,16322.8036394270465851235569993499443,16321.2,1.6036394270465851235569993499443
203,16484.8046367714353156425985337679330,16483.2,1.6046367714353156425985337679330
204,16647.6056292699026279437982973330939,16646.0,1.6056292699026279437982973330939
205,16811.2066169711109509150482901300045,16809.6,1.6066169711109509150482901300045
206,16975.6075999230456136630327497655944,16974.0,1.6075999230456136630327497655944
207,17140.8085781730291158101492526135620,17139.2,1.6085781730291158101492526135620
208,17306.8095517677351023512637922142375,17305.2,1.6095517677351023512637922142375
209,17473.6105207532020502068680688832037,17472.0,1.6105207532020502068680688832037
210,17641.2114851748466794388715869734890,17639.6,1.6114851748466794388715869734890
211,17809.6124450774770980404817003468834,17808.0,1.6124450774770980404817003468834
212,17978.8134005053056921666684388561352,17977.2,1.6134005053056921666684388561352
213,18148.8143515019617679150522678857971,18147.2,1.6143515019617679150522678857971
214,18319.6152981105039614632362842238369,18318.0,1.6152981105039614632362842238369
215,18491.2162403734324187040093630893206,18489.6,1.6162403734324187040093630893206
216,18663.6171783327007603796963809679294,18662.0,1.6171783327007603796963809679294
217,18836.8181120297278388404984508051619,18835.2,1.6181120297278388404984508051619
218,19010.8190415054092976919571085235546,19009.2,1.6190415054092976919571085235546
219,19185.6199668001289400324741892651593,19184.0,1.6199668001289400324741892651593
220,19361.2208879537699203614221301743781,19359.6,1.6208879537699203614221301743781
221,19537.6218050057257607867756641118508,19536.0,1.6218050057257607867756641118508
222,19714.8227179949112116209640534144552,19713.2,1.6227179949112116209640534144552
223,19892.8236269597729529932319981808333,19891.2,1.6236269597729529932319981808333
224,20071.6245319383001557935125176791638,20070.0,1.6245319383001557935125176791638
225,20251.2254329680349079615498328906601,20249.6,1.6254329680349079615498328906601
226,20431.6263300860825133320498629523239,20430.0,1.6263300860825133320498629523239
227,20612.8272233291216755825539227040865,20611.2,1.6272233291216755825539227040865
228,20794.8281127334145732456260803047846,20793.2,1.6281127334145732456260803047846
229,20977.6289983348168373543564739290914,20976.0,1.6289983348168373543564739290914
230,21161.2298801687874411090664581201049,21159.6,1.6298801687874411090664581201049
231,21345.6307582703985083618165494432809,21344.0,1.6307582703985083618165494432809
232,21530.8316326743450566634684496001366,21529.2,1.6316326743450566634684496001366
233,21716.8325034149546755474963834681505,21715.2,1.6325034149546755474963834681505
234,21903.6333705261971622649339722235713,21902.0,1.6333705261971622649339722235713
235,22091.2342340416941146183759761943055,22089.6,1.6342340416941146183759761943055
236,22279.6350939947284975103856258021587,22278.0,1.6350939947284975103856258021587
237,22468.8359504182541942170315687448631,22467.2,1.6359504182541942170315687448631
238,22658.8368033449055520190031038913251,22657.2,1.6368033449055520190031038913251
