Eigenstate,Energy,Kinetic Energy,Potential Energy
1,0.500000000049455956181585220792807497,0.0,0.500000000049455956181585220792807497
2,1.84623093797393745646034552572225418,1.2,0.64623093797393745646034552572225418
3,3.93633761065324209532638931685274974,3.2,0.73633761065324209532638931685274974
4,6.79966527978937092742124503610685063,6.0,0.79966527978937092742124503610685063
5,10.4480465787070219375748431017626444,9.6,0.8480465787070219375748431017626444
6,14.8870660021644763760979826580217027,14.0,0.8870660021644763760979826580217027
7,20.1197208316016026538159692891896252,19.2,0.9197208316016026538159692891896252
8,26.1477838533962495298768559543856155,25.2,0.9477838533962495298768559543856155
9,32.9723835665552296228863082302163932,32.0,0.9723835665552296228863082302163932
10,40.5942802252274601624244139828646532,39.6,0.9942802252274601624244139828646532
11,49.0140093995542229343879176003544691,48.0,1.0140093995542229343879176003544691
12,58.2319621848403320068998277241873523,57.2,1.0319621848403320068998277241873523
13,68.2484327111517451787765734535693090,67.2,1.0484327111517451787765734535693090
14,79.0636476761717368165961349885058830,78.0,1.0636476761717368165961349885058830
15,90.6777854610150895619690878637871244,89.6,1.0777854610150895619690878637871244
16,103.090988935098543749363654476244203,102.0,1.090988935098543749363654476244203
17,116.303374289602304672504198464604015,115.2,1.103374289602304672504198464604015
18,130.315037288476244100648153135958673,129.2,1.115037288476244100648153135958673
19,145.126057791543879378377231567228381,144.0,1.126057791543879378377231567228381
20,160.736503092136310959574657431063619,159.6,1.136503092136310959574657431063619
21,177.146430423173920401899982333288013,176.0,1.146430423173920401899982333288013
22,194.355888868325111118768152268589190,193.2,1.155888868325111118768152268589190
23,212.364920839942833509886447896262286,211.2,1.164920839942833509886447896262286
24,231.173563236465007490334363410980911,230.0,1.173563236465007490334363410980911
25,250.781848359210449173818834047779357,249.6,1.181848359210449173818834047779357
26,271.189804646186458856167159029421388,270.0,1.189804646186458856167159029421388
27,292.397457265051397039086930674869279,291.2,1.197457265051397039086930674869279
28,314.404828596473724421781102622826007,313.2,1.204828596473724421781102622826007
29,337.211938631333953964193975482201272,336.0,1.211938631333953964193975482201272
30,360.818805299566475554737702413449177,359.6,1.218805299566475554737702413449177
31,385.225444744292275314107107350971486,384.0,1.225444744292275314107107350971486
32,410.431871551815671981227888260735953,409.2,1.231871551815671981227888260735953
33,436.438098945748545022647607847362687,435.2,1.238098945748545022647607847362687
34,463.244138951774982840085096175097029,462.0,1.244138951774982840085096175097029
35,490.850002538230084384839624600472652,489.6,1.250002538230084384839624600472652
36,519.255699736633168608985717546531310,518.0,1.255699736633168608985717546531310
37,548.461239745511561634599971607866564,547.2,1.261239745511561634599971607866564
38,578.466631020220712779006060704762929,577.2,1.266631020220712779006060704762929
39,609.271881350968541924418196047837129,608.0,1.271881350968541924418196047837129
40,640.876997930856099936752244121230588,639.6,1.276997930856099936752244121230588
41,673.281987415429873564602910020129546,672.0,1.281987415429873564602910020129546
42,706.486855974986073647842279334268769,705.2,1.286855974986073647842279334268769
43,740.491609340660759120349820458070854,739.2,1.291609340660759120349820458070854
44,775.296252845171555275857791458320802,774.0,1.296252845171555275857791458320802
45,810.900791458939155196882185004958791,809.6,1.300791458939155196882185004958791
46,847.305229822203656964103063626912752,846.0,1.305229822203656964103063626912752
47,884.509572273657312651216718384100093,883.2,1.309572273657312651216718384100093
48,922.513822876037678746026471854904965,921.2,1.313822876037678746026471854904965
49,961.317985439060495094636368828289976,960.0,1.317985439060495094636368828289976
50,1000.92206354001749675195406692038192,999.6,1.32206354001749675195406692038192
51,1041.32606054231889615923301302769321,1040.0,1.32606054231889615923301302769321
52,1082.52997961222192785508146144330858,1081.2,1.32997961222192785508146144330858
53,1124.53382373395439780781739474554084,1123.2,1.33382373395439780781739474554084
54,1167.33759572341461832559025008640050,1166.0,1.33759572341461832559025008640050
55,1210.94129824060563400817679982373059,1209.6,1.34129824060563400817679982373059
56,1255.34493380094156963423193116367515,1254.0,1.34493380094156963423193116367515
57,1300.54850478554673191265491916683670,1299.2,1.34850478554673191265491916683670
58,1346.55201345065329984043995030604319,1345.2,1.35201345065329984043995030604319
59,1393.35546193619068446210349760929612,1392.0,1.35546193619068446210349760929612
60,1440.95885227364861431807840217021896,1439.6,1.35885227364861431807840217021896
61,1489.36218639328643864195920394607075,1488.0,1.36218639328643864195920394607075
62,1538.56546613075283936136944728065401,1537.2,1.36546613075283936136944728065401
63,1588.56869323317290106820056618838993,1587.2,1.36869323317290106820056618838993
64,1639.37186936475317564404952601869849,1638.0,1.37186936475317564404952601869849
65,1690.97499611194984338670937258037813,1689.6,1.37499611194984338670937258037813
66,1743.37807498824022514451233485897920,1742.0,1.37807498824022514451233485897920
67,1796.58110743853363767399912273134778,1795.2,1.38110743853363767399912273134778
68,1850.58409484325382827557930934902106,1849.2,1.38409484325382827557930934902106
69,1905.38703852212191209112074398049030,1904.0,1.38703852212191209112074398049030
70,1960.98993973766580717914151580738659,1959.6,1.38993973766580717914151580738659
71,2017.39279969847956377954709119977255,2016.0,1.39279969847956377954709119977255
72,2074.59561956225368593747480217401305,2073.2,1.39561956225368593747480217401305
73,2132.59840043859549064940466946315135,2131.2,1.39840043859549064940466946315135
74,2191.40114339165673084614231430754493,2190.0,1.40114339165673084614231430754493
75,2251.00384944258407742617681640934941,2249.6,1.40384944258407742617681640934941
76,2311.40651957180660599616080302273496,2310.0,1.40651957180660599616080302273496
77,2372.60915472117313157684204419928491,2371.2,1.40915472117313157684204419928491
78,2434.61175579595106873459541362805904,2433.2,1.41175579595106873459541362805904
79,2497.41432366669744777871177878926699,2496.0,1.41432366669744777871177878926699
80,2561.01685917101177953895577372264766,2559.6,1.41685917101177953895577372264766
81,2625.41936311517961189642788609020152,2624.0,1.41936311517961189642788609020152
82,2690.62183627571485979021252407872419,2689.2,1.42183627571485979021252407872419
83,2756.62427940080830168850407785326275,2755.2,1.42427940080830168850407785326275
84,2823.42669321168901122118681028844119,2822.0,1.42669321168901122118681028844119
85,2891.02907840390493339467064348272318,2889.6,1.42907840390493339467064348272318
86,2959.43143564852829894439546590174391,2958.0,1.43143564852829894439546590174391
87,3028.63376559329111290961686851444164,3027.2,1.43376559329111290961686851444164
88,3098.63606886365553013735023464136493,3097.2,1.43606886365553013735023464136493
89,3169.43834606382354692018872470215044,3168.0,1.43834606382354692018872470215044
90,3241.04059777769009475598131168765812,3239.6,1.44059777769009475598131168765812
91,3313.44282456974330076530640384832503,3312.0,1.44282456974330076530640384832503
92,3386.64502698591539100513728845973767,3385.2,1.44502698591539100513728845973767
93,3460.64720555438745066204010228423482,3459.2,1.44720555438745066204010228423482
94,3535.44936078635101217950685452965164,3534.0,1.44936078635101217950685452965164
95,3611.05149317672922121999705564486988,3609.6,1.45149317672922121999705564486988
96,3687.45360320486012854014492790465241,3686.0,1.45360320486012854014492790465241
97,3764.65569133514447151547984696772553,3763.2,1.45569133514447151547984696772553
98,3842.65775801766013617671254472283562,3841.2,1.45775801766013617671254472283562
99,3921.45980368874533714745092263622816,3920.0,1.45980368874533714745092263622816
100,4001.06182877155240653279286962820485,3999.6,1.46182877155240653279286962820485
101,4081.46383367657395350408926682165593,4080.0,1.46383367657395350408926682165593
102,4162.66581880214303075044917070778206,4161.2,1.46581880214303075044917070778206
103,4244.66778453490883605394622269772673,4243.2,1.46778453490883605394622269772673
104,4327.46973125028936998077524177743400,4326.0,1.46973125028936998077524177743400
105,4411.07165931290237760685059614264926,4409.6,1.47165931290237760685059614264926
106,4495.47356907697581143209468230784590,4494.0,1.47356907697581143209468230784590
107,4580.67546088673897455570920145216425,4579.2,1.47546088673897455570920145216425
108,4666.67733507679542394516757461880621,4665.2,1.47733507679542394516757461880621
109,4753.47919197247864503813283913913639,4752.0,1.47919197247864503813283913913639
110,4841.08103189019144649638016916919365,4839.6,1.48103189019144649638016916919365
111,4929.48285513772995806960467245558379,4928.0,1.48285513772995806960467245558379
112,5018.68466201459306509336181886839438,5017.2,1.48466201459306509336181886839438
113,5108.68645281227805760959355996346792,5107.2,1.48645281227805760959355996346792
114,5199.48822781456322334043718982537343,5198.0,1.48822781456322334043718982537343
115,5291.08998729777807329751107915803018,5289.6,1.48998729777807329751107915803018
116,5383.49173153106184047722359826302125,5382.0,1.49173153106184047722359826302125
117,5476.69346077661086037964450671468696,5475.2,1.49346077661086037964450671468696
118,5570.69517528991540105737272370080280,5569.2,1.49517528991540105737272370080280
119,5665.49687531998647668711804036923903,5664.0,1.49687531998647668711804036923903
120,5761.09856110957315281447947166636807,5759.6,1.49856110957315281447947166636807
121,5857.50023289537081315515862912865345,5856.0,1.50023289537081315515862912865345
122,5954.70189090822083892271379502967614,5953.2,1.50189090822083892271379502967614
123,6052.70353537330211946002846726836219,6051.2,1.50353537330211946002846726836219
124,6151.50516651031479527185941828798718,6150.0,1.50516651031479527185941828798718
125,6251.10678453365660498956631475345008,6249.6,1.50678453365660498956631475345008
126,6351.50838965259219260182740552981773,6350.0,1.50838965259219260182740552981773
127,6452.70998207141571070725933641641020,6451.2,1.50998207141571070725933641641020
128,6554.71156198960703295766949625470638,6553.2,1.51156198960703295766949625470638
129,6657.51312960198187678743103413492732,6656.0,1.51312960198187678743103413492732
130,6761.11468509883611914260341095155497,6759.6,1.51468509883611914260341095155497
131,6865.51622866608457251930362127368542,6864.0,1.51622866608457251930362127368542
132,6970.71776048539447364363228323866833,6969.2,1.51776048539447364363228323866833
133,7076.71928073431392534387455888611330,7075.2,1.51928073431392534387455888611330
134,7183.52078958639552088973766913866099,7182.0,1.52078958639552088973766913866099
135,7291.12228721131536196504396842107675,7289.6,1.52228721131536196504396842107675
136,7399.52377377498767775276801050327863,7398.0,1.52377377498767775276801050327863
137,7508.72524943967523930336303665263990,7507.2,1.52524943967523930336303665263990
138,7618.72671436409574974533127413745160,7617.2,1.52671436409574974533127413745160
139,7729.52816870352438879108711876055612,7728.0,1.52816870352438879108711876055612
140,7841.12961260989267454519402025881468,7839.6,1.52961260989267454519402025881468
141,7953.53104623188380106456573194219091,7952.0,1.53104623188380106456573194219091
142,8066.73246971502460204695608077336868,8065.2,1.53246971502460204695608077336868
143,8180.73388320177428237389149848309700,8179.2,1.53388320177428237389149848309700
144,8295.53528683161005205456427755550757,8294.0,1.53528683161005205456427755550757
145,8411.13668074110979292944484610799408,8409.6,1.53668074110979292944484610799408
146,8527.53806506403188062362098978597888,8526.0,1.53806506403188062362098978597888
147,8644.73943993139227603690574994568282,8643.2,1.53943993139227603690574994568282
148,8762.74080547153900169972234351867848,8761.2,1.54080547153900169972234351867848
149,8881.54216181022410479570053321785614,8880.0,1.54216181022410479570053321785614
150,9001.14350907067321049184129468707878,8999.6,1.54350907067321049184129468707878
151,9121.54484737365276149048347779146641,9120.0,1.54484737365276149048347779146641
152,9242.74617683753503410222094079078775,9241.2,1.54617683753503410222094079078775
153,9364.74749757836101978944245178283644,9363.2,1.54749757836101978944245178283644
154,9487.54880970990125607971449231361996,9486.0,1.54880970990125607971449231361996
155,9611.15011334371468508497750248710422,9609.6,1.55011334371468508497750248710422
156,9735.55140858920561749289618552061340,9734.0,1.55140858920561749289618552061340
157,9860.75269555367887307694398910434112,9859.2,1.55269555367887307694398910434112
158,9986.75397434239316954330016355883333,9985.2,1.55397434239316954330016355883333
159,10113.5552450586128233873694275216402,10112.0,1.5552450586128233873694275216402
160,10241.1565078036578290974386037354457,10239.6,1.5565078036578290974386037354457
161,10369.5577626769523752015661504316157,10368.0,1.5577626769523752015661504316157
162,10498.7590097760718566187807835824329,10497.2,1.5590097760718566187807835824329
163,10628.7602491967884381678632433750149,10627.2,1.5602491967884381678632433750149
164,10759.5614810331152238702813679220162,10758.0,1.5614810331152238702813679220162
165,10891.1627053773490806474712062322723,10889.6,1.5627053773490806474712062322723
166,11023.5639223201121669280275256746910,11022.0,1.5639223201121669280275256746910
167,11156.7651319503922133970988095511749,11155.2,1.5651319503922133970988095511749
168,11290.7663343555815985768751760869471,11289.2,1.5663343555815985768751760869471
169,11425.5675296215152643002349320379750,11424.0,1.5675296215152643002349320379750
170,11561.1687178325075108206411229990121,11559.6,1.5687178325075108206411229990121
171,11697.5698990713877117527237696287653,11696.0,1.5698990713877117527237696287653
172,11834.7710734195349867101814459609320,11833.2,1.5710734195349867101814459609320
173,11972.7722409569118670433080736861414,11971.2,1.5722409569118670433080736861414
174,12111.5734017620969905196347327640150,12110.0,1.5734017620969905196347327640150
175,12251.1745559123168589325948276592677,12249.6,1.5745559123168589325948276592677
176,12391.5757034834766883445410991554508,12390.0,1.5757034834766883445410991554508
177,12532.7768445501903852246274913396243,12531.2,1.5768445501903852246274913396243
178,12674.7779791858096776359278707820212,12673.2,1.5779791858096776359278707820212
179,12817.5791074624524279167130471653306,12816.0,1.5791074624524279167130471653306
180,12961.1802294510301578022607686063673,12959.6,1.5802294510301578022607686063673
181,13105.5813452212748086357608460362496,13104.0,1.5813452212748086357608460362496
182,13250.7824548417647643636762250203609,13249.2,1.5824548417647643636762250203609
183,13396.7835583799501603648103277161837,13395.2,1.5835583799501603648103277161837
184,13543.5846559021775023545921312866225,13542.0,1.5846559021775023545921312866225
185,13691.1857474737136171726786644517032,13689.6,1.5857474737136171726786644517032
186,13839.5868331587689564224695680357988,13838.0,1.5868331587689564224695680357988
187,13988.7879130205202767630075517494463,13987.2,1.5879130205202767630075517494463
188,14138.7889871211327122895546512298472,14137.2,1.5889871211327122895546512298472
189,14289.5900555217812627339078242772906,14288.0,1.5900555217812627339078242772906
190,14441.1911182826717131355043057246808,14439.6,1.5911182826717131355043057246808
191,14593.5921754630610042058409645681066,14592.0,1.5921754630610042058409645681066
192,14746.7932271212770697683824584389574,14745.2,1.5932271212770697683824584389574
193,14900.7942733147381595777775055659551,14899.2,1.5942733147381595777775055659551
194,15055.5953140999716608591365994478989,15054.0,1.5953140999716608591365994478989
195,15211.1963495326324364997001785382063,15209.6,1.5963495326324364997001785382063
196,15367.5973796675206935847670670373698,15366.0,1.5973796675206935847670670373698
197,15524.7984045585993966531735587016940,15523.2,1.5984045585993966531735587016940
198,15682.7994242590112398342713184794712,15681.2,1.5994242590112398342713184794712
199,15841.6004388210951907002272486218617,15840.0,1.6004388210951907002272486218617
200,16001.2014482964026197738134210989204,15999.6,1.6014482964026197738134210989204
201,16161.6024527357130266680733140379710,16160.0,1.6024527357130266680733140379710
202,16322.8034521890493762339836940657789,16321.2,1.6034521890493762339836940657789
203,16484.8044467056930553708012294157351,16483.2,1.6044467056930553708012294157351
204,16647.6054363341984621139636435618469,16646.0,1.6054363341984621139636435618469
205,16811.2064211224072369658648130424256,16809.6,1.6064211224072369658648130424256
206,16975.6074011174621494882092086542941,16974.0,1.6074011174621494882092086542941
207,17140.8083763658206460265787661193073,17139.2,1.6083763658206460265787661193073
208,17306.8093469132680727886252744015506,17305.2,1.6093469132680727886252744015506
209,17473.6103128049305800187239418722675,17472.0,1.6103128049305800187239418722675
210,17641.2112740852877187646957011596458,17639.6,1.6112740852877187646957011596458
211,17809.6122307981847375955629625825651,17808.0,1.6122307981847375955629625825651
212,17978.8131829868445894974693694553237,17977.2,1.6131829868445894974693694553237
213,18148.8141306938796533256608958767974,18147.2,1.6141306938796533256608958767974
214,18319.6150739613031847882193780487508,18318.0,1.6150739613031847882193780487508
215,18491.2160128305404961677833365260019,18489.6,1.6160128305404961677833365260019
216,18663.6169473424398787357146321675556,18662.0,1.6169473424398787357146321675556
217,18836.8178775372832718177558674618604,18835.2,1.6178775372832718177558674618604
218,19010.8188034547966874836307005533609,19009.2,1.6188034547966874836307005533609
219,19185.6197251341603941335254530483495,19184.0,1.6197251341603941335254530483495
220,19361.2206426140188714895813396070993,19359.6,1.6206426140188714895813396070993
221,19537.6215559324905348946904549843487,19536.0,1.6215559324905348946904549843487
222,19714.8224651271772461159623466376819,19713.2,1.6224651271772461159623466376819
223,19892.8233702351736042136953121673554,19891.2,1.6233702351736042136953121673554
224,20071.6242712930760315351526329895477,20070.0,1.6242712930760315351526329895477
225,20251.2251683369916573896888768423422,20249.6,1.6251683369916573896888768423422
226,20431.6260614025470029431692756624861,20430.0,1.6260614025470029431692756624861
227,20612.8269505248964759745310634291708,20611.2,1.6269505248964759745310634291708
228,20794.8278357387306773046889246303029,20793.2,1.6278357387306773046889246303029
229,20977.6287170782845260499303725942377,20976.0,1.6287170782845260499303725942377
230,21161.2295945773452083860397987832465,21159.6,1.6295945773452083860397987832465
231,21345.6304682692599516124171174708802,21344.0,1.6304682692599516124171174708802
232,21530.8313381869436339251060269796546,21529.2,1.6313381869436339251060269796546
233,21716.8322043628862248842314566851016,21715.2,1.6322043628862248842314566851016
234,21903.6330668291600727219071498588189,21902.0,1.6330668291600727219071498588189
235,22091.2339256174270316617077192024276,22089.6,1.6339256174270316617077192024276
236,22279.6347807589454389484687455820379,22278.0,1.6347807589454389484687455820379
237,22468.8356322845769452085362958254308,22467.2,1.6356322845769452085362958254308
238,22658.8364802247931998714716708175836,22657.2,1.6364802247931998714716708175836
