Eigenstate,Energy,Kinetic Energy,Potential Energy
1,0.500000002161052519897157080574231826,0.0,0.500000002161052519897157080574231826
2,1.84623095175807678673913951445870264,1.2,0.64623095175807678673913951445870264
3,3.93633765114640282482301659348242546,3.2,0.73633765114640282482301659348242546
4,6.79966536414160157193833641058266033,6.0,0.79966536414160157193833641058266033
5,10.4480467248435427759974644535870662,9.6,0.8480467248435427759974644535870662
6,14.8870662283376702486976857258686000,14.0,0.8870662283376702486976857258686000
7,20.1197211562281627525925961561641676,19.2,0.9197211562281627525925961561641676
8,26.1477842949913188682015047442599312,25.2,0.9477842949913188682015047442599312
9,32.9723841437036707058927811885252926,32.0,0.9723841437036707058927811885252926
10,40.5942809565710260409912923508257477,39.6,0.9942809565710260409912923508257477
11,49.0140103037862230283447603729657002,48.0,1.0140103037862230283447603729657002
12,58.2319632807041265995327339310083083,57.2,1.0319632807041265995327339310083083
13,68.2484340174413340019740183118329086,67.2,1.0484340174413340019740183118329086
14,79.0636492117335628023825364012224379,78.0,1.0636492117335628023825364012224379
15,90.6777872447505859332370367977043751,89.6,1.0777872447505859332370367977043751
16,103.090990985967158506397382655478547,102.0,1.090990985967158506397382655478547
17,116.303376626624846280292282782280170,115.2,1.103376626624846280292282782280170
18,130.315039930738453419683214911088508,129.2,1.115039930738453419683214911088508
19,145.126060758200168446109059303870602,144.0,1.126060758200168446109059303870602
20,160.736506402413630626977575901164411,159.6,1.136506402413630626977575901164411
21,177.146434096375732114900405926604325,176.0,1.146434096375732114900405926604325
22,194.355892923835446619703897014002213,193.2,1.155892923835446619703897014002213
23,212.364925297230431795043566115830799,211.2,1.164925297230431795043566115830799
24,231.173568115087522091068583873706811,230.0,1.173568115087522091068583873706811
25,250.781853678818721388469131762678109,249.6,1.181853678818721388469131762678109
26,271.189810426528854352939956037751188,270.0,1.189810426528854352939956037751188
27,292.397463525978204531607085415538819,291.2,1.197463525978204531607085415538819
28,314.404835357941616053373854298830932,313.2,1.204835357941616053373854298830932
29,337.211945913410507732000810971595450,336.0,1.211945913410507732000810971595450
30,360.818813122434760632504610413283195,359.6,1.218813122434760632504610413283195
31,385.225453128255501541839337348741593,384.0,1.225453128255501541839337348741593
32,410.431880517301905114613554335496251,409.2,1.231880517301905114613554335496251
33,436.438108513315489598829576229672940,435.2,1.238108513315489598829576229672940
34,463.244149142114834735744813745972651,462.0,1.244149142114834735744813745972651
35,490.850013372174455329688802772209306,489.6,1.250013372174455329688802772209306
36,519.255711235158085081387159351601435,518.0,1.255711235158085081387159351601435
37,548.461251929742540712615168197574901,547.2,1.261251929742540712615168197574901
38,578.466643911437917654489244640581018,577.2,1.266643911437917654489244640581018
39,609.271894970612019913477450109179427,608.0,1.271894970612019913477450109179427
40,640.877012300531105939735333231189499,639.6,1.277012300531105939735333231189499
41,673.282002556912282044886059409750144,672.0,1.282002556912282044886059409750144
42,706.486871910227882312776404048209989,705.2,1.286871910227882312776404048209989
43,740.491626091795687601088499741177242,739.2,1.291626091795687601088499741177242
44,775.296270434520742216522471400482078,774.0,1.296270434520742216522471400482078
45,810.900809909016957278507147337459678,809.6,1.300809909016957278507147337459678
46,847.305249155723553505776509839412055,846.0,1.305249155723553505776509839412055
47,884.509592513537919550428204403350229,883.2,1.309592513537919550428204403350229
48,922.513844045408875642993581912740585,921.2,1.313844045408875642993581912740585
49,961.318007561269669771798965586412132,960.0,1.318007561269669771798965586412132
50,1000.92208663863591091033129664731099,999.6,1.32208663863591091033129664731099
51,1041.32608464114817684835619573898314,1040.0,1.32608464114817684835619573898314
52,1082.53000473530068897311192700382645,1081.2,1.33000473530068897311192700382645
53,1124.53384990556499623361438870881229,1123.2,1.33384990556499623361438870881229
54,1167.33762296809004939526718320842224,1166.0,1.33762296809004939526718320842224
55,1210.94132658313657120542257638374307,1209.6,1.34132658313657120542257638374307
56,1255.34496326638355352674299305037924,1254.0,1.34496326638355352674299305037924
57,1300.54853539922751353676939157790993,1299.2,1.34853539922751353676939157790993
58,1346.55204523818034391287008162878906,1345.2,1.35204523818034391287008162878906
59,1393.35549492345883798187447816731743,1392.0,1.35549492345883798187447816731743
60,1440.95888648684794631381171358213078,1439.6,1.35888648684794631381171358213078
61,1489.36222185891025701986908883625741,1488.0,1.36222185891025701986908883625741
62,1538.56550287560589101819434197011695,1537.2,1.36550287560589101819434197011695
63,1588.56873128437976165119155161190749,1587.2,1.36873128437976165119155161190749
64,1639.37190874976683556754411033285264,1638.0,1.37190874976683556754411033285264
65,1690.97503685856049695220119327456264,1689.6,1.37503685856049695220119327456264
66,1743.37811712458426985897738536630040,1742.0,1.37811712458426985897738536630040
67,1796.58115099310289112007922073225536,1795.2,1.38115099310289112007922073225536
68,1850.58413984490497015760157790219172,1849.2,1.38413984490497015760157790219172
69,1905.38708500008615936343773382806335,1904.0,1.38708500008615936343773382806335
70,1960.98998772155883045846425599860284,1959.6,1.38998772155883045846425599860284
71,2017.39284921831165355154542910400974,2016.0,1.39284921831165355154542910400974
72,2074.59567064844017739049738635256190,2073.2,1.39567064844017739049738635256190
73,2132.59845312196745630554078525258714,2131.2,1.39845312196745630554078525258714
74,2191.40119770347195051268753731592102,2190.0,1.40119770347195051268753731592102
75,2251.00390541453829535970780952037676,2249.6,1.40390541453829535970780952037676
76,2311.40657723604508555768638373565159,2310.0,1.40657723604508555768638373565159
77,2372.60921411030251806079594455039410,2371.2,1.40921411030251806079594455039410
78,2434.61181694305157147767630734965825,2433.2,1.41181694305157147767630734965825
79,2497.41438660533535309777744683103357,2496.0,1.41438660533535309777744683103357
80,2561.01692393525230651137727657160622,2559.6,1.41692393525230651137727657160622
81,2625.41942973960012348263158634085651,2624.0,1.41942973960012348263158634085651
82,2690.62190479541844230776450991082109,2689.2,1.42190479541844230776450991082109
83,2756.62434985143772618125846537905178,2755.2,1.42434985143772618125846537905178
84,2823.42676562944109082707589767234416,2822.0,1.42676562944109082707589767234416
85,2891.02915282554529140306872221108881,2889.6,1.42915282554529140306872221108881
86,2959.43151211140656285009071910448134,2958.0,1.43151211140656285009071910448134
87,3028.63384413535655041694699122499016,3027.2,1.43384413535655041694699122499016
88,3098.63614952347314374659836062552089,3097.2,1.43614952347314374659836062552089
89,3169.43842888059064444072273360632148,3168.0,1.43842888059064444072273360632148
90,3241.04068279125335383877774343494928,3239.6,1.44068279125335383877774343494928
91,3313.44291182061634633340451276584374,3312.0,1.44291182061634633340451276584374
92,3386.64511651529690528640309550819880,3385.2,1.44511651529690528640309550819880
93,3460.64729740417983639666509971931969,3459.2,1.44729740417983639666509971931969
94,3535.44945499917963048735286753549663,3534.0,1.44945499917963048735286753549663
95,3611.05158979596222657284186881494071,3609.6,1.45158979596222657284186881494071
96,3687.45370227462892429379246361948066,3686.0,1.45370227462892429379246361948066
97,3764.65579290036481051962115848109277,3763.2,1.45579290036481051962115848109277
98,3842.65786212405389209936575624889034,3841.2,1.45786212405389209936575624889034
99,3921.45991038286297332925445517545571,3920.0,1.45991038286297332925445517545571
100,4001.06193810079617042784357895772107,3999.6,1.46193810079617042784357895772107
101,4081.46394568922182607228664562725958,4080.0,1.46394568922182607228664562725958
102,4162.66593354737346154549188357466564,4161.2,1.46593354737346154549188357466564
103,4244.66790206282629620553662130915076,4243.2,1.46790206282629620553662130915076
104,4327.46985161195075680398138579075152,4326.0,1.46985161195075680398138579075152
105,4411.07178256034430619079433117782006,4409.6,1.47178256034430619079433117782006
106,4495.47369526324283026962557616482613,4494.0,1.47369526324283026962557616482613
107,4580.67559006591274408113037346324474,4579.2,1.47559006591274408113037346324474
108,4666.67746730402489875451589320302502,4665.2,1.47746730402489875451589320302502
109,4753.47932730401130258254598542373437,4752.0,1.47932730401130258254598542373437
110,4841.08117038340560717069160612589115,4839.6,1.48117038340560717069160612589115
111,4929.48299685116824387306203886132216,4928.0,1.48299685116824387306203886132216
112,5018.68480700799704642530076512826984,5017.2,1.48480700799704642530076512826984
113,5108.68660114662414028871498631308230,5107.2,1.48660114662414028871498631308230
114,5199.48837955209983061133392172050541,5198.0,1.48837955209983061133392172050541
115,5291.09014250206418042229494471620556,5289.6,1.49014250206418042229494471620556
116,5383.49189026700692251426246615837508,5382.0,1.49189026700692251426246615837508
117,5476.69362311051631693714904562406233,5475.2,1.49362311051631693714904562406233
118,5570.69534128951752518929877631509920,5569.2,1.49534128951752518929877631509920
119,5665.49704505450103868607394201504623,5664.0,1.49704505450103868607394201504623
120,5761.09873464974167346547583036265473,5759.6,1.49873464974167346547583036265473
121,5857.50041031350860506073212370751736,5856.0,1.50041031350860506073212370751736
122,5954.70207227826689881111533530552325,5953.2,1.50207227826689881111533530552325
123,6052.70372077087095896188195509183037,6051.2,1.50372077087095896188195509183037
124,6151.50535601275030251672020587422200,6150.0,1.50535601275030251672020587422200
125,6251.10697822008803455335590679736682,6249.6,1.50697822008803455335590679736682
126,6351.50858760399238685220247764317946,6350.0,1.50858760399238685220247764317946
127,6452.71018437066166147140337279866964,6451.2,1.51018437066166147140337279866964
128,6554.71176872154289870290276509862741,6553.2,1.51176872154289870290276509862741
129,6657.51334085348457718842487024657211,6656.0,1.51334085348457718842487024657211
130,6761.11490095888363604170608989916001,6759.6,1.51490095888363604170608989916001
131,6865.51644922582709390291612794531508,6864.0,1.51644922582709390291612794531508
132,6970.71798583822852539495762743945362,6969.2,1.51798583822852539495762743945362
133,7076.71951097595964423149182375295933,7075.2,1.51951097595964423149182375295933
134,7183.52102481497723155631977370909714,7182.0,1.52102481497723155631977370909714
135,7291.12252752744563063936546658798436,7289.6,1.52252752744563063936546658798436
136,7399.52401928185502607316209290002435,7398.0,1.52401928185502607316209290002435
137,7508.72550024313571306923204991824776,7507.2,1.52550024313571306923204991824776
138,7618.72697057276854966734103657667723,7617.2,1.52697057276854966734103657667723
139,7729.52843042889178345834886123665351,7728.0,1.52843042889178345834886123665351
140,7841.12987996640442994341407746410402,7839.6,1.52987996640442994341407746410402
141,7953.53131933706637614396116767092204,7952.0,1.53131933706637614396116767092204
142,8066.73274868959537614181515870138092,8065.2,1.53274868959537614181515870138092
143,8180.73416816976109781431191782599465,8179.2,1.53416816976109781431191782599465
144,8295.53557792047637419201765647965987,8294.0,1.53557792047637419201765647965987
145,8411.13697808188581013870249336031180,8409.6,1.53697808188581013870249336031180
146,8527.53836879145188877290709878198001,8526.0,1.53836879145188877290709878198001
147,8644.73975018403871557763811561915308,8643.2,1.53975018403871557763811561915308
148,8762.74112239199354107254677171082050,8761.2,1.54112239199354107254677171082050
149,8881.54248554522619145247769367118013,8880.0,1.54248554522619145247769367118013
150,9001.14383977128654068293518992191933,8999.6,1.54383977128654068293518992191933
151,9121.54518519544015227208482389231278,9120.0,1.54518519544015227208482389231278
152,9242.74652194074221601015322876229929,9241.2,1.54652194074221601015322876229929
153,9364.74785012810990655928482773263501,9363.2,1.54785012810990655928482773263501
154,9487.54916987639328895053406717827704,9486.0,1.54916987639328895053406717827704
155,9611.15048130244489391879434723923729,9609.6,1.55048130244489391879434723923729
156,9735.55178452118808952161569205851225,9734.0,1.55178452118808952161569205851225
157,9860.75307964568437293877945083697898,9859.2,1.55307964568437293877945083697898
158,9986.75436678719971182120822043740897,9985.2,1.55436678719971182120822043740897
159,10113.5556460552700615904604467007430,10112.0,1.5556460552700615904604467007430
160,10241.1569175577661934656501225552517,10239.6,1.5569175577661934656501225552517
161,10369.5581814009579664589366885494376,10368.0,1.5581814009579664589366885494376
162,10498.7594376895781845160512342297423,10497.2,1.5594376895781845160512342297423
163,10628.7606865268861830848066650175194,10627.2,1.5606865268861830848066650175194
164,10759.5619280147312977256665594659166,10758.0,1.5619280147312977256665594659166
165,10891.1631622536163708252629643760802,10889.6,1.5631622536163708252629643760802
166,11023.5643893427614649231687894095526,11022.0,1.5643893427614649231687894095526
167,11156.7656093801679595959252144510186,11155.2,1.5656093801679595959252144510186
168,11290.7668224626832173485027869226168,11289.2,1.5668224626832173485027869226168
169,11425.5680286860660208902353298534640,11424.0,1.5680286860660208902353298534640
170,11561.1692281450529951077142118146805,11559.6,1.5692281450529951077142118146805
171,11697.5704209334262456774517007166770,11696.0,1.5704209334262456774517007166770
172,11834.7716071440824642958528392193802,11833.2,1.5716071440824642958528392193802
173,11972.7727868691037708815466811934259,11971.2,1.5727868691037708815466811934259
174,12111.5739601998305892102805632832016,12110.0,1.5739601998305892102805632832016
175,12251.1751272269368794638039378935794,12249.6,1.5751272269368794638039378935794
176,12391.5762880405080794487290969142443,12390.0,1.5762880405080794487290969142443
177,12532.7774427301221465502880995487492,12531.2,1.5774427301221465502880995487492
178,12674.7785913849341299516694823598832,12673.2,1.5785913849341299516694823598832
179,12817.5797340937647470439348693622087,12816.0,1.5797340937647470439348693622087
180,12961.1808709451934959238457881430291,12959.6,1.5808709451934959238457881430291
181,13105.5820020276568883929103955329566,13104.0,1.5820020276568883929103955329566
182,13250.7831274295524622183845240782045,13249.2,1.5831274295524622183845240782045
183,13396.7842472393493059026578828280321,13395.2,1.5842472393493059026578828280321
184,13543.5853615457059209451802523881203,13542.0,1.5853615457059209451802523881203
185,13691.1864704375963479769593150310543,13689.6,1.5864704375963479769593150310543
186,13839.5875740044456016343412351945149,13838.0,1.5875740044456016343412351945149
187,13988.7886723362755993219012469026836,13987.2,1.5886723362755993219012469026836
188,14138.7897655238629193560766519850447,14137.2,1.5897655238629193560766519850447
189,14289.5908536589099159735744336693045,14288.0,1.5908536589099159735744336693045
190,14441.1919368342309237743954952519826,14439.6,1.5919368342309237743954952519826
191,14593.5930151439555357542307103829719,14592.0,1.5930151439555357542307103829719
192,14746.7940886837512255870820010560058,14745.2,1.5940886837512255870820010560058
193,14900.7951575510679252638068462378168,14899.2,1.5951575510679252638068462378168
194,15055.5962218454075614543859933436608,15054.0,1.5962218454075614543859933436608
195,15211.1972816686220260805621947305136,15209.6,1.5972816686220260805621947305136
196,15367.5983371252436043657554504897838,15366.0,1.5983371252436043657554504897838
197,15524.7993883228525382494145310934397,15523.2,1.5993883228525382494145310934397
198,15682.8004353724871801697300524699777,15681.2,1.6004353724871801697300524699777
199,15841.6014783891031182104354101307602,15840.0,1.6014783891031182104354101307602
200,16001.2025174920887650944821087381187,15999.6,1.6025174920887650944821087381187
201,16161.6035528058462353070807143145567,16160.0,1.6035528058462353070807143145567
202,16322.8045844604479480566252141243235,16321.2,1.6045844604479480566252141243235
203,16484.8056125923813438080939886382388,16483.2,1.6056125923813438080939886382388
204,16647.6066373453964805969632256591870,16646.0,1.6066373453964805969632256591870
205,16811.2076588714741828790461565211714,16809.6,1.6076588714741828790461565211714
206,16975.6086773319359935081452970754242,16974.0,1.6086773319359935081452970754242
207,17140.8096928987215890736699953904798,17139.2,1.6096928987215890736699953904798
208,17306.8107057558648138670639359898987,17305.2,1.6107057558648138670639359898987
209,17473.6117161012063339102977618976092,17472.0,1.6117161012063339102977618976092
210,17641.2127241483895334316009534305607,17639.6,1.6127241483895334316009534305607
211,17809.6137301291971688083746222782435,17808.0,1.6137301291971688083746222782435
212,17978.8147342963001731280181417754151,17977.2,1.6147342963001731280181417754151
213,18148.8157369265077924615630940921364,18147.2,1.6157369265077924615630940921364
214,18319.6167383246312371315523165488079,18318.0,1.6167383246312371315523165488079
215,18491.2177388281029622388731921346046,18489.6,1.6177388281029622388731921346046
216,18663.6187388125330468331253797857289,18662.0,1.6187388125330468331253797857289
217,18836.8197386984362849353775485990299,18835.2,1.6197386984362849353775485990299
218,19010.8207389594334250878292712360163,19009.2,1.6207389594334250878292712360163
219,19185.6217401323244387092535728938158,19184.0,1.6217401323244387092535728938158
220,19361.2227428295609223696042794732336,19359.6,1.6227428295609223696042794732336
221,19537.6237477548236625500372359914316,19536.0,1.6237477548236625500372359914316
222,19714.8247557226624800600951661062310,19713.2,1.6247557226624800600951661062310
223,19892.8257676835127822296494041574539,19891.2,1.6257676835127822296494041574539
224,20071.6267847559198082601764542620142,20070.0,1.6267847559198082601764542620142
225,20251.2278082685609951166049629085396,20249.6,1.6278082685609951166049629085396
226,20431.6288398157945345918054191928511,20430.0,1.6288398157945345918054191928511
227,20612.8298813322018136990042281537802,20611.2,1.6298813322018136990042281537802
228,20794.8309351943130391497610350692419,20793.2,1.6309351943130391497610350692419
229,20977.6320043620733385996288260289192,20976.0,1.6320043620733385996288260289192
230,21161.2330925798208859421163365129311,21159.6,1.6330925798208859421163365129311
231,21345.6342046688572635269676661395744,21344.0,1.6342046688572635269676661395744
232,21530.8353469654851754925306782452501,21529.2,1.6353469654851754925306782452501
233,21716.8365279986710945740696672812043,21715.2,1.6365279986710945740696672812043
234,21903.6377595797680612905686658881400,21902.0,1.6377595797680612905686658881400
235,22091.2390586381564065331334977285960,22089.6,1.6390586381564065331334977285960
236,22279.6404504942993642664979902880630,22278.0,1.6404504942993642664979902880630
237,22468.8419751274602259311807099583668,22467.2,1.6419751274602259311807099583668
238,22658.8437003408967876186981547593004,22657.2,1.6437003408967876186981547593004
