Eigenstate,Energy,Kinetic Energy,Potential Energy
1,0.500000000027213331529361298151439690,0.0,0.500000000027213331529361298151439690
2,1.84623093782874898551209752830520460,1.2,0.64623093782874898551209752830520460
3,3.93633761022676172541239266412702950,3.2,0.73633761022676172541239266412702950
4,6.79966527890105829810329900739226647,6.0,0.79966527890105829810329900739226647
5,10.4480465771682766871351189305518870,9.6,0.8480465771682766871351189305518870
6,14.8870659997833936135355508208273919,14.0,0.8870659997833936135355508208273919
7,20.1197208281847248137614543741337652,19.2,0.9197208281847248137614543741337652
8,26.1477838487492966780228699344588107,25.2,0.9477838487492966780228699344588107
9,32.9723835604834387818380669813640462,32.0,0.9723835604834387818380669813640462
10,40.5942802175357572886489865125220850,39.6,0.9942802175357572886489865125220850
11,49.0140093900473161145860059591669526,48.0,1.0140093900473161145860059591669526
12,58.2319621733227645086386725578293457,57.2,1.0319621733227645086386725578293457
13,68.2484326974279266452791318152492865,67.2,1.0484326974279266452791318152492865
14,79.0636476600459618830999775937248468,78.0,1.0636476600459618830999775937248468
15,90.6777854422915488833901036667632967,89.6,1.0777854422915488833901036667632967
16,103.090988913581330260737171921916002,102.0,1.090988913581330260737171921916002
17,116.303374265095416748017381934741967,115.2,1.103374265095416748017381934741967
18,130.315037260783586632386467184204926,129.2,1.115037260783586632386467184204926
19,145.126057760469263421638465878468638,144.0,1.126057760469263421638465878468638
20,160.736503057483452366566073619120205,159.6,1.136503057483452366566073619120205
21,177.146430384746437726051510743247338,176.0,1.146430384746437726051510743247338
22,194.355888825926522982882956331993682,193.2,1.155888825926522982882956331993682
23,212.364920793376555573159169018611424,211.2,1.164920793376555573159169018611424
24,231.173563185534349110363691638805436,230.0,1.173563185534349110363691638805436
25,250.781848303718609833199229633930775,249.6,1.181848303718609833199229633930775
26,271.189804585936524404799725055759748,270.0,1.189804585936524404799725055759748
27,292.397457199846335790313987784256922,291.2,1.197457199846335790313987784256922
28,314.404828526116383131093464883832942,313.2,1.204828526116383131093464883832942
29,337.211938555627053712449638114373413,336.0,1.211938555627053712449638114373413
30,360.818805218312607552808002511593759,359.6,1.218805218312607552808002511593759
31,385.225444657293896642117125123945175,384.0,1.225444657293896642117125123945175
32,410.431871458875101272727618079668545,409.2,1.231871458875101272727618079668545
33,436.438098846667958101891525306243946,435.2,1.238098846667958101891525306243946
34,463.244138846356408318934960942889965,462.0,1.244138846356408318934960942889965
35,490.850002426275399224512915762509547,489.6,1.250002426275399224512915762509547
36,519.255699617944093650859073520287377,518.0,1.255699617944093650859073520287377
37,548.461239619889657103476481181331881,547.2,1.261239619889657103476481181331881
38,578.466630887467373761618050628660751,577.2,1.266630887467373761618050628660751
39,609.271881210884993825426264915902048,608.0,1.271881210884993825426264915902048
40,640.876997783243393914088939558513143,639.6,1.276997783243393914088939558513143
41,673.281987260088881945674590142275802,672.0,1.281987260088881945674590142275802
42,706.486855811717485327829038110593255,705.2,1.286855811717485327829038110593255
43,740.491609169265074943618508098729665,739.2,1.291609169265074943618508098729665
44,775.296252665449083401317404202564013,774.0,1.296252665449083401317404202564013
45,810.900791270690006447956626505145247,809.6,1.300791270690006447956626505145247
46,847.305229625227740163867485623004417,846.0,1.305229625227740163867485623004417
47,884.509572067754329943135735018245260,883.2,1.309572067754329943135735018245260
48,922.513822661007120900641527896980300,921.2,1.313822661007120900641527896980300
49,961.317985214701636802472626466069900,960.0,1.317985214701636802472626466069900
50,1000.92206330612939190285178885204750,999.6,1.32206330612939190285178885204750
51,1041.32606029870037310825259526115451,1040.0,1.32606029870037310825259526115451
52,1082.52997935867158467508349469934627,1081.2,1.32997935867158467508349469934627
53,1124.53382347027059752877803894719634,1123.2,1.33382347027059752877803894719634
54,1167.33759544939548416067671012022787,1166.0,1.33759544939548416067671012022787
55,1210.94129795604904456657692086170563,1209.6,1.34129795604904456657692086170563
56,1255.34493350564515412070522567898914,1254.0,1.34493350564515412070522567898914
57,1300.54850447930786531374896894904486,1299.2,1.34850447930786531374896894904486
58,1346.55201313326909809729562091986236,1345.2,1.35201313326909809729562091986236
59,1393.35546160745799962975448900310359,1392.0,1.35546160745799962975448900310359
60,1440.95885193336402971113470839053867,1439.6,1.35885193336402971113470839053867
61,1489.36218604124626396655003958021511,1488.0,1.36218604124626396655003958021511
62,1538.56546576675310583320861693974805,1537.2,1.36546576675310583320861693974805
63,1588.56869285700935651662613122743817,1587.2,1.36869285700935651662613122743817
64,1639.37186897622127960187964376721274,1638.0,1.37186897622127960187964376721274
65,1690.97499571084476216574711657489917,1689.6,1.37499571084476216574711657489917
66,1743.37807457435682689652422287062964,1742.0,1.37807457435682689652422287062964
67,1796.58110701166648743698472335436100,1795.2,1.38110701166648743698472335436100
68,1850.58409440319718300514258736923858,1849.2,1.38409440319718300514258736923858
69,1905.38703806866971567674762598242394,1904.0,1.38703806866971567674762598242394
70,1960.98993927061168544518267977936261,1959.6,1.38993927061168544518267977936261
71,2017.39279921761681947069962988369301,2016.0,1.39279921761681947069962988369301
72,2074.59561906737529368855180303254648,2073.2,1.39561906737529368855180303254648
73,2132.59839992949409193917714811328349,2131.2,1.39839992949409193917714811328349
74,2191.40114286812462893503390352112894,2190.0,1.40114286812462893503390352112894
75,2251.00384890441323227758764396603415,2249.6,1.40384890441323227758764396603415
76,2311.40651901878862918119342183638929,2310.0,1.40651901878862918119342183638929
77,2372.60915415309928116219875134350962,2371.2,1.40915415309928116219875134350962
78,2434.61175521261224415341304897877287,2433.2,1.41175521261224415341304897877287
79,2497.41432306788418468409695105310121,2496.0,1.41432306788418468409695105310121
80,2561.01685855651424463998055093884083,2559.6,1.41685855651424463998055093884083
81,2625.41936248478759777634302559609080,2624.0,1.41936248478759777634302559609080
82,2690.62183562921777970663263635523606,2689.2,1.42183562921777970663263635523606
83,2756.62427873799518435531643673279906,2755.2,1.42427873799518435531643673279906
84,2823.42669253234849557193292601609828,2822.0,1.42669253234849557193292601609828
85,2891.02907770782526332714720151665106,2889.6,1.42907770782526332714720151665106
86,2959.43143493549731804621884377042087,2958.0,1.43143493549731804621884377042087
87,3028.63376486309625916449293357203627,3027.2,1.43376486309625916449293357203627
88,3098.63606811608383061178887010904397,3097.2,1.43606811608383061178887010904397
89,3169.43834529866161243040016585500286,3168.0,1.43834529866161243040016585500286
90,3241.04059699472411451468913433566236,3239.6,1.44059699472411451468913433566236
91,3313.44282376875903700820968456004926,3312.0,1.44282376875903700820968456004926
92,3386.64502616669817359675228399925014,3385.2,1.44502616669817359675228399925014
93,3460.64720471672217168064955017982110,3459.2,1.44720471672217168064955017982110
94,3535.44935993002212048094280335548579,3534.0,1.44935993002212048094280335548579
95,3611.05149230152071697998090725263720,3609.6,1.45149230152071697998090725263720
96,3687.45360231055555777490627429728771,3686.0,1.45360231055555777490627429728771
97,3764.65569042152692058037335645323369,3763.2,1.45569042152692058037335645323369
98,3842.65775708451222624255014402994469,3841.2,1.45775708451222624255014402994469
99,3921.45980273584921865426417149456191,3920.0,1.45980273584921865426417149456191
100,4001.06182779868975362073835343521216,3999.6,1.46182779868975362073835343521216
101,4081.46383268352595842120757388139279,4080.0,1.46383268352595842120757388139279
102,4162.66581778869039823698582904680469,4161.2,1.46581778869039823698582904680469
103,4244.66778350083177770294082015285151,4243.2,1.46778350083177770294082015285151
104,4327.46973019536759857462257779583385,4326.0,1.46973019536759857462257779583385
105,4411.07165823691510142953565387648498,4409.6,1.47165823691510142953565387648498
106,4495.47356797970172855680082440952773,4494.0,1.47356797970172855680082440952773
107,4580.67545976795626710749677340747253,4579.2,1.47545976795626710749677340747253
108,4666.67733393628175233841784848115282,4665.2,1.47733393628175233841784848115282
109,4753.47919081001114218844984223693738,4752.0,1.47919081001114218844984223693738
110,4841.08103070554671200664064834757461,4839.6,1.48103070554671200664064834757461
111,4929.48285393068405238984416268363229,4928.0,1.48285393068405238984416268363229
112,5018.68466078492150365418231046064105,5017.2,1.48466078492150365418231046064105
113,5108.68645155975580492877598072476718,5107.2,1.48645155975580492877598072476718
114,5199.48822653896468710243935948857710,5198.0,1.48822653896468710243935948857710
115,5291.08998599887709840552953883715570,5289.6,1.48998599887709840552953883715570
116,5383.49173020863170307749508057525541,5382.0,1.49173020863170307749508057525541
117,5476.69345943042426185766043904412073,5475.2,1.49345943042426185766043904412073
118,5570.69517391974446200567759961828920,5569.2,1.49517391974446200567759961828920
119,5665.49687392560273084435996514977618,5664.0,1.49687392560273084435996514977618
120,5761.09855969074754097537855485661761,5759.6,1.49855969074754097537855485661761
121,5857.50023145187367705105637349898735,5856.0,1.50023145187367705105637349898735
122,5954.70188943982191507236399946056459,5953.2,1.50188943982191507236399946056459
123,6052.70353387977053299028743565162539,6051.2,1.50353387977053299028743565162539
124,6151.50516499141905370793064892376856,6150.0,1.50516499141905370793064892376856
125,6251.10678298916459201445208947863436,6249.6,1.50678298916459201445208947863436
126,6351.50838808227116178463692238955764,6350.0,1.50838808227116178463692238955764
127,6452.70998047503227920002031955663705,6451.2,1.50998047503227920002031955663705
128,6554.71156036692717516028729534511821,6553.2,1.51156036692717516028729534511821
129,6657.51312795277091798043640855820802,6656.0,1.51312795277091798043640855820802
130,6761.11468342285872908732743096498480,6759.6,1.51468342285872908732743096498480
131,6865.51622696310475902511503079459040,6864.0,1.51622696310475902511503079459040
132,6970.71775875517557610186968828855599,6969.2,1.51775875517557610186968828855599
133,7076.71927897661860822810304846525087,7075.2,1.51927897661860822810304846525087
134,7183.52078780098576722195626528467950,7182.0,1.52078780098576722195626528467950
135,7291.12228539795246674746715615340653,7289.6,1.52228539795246674746715615340653
136,7399.52377193343224136480176697779348,7398.0,1.52377193343224136480176697779348
137,7508.72524756968716086339239698973088,7507.2,1.52524756968716086339239698973088
138,7618.72671246543422043693339764252694,7617.2,1.52671246543422043693339764252694
139,7729.52816677594788515328062208102812,7728.0,1.52816677594788515328062208102812
140,7841.12961065315895172633194977693097,7839.6,1.52961065315895172633194977693097
141,7953.53104424574988603947651605672696,7952.0,1.53104424574988603947651605672696
142,8066.73246769924678679693313585626590,8065.2,1.53246769924678679693313585626590
143,8180.73388115610811702912906746096758,8179.2,1.53388115610811702912906746096758
144,8295.53528475581033799863346011372254,8294.0,1.53528475581033799863346011372254
145,8411.13667863493057586540047267542662,8409.6,1.53667863493057586540047267542662
146,8527.53806292722644360132639126119581,8526.0,1.53806292722644360132639126119581
147,8644.73943776371313244115890516024704,8643.2,1.53943776371313244115890516024704
148,8762.74080327273788819876341274772506,8761.2,1.54080327273788819876341274772506
149,8881.54215958005197424967699949076636,8880.0,1.54215958005197424967699949076636
150,9001.14350680888022482080346087863060,8999.6,1.54350680888022482080346087863060
151,9121.54484507998828450147904935540624,9120.0,1.54484507998828450147904935540624
152,9242.74617451174762427505390051131161,9241.2,1.54617451174762427505390051131161
153,9364.74749522019842302065752937608275,9363.2,1.54749522019842302065752937608275
154,9487.54880731911039838436466798298296,9486.0,1.54880731911039838436466798298296
155,9611.15011092004166525572806369020457,9609.6,1.55011092004166525572806369020457
156,9735.55140613239569971601478907785406,9734.0,1.55140613239569971601478907785406
157,9860.75269306347647950472242753207972,9859.2,1.55269306347647950472242753207972
158,9986.75397181854187282244922957339452,9985.2,1.55397181854187282244922957339452
159,10113.5552425008553391429242316323273,10112.0,1.5552425008553391429242316323273
160,10241.1565052117360083717076311526748,10239.6,1.5565052117360083717076311526748
161,10369.5577600506071968476529761303342,10368.0,1.5577600506071968476529761303342
162,10498.7590071150434196482031484343254,10497.2,1.5590071150434196482031484343254
163,10628.7602465008159540517899851773346,10627.2,1.5602465008159540517899851773346
164,10759.5614783019370087939032150597275,10758.0,1.5614783019370087939032150597275
165,10891.1627026107025477170168870582401,10889.6,1.5627026107025477170168870582401
166,11023.5639195177338183299325467193264,11022.0,1.5639195177338183299325467193264
167,11156.7651291120176325088293059600036,11155.2,1.5651291120176325088293059600036
168,11290.7663314809454420289048756322528,11289.2,1.5663314809454420289048756322528
169,11425.5675267103512539886686082409533,11424.0,1.5675267103512539886686082409533
170,11561.1687148845484258699730611074308,11559.6,1.5687148845484258699730611074308
171,11697.5698960863653804282151810872889,11696.0,1.5698960863653804282151810872889
172,11834.7710703971802782793357804892278,11833.2,1.5710703971802782793357804892278
173,11972.7722378969546835859184999557063,11971.2,1.5722378969546835859184999557063
174,12111.5733986642662586858728377702175,12110.0,1.5733986642662586858728377702175
175,12251.1745527763405216486047775598621,12249.6,1.5745527763405216486047775598621
176,12391.5757003090816964649983270124723,12390.0,1.5757003090816964649983270124723
177,12532.7768413371026891317159460068916,12531.2,1.5768413371026891317159460068916
178,12674.7779759337542187841845373534707,12673.2,1.5779759337542187841845373534707
179,12817.5791041711531303231832845190801,12816.0,1.5791041711531303231832845190801
180,12961.1802261202099194814026683121189,12959.6,1.5802261202099194814026683121189
181,13105.5813418506554929785312470574954,13104.0,1.5813418506554929785312470574954
182,13250.7824514310671914602259392457813,13249.2,1.5824514310671914602259392457813
183,13396.7835549288940982702101355898186,13395.2,1.5835549288940982702101355898186
184,13543.5846524104816582970058876883730,13542.0,1.5846524104816582970058876883730
185,13691.1857439410956287033938665267374,13689.6,1.5857439410956287033938665267374
186,13839.5868295849453825071903614652572,13838.0,1.5868295849453825071903614652572
187,13988.7879094052065888138090147033473,13987.2,1.5879094052065888138090147033473
188,14138.7889834640432851368914100218626,14137.2,1.5889834640432851368914100218626
189,14289.5900518226293655380641695228035,14288.0,1.5900518226293655380641695228035
190,14441.1911145411695002368668873462496,14439.6,1.5911145411695002368668873462496
191,14593.5921716789195059133689838714545,14592.0,1.5921716789195059133689838714545
192,14746.7932232942061830856442229922598,14745.2,1.5932232942061830856442229922598
193,14900.7942694444466388659157885534940,14899.2,1.5942694444466388659157885534940
194,15055.5953101861671084361190243526192,15054.0,1.5953101861671084361190243526192
195,15211.1963455750212931752044091016462,15209.6,1.5963455750212931752044091016462
196,15367.5973756658082291300439847868859,15366.0,1.5973756658082291300439847868859
197,15524.7984005124897002052251347277116,15523.2,1.5984005124897002052251347277116
198,15682.7994201682072102336732598353450,15681.2,1.5994201682072102336732598353450
199,15841.6004346852985267619195417882877,15840.0,1.6004346852985267619195417882877
200,16001.2014441153138104901752459174249,15999.6,1.6014441153138104901752459174249
201,16161.6024485090313413435919238892922,16160.0,1.6024485090313413435919238892922
202,16322.8034479164728545508195359116712,16321.2,1.6034479164728545508195359116712
203,16484.8044423869184973845448826977106,16483.2,1.6044423869184973845448826977106
204,16647.6054319689214181788726532901109,16646.0,1.6054319689214181788726532901109
205,16811.2064167103219975888615181433201,16809.6,1.6064167103219975888615181433201
206,16975.6073966582617351109129157328418,16974.0,1.6073966582617351109129157328418
207,17140.8083718591967967346384815065349,17139.2,1.6083718591967967346384815065349
208,17306.8093423589112379476115000343047,17305.2,1.6093423589112379476115000343047
209,17473.6103082025299078358304161763370,17472.0,1.6103082025299078358304161763370
210,17641.2112694345310457754941806899739,17639.6,1.6112694345310457754941806899739
211,17809.6122260987585780750463896908093,17808.0,1.6122260987585780750463896908093
212,17978.8131782384341247946108929012478,17977.2,1.6131782384341247946108929012478
213,18148.8141258961687211207075946214945,18147.2,1.6141258961687211207075946214945
214,18319.6150691139742682719323747719890,18318.0,1.6150691139742682719323747719890
215,18491.2160079332747131418266802601773,18489.6,1.6160079332747131418266802601773
216,18663.6169423949169706333877972596863,18662.0,1.6169423949169706333877972596863
217,18836.8178725391815926442558821251431,18835.2,1.6178725391815926442558821251431
218,19010.8187984057931926750213544752569,19009.2,1.6187984057931926750213544752569
219,19185.6197200339306293335821143821385,19184.0,1.6197200339306293335821143821385
220,19361.2206374622369612436718757945836,19359.6,1.6206374622369612436718757945836
221,19537.6215507288291712598427919267079,19536.0,1.6215507288291712598427919267079
222,19714.8224598713076771862611850012761,19713.2,1.6224598713076771862611850012761
223,19892.8233649267656225601406735691557,19891.2,1.6233649267656225601406735691557
224,20071.6242659317979625591040061272690,20070.0,1.6242659317979625591040061272690
225,20251.2251629225103475890091571638620,20249.6,1.6251629225103475890091571638620
226,20431.6260559345278080901733458873448,20430.0,1.6260559345278080901733458873448
227,20612.8269450030032492048343033109325,20611.2,1.6269450030032492048343033109325
228,20794.8278301626257571160409223171143,20793.2,1.6278301626257571160409223171143
229,20977.6287114476287242101093432057814,20976.0,1.6287114476287242101093432057814
230,21161.2295888917977977488735685199476,21159.6,1.6295888917977977488735685199476
231,21345.6304625284786538409857603205336,21344.0,1.6304625284786538409857603205336
232,21530.8313323905846071211716093247669,21529.2,1.6313323905846071211716093247669
233,21716.8321985106040511229296743548216,21715.2,1.6321985106040511229296743548216
234,21903.6330609206077454907248988375845,21902.0,1.6330609206077454907248988375845
235,22091.2339196522559432027604824477975,22089.6,1.6339196522559432027604824477975
236,22279.6347747368053675030804008867555,22278.0,1.6347747368053675030804008867555
237,22468.8356262051160421631134103931482,22467.2,1.6356262051160421631134103931482
238,22658.8364740876579768036528269898257,22657.2,1.6364740876579768036528269898257
