Eigenstate,Energy,Kinetic Energy,Potential Energy
1,0.500000000155639778026498467256542205,0.0,0.500000000155639778026498467256542205
2,1.84623093866705520489889382032821045,1.2,0.64623093866705520489889382032821045
3,3.93633761268924279496802391964479781,3.2,0.73633761268924279496802391964479781
4,6.79966528403019422838700667711996128,6.0,0.79966528403019422838700667711996128
5,10.4480465860531421154607788792049697,9.6,0.8480465860531421154607788792049697
6,14.8870660135322198928739246469623802,14.0,0.8870660135322198928739246469623802
7,20.1197208479148046762267990822570199,19.2,0.9197208479148046762267990822570199
8,26.1477838755827872361719383624185138,25.2,0.9477838755827872361719383624185138
9,32.9723835955454220276752330190724368,32.0,0.9723835955454220276752330190724368
10,40.5942802619532668721952942971184654,39.6,0.9942802619532668721952942971184654
11,49.0140094449488190194319919583971149,48.0,1.0140094449488190194319919583971149
12,58.2319622398378745527848751244891431,57.2,1.0319622398378745527848751244891431
13,68.2484327766872442053688699205639300,67.2,1.0484327766872442053688699205639300
14,79.0636477531809862774649485754841431,78.0,1.0636477531809862774649485754841431
15,90.6777855504346346060788570410875423,89.6,1.0777855504346346060788570410875423
16,103.090989037865670778122869945500384,102.0,1.090989037865670778122869945500384
17,116.303374406655046242312276275947873,115.2,1.103374406655046242312276275947873
18,130.315037420753393798828408949480533,129.2,1.115037420753393798828408949480533
19,145.126057939985013587152299166629491,144.0,1.126057939985013587152299166629491
20,160.736503257681815497084766740080451,159.6,1.136503257681815497084766740080451
21,177.146430606765020695647399353806672,176.0,1.146430606765020695647399353806672
22,194.355889070903904991828801401333496,193.2,1.155889070903904991828801401333496
23,212.364921062452325938049831514050944,211.2,1.164921062452325938049831514050944
24,231.173563479849146874075158366404173,230.0,1.173563479849146874075158366404173
25,250.781848624414164795730121173995141,249.6,1.181848624414164795730121173995141
26,271.189804934155699282556602987574295,270.0,1.189804934155699282556602987574295
27,292.397457576733169286684135814321452,291.2,1.197457576733169286684135814321452
28,314.404828932816133755183518134884864,313.2,1.204828932816133755183518134884864
29,337.211938993286244222206863547359887,336.0,1.211938993286244222206863547359887
30,360.818805688079069927757812823084982,359.6,1.218805688079069927757812823084982
31,385.225445160316817512615071022824277,384.0,1.225445160316817512615071022824277
32,410.431871996305067748982517609319954,409.2,1.231871996305067748982517609319954
33,436.438099419657003958498694233122599,435.2,1.238099419657003958498694233122599
34,463.244139456058060500276893678337461,462.0,1.244139456058060500276893678337461
35,490.850003073844724643864892978209127,489.6,1.250003073844724643864892978209127
36,519.255700304537746261904749432762247,518.0,1.255700304537746261904749432762247
37,548.461240346665925227579233272362057,547.2,1.261240346665925227579233272362057
38,578.466631655586227657892350988965537,577.2,1.266631655586227657892350988965537
39,609.271882021508133493622941348193325,608.0,1.271882021508133493622941348193325
40,640.876998637534297122709248870876762,639.6,1.276998637534297122709248870876762
41,673.281988159212852479682427000664054,672.0,1.281988159212852479682427000664054
42,706.486856756841701451931939794781292,705.2,1.286856756841701451931939794781292
43,740.491610161558638078408438465037379,739.2,1.291610161558638078408438465037379
44,775.296253706083067010657288567306695,774.0,1.296253706083067010657288567306695
45,810.900792360837505136912633513212299,809.6,1.300792360837505136912633513212299
46,847.305230766063918987254340655248157,846.0,1.305230766063918987254340655248157
47,884.509573260456473925389935501863945,883.2,1.309573260456473925389935501863945
48,922.513823906754684768287739431930510,921.2,1.313823906754684768287739431930510
49,961.317986514676294930918414487543114,960.0,1.317986514676294930918414487543114
50,1000.92206466151508847964962743729351,999.6,1.32206466151508847964962743729351
51,1041.32606171068337251531745774097841,1040.0,1.32606171068337251531745774097841
52,1082.52998082844052209265773928639680,1081.2,1.32998082844052209265773928639680
53,1124.53382499901652976420099088427354,1123.2,1.33382499901652976420099088427354
54,1167.33759703831194070525034569989965,1166.0,1.33759703831194070525034569989965
55,1210.94129960633207888402627699199142,1209.6,1.34129960633207888402627699199142
56,1255.34493521849339517091706238917298,1254.0,1.34493521849339517091706238917298
57,1300.54850625592256931563799957215611,1299.2,1.34850625592256931563799957215611
58,1346.55201497485420053479815836038160,1345.2,1.35201497485420053479815836038160
59,1393.35546351522016750508527686164835,1392.0,1.35546351522016750508527686164835
60,1440.95885390851271404956814357618334,1439.6,1.35885390851271404956814357618334
61,1489.36218808499375257710220599506016,1488.0,1.36218808499375257710220599506016
62,1538.56546788031457632970393239996472,1537.2,1.36546788031457632970393239996472
63,1588.56869504160292960373232270863647,1587.2,1.36869504160292960373232270863647
64,1639.37187123306807263078893292751154,1638.0,1.37187123306807263078893292751154
65,1690.97499804116894296427114719818126,1689.6,1.37499804116894296427114719818126
66,1743.37807697938566787845480051975665,1742.0,1.37807697938566787845480051975665
67,1796.58110949263041999565401913087349,1795.2,1.38110949263041999565401913087349
68,1850.58409696132985219619488964843644,1849.2,1.38409696132985219619488964843644
69,1905.38704070520803519521091320728285,1904.0,1.38704070520803519521091320728285
70,1960.98994198679589290200144543377686,1959.6,1.38994198679589290200144543377686
71,2017.39280201469053197396359453762062,2016.0,1.39280201469053197396359453762062
72,2074.59562194658556373472495171590268,2073.2,1.39562194658556373472495171590268
73,2132.59840289209146361970218807626524,2131.2,1.39840289209146361970218807626524
74,2191.40114591536319446375547213294474,2190.0,1.40114591536319446375547213294474
75,2251.00385203755068884450679770277999,2249.6,1.40385203755068884450679770277999
76,2311.40652223908633613813285779549662,2310.0,1.40652223908633613813285779549662
77,2372.60915746182231754602681456172320,2371.2,1.40915746182231754602681456172320
78,2434.61175861102946655254195561024356,2433.2,1.41175861102946655254195561024356
79,2497.41432655726828545403857692160458,2496.0,1.41432655726828545403857692160458
80,2561.01686213814181047381068434704810,2559.6,1.41686213814181047381068434704810
81,2625.41936615993916863599392792930095,2624.0,1.41936615993916863599392792930095
82,2690.62183939917790812100175399540929,2689.2,1.42183939917790812100175399540929
83,2756.62428260405249509124891921938227,2755.2,1.42428260405249509124891921938227
84,2823.42669649579574568420493033771697,2822.0,1.42669649579574568420493033771697
85,2891.02908176995940259364782550621604,2889.6,1.42908176995940259364782550621604
86,2959.43143909761954979459924874275158,2958.0,1.43143909761954979459924874275158
87,3028.63376912651210149662385879810409,3027.2,1.43376912651210149662385879810409
88,3098.63607248210317803244009486790857,3097.2,1.43607248210317803244009486790857
89,3169.43834976859879788662952664058663,3168.0,1.43834976859879788662952664058663
90,3241.04060156989797185250325006522002,3239.6,1.44060156989797185250325006522002
91,3313.44282845049296385313484974702638,3312.0,1.44282845049296385313484974702638
92,3386.64503095632019466503016056231487,3385.2,1.44503095632019466503016056231487
93,3460.64720961556500252785095058691708,3459.2,1.44720961556500252785095058691708
94,3535.44936493942323169487161497692079,3534.0,1.44936493942323169487161497692079
95,3611.05149742282239882482079966968663,3609.6,1.45149742282239882482079966968663
96,3687.45360754510498529364412186032800,3686.0,1.45360754510498529364412186032800
97,3764.65569577067621916261688373037323,3763.2,1.45569577067621916261688373037323
98,3842.65776254961853766494049404683938,3841.2,1.45776254961853766494049404683938
99,3921.45980831827476760077093159192542,3920.0,1.45980831827476760077093159192542
100,4001.06183349980191469021041408909715,3999.6,1.46183349980191469021041408909715
101,4081.46383850469732362964242421434431,4080.0,1.46383850469732362964242421434431
102,4162.66582373129884502206923757157119,4161.2,1.46582373129884502206923757157119
103,4244.66778956626053743850049600140662,4243.2,1.46778956626053743850049600140662
104,4327.46973638500532560273250987287626,4326.0,1.46973638500532560273250987287626
105,4411.07166455215594261810186443589941,4409.6,1.47166455215594261810186443589941
106,4495.47357442194539339055580795129251,4494.0,1.47357442194539339055580795129251
107,4580.67546633860809832042733729943293,4579.2,1.47546633860809832042733729943293
108,4666.67734063675279709575058603204682,4665.2,1.47734063675279709575058603204682
109,4753.47919764171822382641985113887155,4752.0,1.47919764171822382641985113887155
110,4841.08103766991250233837159876610843,4839.6,1.48103766991250233837159876610843
111,4929.48286102913714458577250709265564,4928.0,1.48286102913714458577250709265564
112,5018.68466801889648570556546128470133,5017.2,1.48466801889648570556546128470133
113,5108.68645893069333370293181914344883,5107.2,1.48645893069333370293181914344883
114,5199.48823404831156299847513440289320,5198.0,1.48823404831156299847513440289320
115,5291.08999364808634061943033305623843,5289.6,1.48999364808634061943033305623843
116,5383.49173799916262548555603412815089,5382.0,1.49173799916262548555603412815089
117,5476.69346736374254952736298354263592,5475.2,1.49346736374254952736298354263592
118,5570.69518199732224834322821618331986,5569.2,1.49518199732224834322821618331986
119,5665.49688214891867538822999890478639,5664.0,1.49688214891867538822999890478639
120,5761.09856806128690784530624816972015,5759.6,1.49856806128690784530624816972015
121,5857.50023997112841406209665869268631,5856.0,1.50023997112841406209665869268631
122,5954.70189810929073352369809178242704,5953.2,1.50189810929073352369809178242704
123,6052.70354270095898813863355643668637,6051.2,1.50354270095898813863355643668637
124,6151.50517396583962593552785567568332,6150.0,1.50517396583962593552785567568332
125,6251.10679211833676870172349639655070,6249.6,1.50679211833676870172349639655070
126,6351.50839736772151989777381547807219,6350.0,1.50839736772151989777381547807219
127,6452.70998991829456860386728978995033,6451.2,1.50998991829456860386728978995033
128,6554.71156996954240266704940423590420,6553.2,1.51156996954240266704940423590420
129,6657.51313771628743214487244275341591,6656.0,1.51313771628743214487244275341591
130,6761.11469334883230575923893138521193,6759.6,1.51469334883230575923893138521193
131,6865.51623705309868767008976966741809,6864.0,1.51623705309868767008976966741809
132,6970.71776901076074690138936636036056,6969.2,1.51776901076074690138936636036056
133,7076.71928939937359997027754175743781,7075.2,1.51928939937359997027754175743781
134,7183.52079839249693599430499190577714,7182.0,1.52079839249693599430499190577714
135,7291.12229615981403544332659726029869,7289.6,1.52229615981403544332659726029869
136,7399.52378286724639001509986817779920,7398.0,1.52378286724639001509986817779920
137,7508.72525867706411780569658927473700,7507.2,1.52525867706411780569658927473700
138,7618.72672374799235433384679408489037,7617.2,1.52672374799235433384679408489037
139,7729.52817823531379787243155775772099,7728.0,1.52817823531379787243155775772099
140,7841.12962229096757209437693798141796,7839.6,1.52962229096757209437693798141796
141,7953.53105606364456448271308411680151,7952.0,1.53105606364456448271308411680151
142,8066.73247969887939088130040126751307,8065.2,1.53247969887939088130040126751307
143,8180.73389333913912791255714839412154,8179.2,1.53389333913912791255714839412154
144,8295.53529712390894780889026403129110,8294.0,1.53529712390894780889026403129110
145,8411.13669118977478601677412494193800,8409.6,1.53669118977478601677412494193800
146,8527.53807567050316406367667905977135,8526.0,1.53807567050316406367667905977135
147,8644.73945069711828197506766806141301,8643.2,1.53945069711828197506766806141301
148,8762.74081639797649557071502827108395,8761.2,1.54081639797649557071502827108395
149,8881.54217289883828044140531976275567,8880.0,1.54217289883828044140531976275567
150,9001.14352032293778624714892771527846,8999.6,1.54352032293778624714892771527846
151,9121.54485879105007725131356092208935,9120.0,1.54485879105007725131356092208935
152,9242.74618842155614939004560480455891,9241.2,1.54618842155614939004560480455891
153,9364.74750933050581282686893312980003,9363.2,1.54750933050581282686893312980003
154,9487.54882163167852389190060382870400,9486.0,1.54882163167852389190060382870400
155,9611.15012543664224464187918652196889,9609.6,1.55012543664224464187918652196889
156,9735.55142085481040790757455437342837,9734.0,1.55142085481040790757455437342837
157,9860.75270799349705887539164894969916,9859.2,1.55270799349705887539164894969916
158,9986.75398695797024502148471681833921,9985.2,1.55398695797024502148471681833921
159,10113.5552578515037180714315220938074,10112.0,1.5552578515037180714315220938074
160,10241.1565207754270143232302874527320,10239.6,1.5565207754270143232302874527320
161,10369.5577758291739718299641746572458,10368.0,1.5577758291739718299641746572458
162,10498.7590231103297439034653981921481,10497.2,1.5590231103297439034653981921481
163,10628.7602627146763637925127337141395,10627.2,1.5602627146763637925127337141395
164,10759.5614947362369151723976992651392,10758.0,1.5614947362369151723976992651392
165,10891.1627192673183570463220784453873,10889.6,1.5627192673183570463220784453873
166,11023.5639363985530535744651058565013,11022.0,1.5639363985530535744651058565013
167,11156.7651462189390560632949949515998,11155.2,1.5651462189390560632949949515998
168,11290.7663488158791798042996656954638,11289.2,1.5663488158791798042996656954638
169,11425.5675442752189208244920206076530,11424.0,1.5675442752189208244920206076530
170,11561.1687326812832522920788831899041,11559.6,1.5687326812832522920788831899041
171,11697.5699141169123407720298909729135,11696.0,1.5699141169123407720298909729135
172,11834.7710886634962201984887387050132,11833.2,1.5710886634962201984887387050132
173,11972.7722564010084589666453617089476,11971.2,1.5722564010084589666453617089476
174,12111.5734174080388559878794599488847,12110.0,1.5734174080388559878794599488847
175,12251.1745717618251996934084509824484,12249.6,1.5745717618251996934084509824484
176,12391.5757195382841196931009100295823,12390.0,1.5757195382841196931009100295823
177,12532.7768608120410643503064437551746,12531.2,1.5768608120410643503064437551746
178,12674.7779956564594334274189262949103,12673.2,1.5779956564594334274189262949103
179,12817.5791241436688922474462920089548,12816.0,1.5791241436688922474462920089548
180,12961.1802463445928983183195203852461,12959.6,1.5802463445928983183195203852461
181,13105.5813623289754630688682548985593,13104.0,1.5813623289754630688682548985593
182,13250.7824721654071763921960388708312,13249.2,1.5824721654071763921960388708312
183,13396.7835759213505170460856033602582,13395.2,1.5835759213505170460856033602582
184,13543.5846736631644731523313761135017,13542.0,1.5846736631644731523313761135017
185,13691.1857654561284946034959216759139,13689.6,1.5857654561284946034959216759139
186,13839.5868513644657983460831727842035,13838.0,1.5868513644657983460831727842035
187,13988.7879314513660503410164428966719,13987.2,1.5879314513660503410164428966719
188,14138.7890057790074396381267994720276,14137.2,1.5890057790074396381267994720276
189,14289.5900744085781682961426026823535,14288.0,1.5900744085781682961426026823535
190,14441.1911374002973727996650521879040,14439.6,1.5911374002973727996650521879040
191,14593.5921948134354961960980683121172,14592.0,1.5921948134354961960980683121172
192,14746.7932467063341273351588130784420,14745.2,1.5932467063341273351588130784420
193,14900.7942931364253255152497304926736,14899.2,1.5942931364253255152497304926736
194,15055.5953341602504438779154642375186,15054.0,1.5953341602504438779154642375186
195,15211.1963698334784694831941473342559,15209.6,1.5963698334784694831941473342559
196,15367.5974002109238937582210975560469,15366.0,1.5974002109238937582210975560469
197,15524.7984253465641276948756855057436,15523.2,1.5984253465641276948756855057436
198,15682.7994452935564759589275670590025,15681.2,1.5994452935564759589275670590025
199,15841.6004601042546827450263068368349,15840.0,1.6004601042546827450263068368349
200,16001.2014698302250633182309611310149,15999.6,1.6014698302250633182309611310149
201,16161.6024745222622322190066101215999,16160.0,1.6024745222622322190066101215999
202,16322.8034742304044415083611124990769,16321.2,1.6034742304044415083611124990769
203,16484.8044690039485397083702493127074,16483.2,1.6044690039485397083702493127074
204,16647.6054588914645630535387007320016,16646.0,1.6054588914645630535387007320016
205,16811.2064439408099690189000307657781,16809.6,1.6064439408099690189000307657781
206,16975.6074241991435251441605043062452,16974.0,1.6074241991435251441605043062452
207,17140.8083997129388590251295775614743,17139.2,1.6083997129388590251295775614743
208,17306.8093705279976836944725151913672,17305.2,1.6093705279976836944725151913672
209,17473.6103366894627041352578609417510,17472.0,1.6103366894627041352578609417510
210,17641.2112982418302164235547077474758,17639.6,1.6112982418302164235547077474758
211,17809.6122552289624068597072071297319,17808.0,1.6122552289624068597072071297319
212,17978.8132076940993613160932246414918,17977.2,1.6132076940993613160932246414918
213,18148.8141556798707891799547550670908,18147.2,1.6141556798707891799547550670908
214,18319.6150992283074768676946303170007,18318.0,1.6150992283074768676946303170007
215,18491.2160383808524701175945492344889,18489.6,1.6160383808524701175945492344889
216,18663.6169731783719990161476749670009,18662.0,1.6169731783719990161476749670009
217,18836.8179036611661497177990922378614,18835.2,1.6179036611661497177990922378614
218,19010.8188298689792918313127580742357,19009.2,1.6188298689792918313127580742357
219,19185.6197518410102647464858104492284,19184.0,1.6197518410102647464858104492284
220,19361.2206696159223354101363861129761,19359.6,1.6206696159223354101363861129761
221,19537.6215832318529254544739781662316,19536.0,1.6215832318529254544739781662316
222,19714.8224927264231248760528683871166,19713.2,1.6224927264231248760528683871166
223,19892.8233981367469858269913548190767,19891.2,1.6233981367469858269913548190767
224,20071.6242994994406115786269647014166,20070.0,1.6242994994406115786269647014166
225,20251.2251968506310432150394928021881,20249.6,1.6251968506310432150394928021881
226,20431.6260902259649475952920948419783,20430.0,1.6260902259649475952920948419783
227,20612.8269796606171152281636187601023,20611.2,1.6269796606171152281636187601023
228,20794.8278651892987698705220742890904,20793.2,1.6278651892987698705220742890904
229,20977.6287468462656970024504270271864,20976.0,1.6287468462656970024504270271864
230,21161.2296246653261958663513518744464,21159.6,1.6296246653261958663513518744464
231,21345.6304986798488568603056548760608,21344.0,1.6304986798488568603056548760608
232,21530.8313689227701746956313772803395,21529.2,1.6313689227701746956313772803395
233,21716.8322354266019923051950519769296,21715.2,1.6322354266019923051950519769296
234,21903.6330982234387916496154119904212,21902.0,1.6330982234387916496154119904212
235,22091.2339573449648245935521950645219,22089.6,1.6339573449648245935521950645219
236,22279.6348128224610935519693240053867,22278.0,1.6348128224610935519693240053867
237,22468.8356646868121855276446126131299,22467.2,1.6356646868121855276446126131299
238,22658.8365129685129612721057768419627,22657.2,1.6365129685129612721057768419627
