Eigenstate,Energy,Kinetic Energy,Potential Energy
1,0.500000000192686271404542770313212281,0.0,0.500000000192686271404542770313212281
2,1.84623093890887849715410924544986920,1.2,0.64623093890887849715410924544986920
3,3.93633761339959329560982980060263771,3.2,0.73633761339959329560982980060263771
4,6.79966528550981342566541365433476617,6.0,0.79966528550981342566541365433476617
5,10.4480465886162341172900473164821316,9.6,0.8480465886162341172900473164821316
6,14.8870660174985440396992996746721639,14.0,0.8870660174985440396992996746721639
7,20.1197208536067708844287052159377774,19.2,0.9197208536067708844287052159377774
8,26.1477838833242528149618794382777257,25.2,0.9477838833242528149618794382777257
9,32.9723836056611397163396861612265916,32.0,0.9723836056611397163396861612265916
10,40.5942802747686116274967307332601663,39.6,0.9942802747686116274967307332601663
11,49.0140094607896460381862406340664113,48.0,1.0140094607896460381862406340664113
12,58.2319622590304441823243048840628520,57.2,1.0319622590304441823243048840628520
13,68.2484327995581832806254937147313962,67.2,1.0484327995581832806254937147313962
14,79.0636477800572704344307472350326446,78.0,1.0636477800572704344307472350326446
15,90.6777855816435832629151929398887113,89.6,1.0777855816435832629151929398887113
16,103.090989073734950086650757331627553,102.0,1.090989073734950086650757331627553
17,116.303374447512677237497426652364459,115.2,1.103374447512677237497426652364459
18,130.315037466927764047693424146372018,129.2,1.115037466927764047693424146372018
19,145.126057991804891261952442613541654,144.0,1.126057991804891261952442613541654
20,160.736503315476365172426944992959081,159.6,1.136503315476365172426944992959081
21,177.146430670863820401739469505809781,176.0,1.146430670863820401739469505809781
22,194.355889141636964204321556964599339,193.2,1.155889141636964204321556964599339
23,212.364921140150104281873553246768080,211.2,1.164921140150104281873553246768080
24,231.173563564842573383486513195206654,230.0,1.173563564842573383486513195206654
25,250.781848717034657617008803798089072,249.6,1.181848717034657617008803798089072
26,271.189805034735185736528158658792811,270.0,1.189805034735185736528158658792811
27,292.397457685604106229972535789903426,291.2,1.197457685604106229972535789903426
28,314.404829050311528194695057295609307,313.2,1.204829050311528194695057295609307
29,337.211939119739674148705700530518779,336.0,1.211939119739674148705700530518779
30,360.818805823824705342775026506761653,359.6,1.218805823824705342775026506761653
31,385.225445305689441629194083554506238,384.0,1.225445305689441629194083554506238
32,410.431872151640098351494291519140934,409.2,1.231872151640098351494291519140934
33,436.438099585290514910372918164589241,435.2,1.238099585290514910372918164589241
34,463.244139632326803391282358713800015,462.0,1.244139632326803391282358713800015
35,490.850003261086150570742801076916980,489.6,1.250003261086150570742801076916980
36,519.255700503090027737864454082795755,518.0,1.255700503090027737864454082795755
37,548.461240556867978217518207565018536,547.2,1.261240556867978217518207565018536
38,578.466631877777733737282998868212848,577.2,1.266631877777733737282998868212848
39,609.271882256029562129879921518771895,608.0,1.271882256029562129879921518771895
40,640.876998884726928078558489365740822,639.6,1.276998884726928078558489365740822
41,673.281988419418798338632009421014152,672.0,1.281988419418798338632009421014152
42,706.486857030403930266422769472075419,705.2,1.286857030403930266422769472075419
43,740.491610448820996141619663074531330,739.2,1.291610448820996141619663074531330
44,775.296254007390301753273988363158511,774.0,1.296254007390301753273988363158511
45,810.900792676535288150444148514809152,809.6,1.300792676535288150444148514809152
46,847.305231096498869175730569142111284,846.0,1.305231096498869175730569142111284
47,884.509573605976180787467929886039466,883.2,1.309573605976180787467929886039466
48,922.513824267707731811978321626213001,921.2,1.313824267707731811978321626213001
49,961.317986891412283223297299912897905,960.0,1.317986891412283223297299912897905
50,1000.92206505438466033405369738760983,999.6,1.32206505438466033405369738760983
51,1041.32606212003823531864781133474775,1040.0,1.32606212003823531864781133474775
52,1082.52998125463347227551948720162732,1081.2,1.32998125463347227551948720162732
53,1124.53382544240147691670769758887733,1123.2,1.33382544240147691670769758887733
54,1167.33759749924393184141038532308721,1166.0,1.33759749924393184141038532308721
55,1210.94130008516732285771057806200663,1209.6,1.34130008516732285771057806200663
56,1255.34493571558928724648413413409766,1254.0,1.34493571558928724648413413409766
57,1300.54850677163771589636349388724711,1299.2,1.34850677163771589636349388724711
58,1346.55201550954844405232382185334559,1345.2,1.35201550954844405232382185334559
59,1393.35546406925461147316621612256803,1392.0,1.35546406925461147316621612256803
60,1440.95885448224974828545885828428244,1439.6,1.35885448224974828545885828428244
61,1489.36218867879707859398116179860018,1488.0,1.36218867879707859398116179860018
62,1538.56546849454923290359401964147357,1537.2,1.36546849454923290359401964147357
63,1588.56869567663531851843076020449492,1587.2,1.36869567663531851843076020449492
64,1639.37187188926598460437522526852200,1638.0,1.37187188926598460437522526852200
65,1690.97499871890158376081620698839545,1689.6,1.37499871890158376081620698839545
66,1743.37807767902368460860812411895834,1742.0,1.37807767902368460860812411895834
67,1796.58111021454592760983921168584099,1795.2,1.38111021454592760983921168584099
68,1850.58409770589646017419719961829177,1849.2,1.38409770589646017419719961829177
69,1905.38704147280087443599391039733721,1904.0,1.38704147280087443599391039733721
70,1960.98994277779164281764305748451422,1959.6,1.38994277779164281764305748451422
71,2017.39280282946744779165581665956288,2016.0,1.39280282946744779165581665956288
72,2074.59562278552350401083524676559690,2073.2,1.39562278552350401083524676559690
73,2132.59840375557191796994946919378430,2131.2,1.39840375557191796994946919378430
74,2191.40114680376931151360838082890246,2190.0,1.40114680376931151360838082890246
75,2251.00385295126730440396769515208541,2249.6,1.40385295126730440396769515208541
76,2311.40652317850000160512736524953024,2310.0,1.40652317850000160512736524953024
77,2372.60915842732132854267599860248601,2371.2,1.40915842732132854267599860248601
78,2434.61175960300389179865192423480593,2433.2,1.41175960300389179865192423480593
79,2497.41432757610999588220153745764107,2496.0,1.41432757610999588220153745764107
80,2561.01686318424450859057070423235993,2559.6,1.41686318424450859057070423235993
81,2625.41936723369841813359191941948523,2624.0,1.41936723369841813359191941948523
82,2690.62184050099116374427571097571611,2689.2,1.42184050099116374427571097571611
83,2756.62428373431913276432824601621060,2755.2,1.42428373431913276432824601621060
84,2823.42669765491709290170177614853652,2822.0,1.42669765491709290170177614853652
85,2891.02908295833876908111339845411069,2889.6,1.42908295833876908111339845411069
86,2959.43144031566225844307917336396912,2958.0,1.43144031566225844307917336396912
87,3028.63377037462551957621455588428423,3027.2,1.43377037462551957621455588428423
88,3098.63607376069674868981658259501395,3097.2,1.43607376069674868981658259501395
89,3169.43835107808407193158529951302827,3168.0,1.43835107808407193158529951302827
90,3241.04060291068863983861413058421794,3239.6,1.44060291068863983861413058421794
91,3313.44282982300488845773186269823596,3312.0,1.44282982300488845773186269823596
92,3386.64503236097144337374026594562183,3385.2,1.44503236097144337374026594562183
93,3460.64721105277588062904035156974805,3459.2,1.44721105277588062904035156974805
94,3535.44936640961631558940343953447130,3534.0,1.44936640961631558940343953447130
95,3611.05149892642256965661761161220755,3609.6,1.45149892642256965661761161220755
96,3687.45360908253946290662583119593763,3686.0,1.45360908253946290662583119593763
97,3764.65569734237459638966641954639881,3763.2,1.45569734237459638966641954639881
98,3842.65776415601281495463309727188134,3841.2,1.45776415601281495463309727188134
99,3921.45980995979938798768787161097761,3920.0,1.45980995979938798768787161097761
100,4001.06183517689379911474466811702322,3999.6,1.46183517689379911474466811702322
101,4081.46384021779590661329251121035109,4080.0,1.46384021779590661329251121035109
102,4162.66582548084611070430753871256632,4161.2,1.46582548084611070430753871256632
103,4244.66779135270105598139410927163602,4243.2,1.46779135270105598139410927163602
104,4327.46973820878628996958953936800057,4326.0,1.46973820878628996958953936800057
105,4411.07166641372720573251073321099221,4409.6,1.47166641372720573251073321099221
106,4495.47357632175950568228356707501989,4494.0,1.47357632175950568228356707501989
107,4580.67546827712034566474273998407238,4579.2,1.47546827712034566474273998407238
108,4666.67734261442123915283867259682526,4665.2,1.47734261442123915283867259682526
109,4753.47919965900373278765951659387308,4752.0,1.47919965900373278765951659387308
110,4841.08103972727880208635268349346973,4839.6,1.48103972727880208635268349346973
111,4929.48286312705085027503745094972186,4928.0,1.48286312705085027503745094972186
112,5018.68467015782714377117042706831035,5017.2,1.48467015782714377117042706831035
113,5108.68646111111346230403490609129204,5107.2,1.48646111111346230403490609129204
114,5199.48823627069669290427377557804317,5198.0,1.48823627069669290427377557804317
115,5291.08999591291505654488717280722040,5289.6,1.48999591291505654488717280722040
116,5383.49174030691660788447194495320085,5382.0,1.49174030691660788447194495320085
117,5476.69346971490661685047763370526365,5475.2,1.49346971490661685047763370526365
118,5570.69518439238439976915328432505290,5569.2,1.49518439238439976915328432505290
119,5665.49688458837013403514659555633974,5664.0,1.49688458837013403514659555633974
120,5761.09857054562216447148781055119894,5759.6,1.49857054562216447148781055119894
121,5857.50024250084527126345073734221478,5856.0,1.50024250084527126345073734221478
122,5954.70190068489035043665516492846961,5953.2,1.50190068489035043665516492846961
123,6052.70354532294592565684872485456588,6051.2,1.50354532294592565684872485456588
124,6151.50517663472189244900137120156025,6150.0,1.50517663472189244900137120156025
125,6251.10679483462586636708987654201699,6249.6,1.50679483462586636708987654201699
126,6351.50840013193249144865532966114269,6350.0,1.50840013193249144865532966114269
127,6452.70999273094604471033667363032060,6451.2,1.50999273094604471033667363032060
128,6554.71157283115664985339937296906730,6553.2,1.51157283115664985339937296906730
129,6657.51314062739040127504458282864417,6656.0,1.51314062739040127504458282864417
130,6761.11469630995368109942398012132574,6759.6,1.51469630995368109942398012132574
131,6865.51624006477193653817251924906685,6864.0,1.51624006477193653817251924906685
132,6970.71777207352316991307741653685312,6969.2,1.51777207352316991307741653685312
133,7076.71929251376638189192149937423750,7075.2,1.51929251376638189192149937423750
134,7183.52080155906519721259019567404549,7182.0,1.52080155906519721259019567404549
135,7291.12229937910688406219254625472781,7289.6,1.52229937910688406219254625472781
136,7399.52378613981697459042241492490680,7398.0,1.52378613981697459042241492490680
137,7508.72526200346968072845244624541829,7507.2,1.52526200346968072845244624541829
138,7618.72672712879428587266571330742077,7617.2,1.52672712879428587266571330742077
139,7729.52818167107769088663365899145735,7728.0,1.52818167107769088663365899145735
140,7841.12962578226327742878748604340697,7839.6,1.52962578226327742878748604340697
141,7953.53105961104624705574584904480597,7952.0,1.53105961104624705574584904480597
142,8066.73248330296558647800435049321868,8065.2,1.53248330296558647800435049321868
143,8180.73389700049280069452951689365787,8179.2,1.53389700049280069452951689365787
144,8295.53530084311754855316984941543408,8294.0,1.53530084311754855316984941543408
145,8411.13669496743031109604657054968162,8409.6,1.53669496743031109604657054968162
146,8527.53807950720221518034358504309200,8526.0,1.53807950720221518034358504309200
147,8644.73945459346212666195823910570192,8643.2,1.53945459346212666195823910570192
148,8762.74082035457112847144859823976416,8761.2,1.54082035457112847144859823976416
149,8881.54217691629448538364975936447316,8880.0,1.54217691629448538364975936447316
150,9001.14352440187119912225936569283991,8999.6,1.54352440187119912225936569283991
151,9121.54486293208124971408308486546220,9120.0,1.54486293208124971408308486546220
152,9242.74619262531061339254929332178929,9241.2,1.54619262531061339254929332178929
153,9364.74751359761414600063980172425773,9363.2,1.54751359761414600063980172425773
154,9487.54882596277641579293812711407400,9486.0,1.54882596277641579293812711407400
155,9611.15012983237056387325811128526192,9609.6,1.55012983237056387325811128526192
156,9735.55142531581527013469546875792616,9734.0,1.55142531581527013469546875792616
157,9860.75271252042989574919435380977751,9859.2,1.55271252042989574919435380977751
158,9986.75399155148787402523021773228348,9985.2,1.55399155148787402523021773228348
159,10113.5552625122684133069508556059054,10112.0,1.5552625122684133069508556059054
160,10241.1565255041065782528358891861186,10239.6,1.5565255041065782528358891861186
161,10369.5577806264418079905238515993062,10368.0,1.5577806264418079905238515993062
162,10498.7590279768649306094508939873839,10497.2,1.5590279768649306094508939873839
163,10628.7602676511637288451514691353216,10627.2,1.5602676511637288451514691353216
164,10759.5614997433671115923829227823314,10758.0,1.5614997433671115923829227823314
165,10891.1627243457879398478677279468913,10889.6,1.5627243457879398478677279468913
166,11023.5639415490645575988312571614857,11022.0,1.5639415490645575988312571614857
167,11156.7651514422010748902568586331006,11155.2,1.5651514422010748902568586331006
168,11290.7663541126064457603880396733571,11289.2,1.5663541126064457603880396733571
169,11425.5675496461323861071954206480367,11424.0,1.5675496461323861071954206480367
170,11561.1687381271101712295680035705829,11559.6,1.5687381271101712295680035705829
171,11697.5699196383863532383445520346513,11696.0,1.5699196383863532383445520346513
172,11834.7710942613574362045142433341354,11833.2,1.5710942613574362045142433341354
173,11972.7722620760035444476017750351743,11971.2,1.5722620760035444476017750351743
174,12111.5734231609211198084519245708490,12110.0,1.5734231609211198084519245708490
175,12251.1745775933546818920611825684800,12249.6,1.5745775933546818920611825684800
176,12391.5757254492276809875407777379134,12390.0,1.5757254492276809875407777379134
177,12532.7768668031724769264951227944449,12531.2,1.5768668031724769264951227944449
178,12674.7780017285594730349753874864338,12673.2,1.5780017285594730349753874864338
179,12817.5791302975254316247345745770650,12816.0,1.5791302975254316247345745770650
180,12961.1802525810010019709803950833777,12959.6,1.5802525810010019709803950833777
181,13105.5813686487374834260262785581891,13104.0,1.5813686487374834260262785581891
182,13250.7824785693328513650595166214987,13249.2,1.5824785693328513650595166214987
183,13396.7835824102570690141516000889942,13395.2,1.5835824102570690141516000889942
184,13543.5846802378767094029169093449976,13542.0,1.5846802378767094029169093449976
185,13691.1857721174789092508331003700245,13689.6,1.5857721174789092508331003700245
186,13839.5868581132946757567499633913835,13838.0,1.5868581132946757567499633913835
187,13988.7879382885215700930159337737988,13987.2,1.5879382885215700930159337737988
188,14138.7890127053457830414846836206257,14137.2,1.5890127053457830414846836206257
189,14289.5900814249636265034615315018925,14288.0,1.5900814249636265034615315018925
190,14441.1911445076024565356572116092859,14439.6,1.5911445076024565356572116092859
191,14593.5922020125410471357121316884656,14592.0,1.5922020125410471357121316884656
192,14746.7932539981294311605289768016467,14745.2,1.5932539981294311605289768016467
193,14900.7943005218082266823170388870850,14899.2,1.5943005218082266823170388870850
194,15055.5953416401274621242124571099147,15054.0,1.5953416401274621242124571099147
195,15211.1963774087649181089368126814663,15209.6,1.5963774087649181089368126814663
196,15367.5974078825439997135223896738992,15366.0,1.5974078825439997135223896738992
197,15524.7984331154511535065804537298457,15523.2,1.5984331154511535065804537298457
198,15682.7994531606528435312707434148235,15681.2,1.5994531606528435312707434148235
199,15841.6004680705120990690352324996905,15840.0,1.6004680705120990690352324996905
200,16001.2014778966046481255284456899345,15999.6,1.6014778966046481255284456899345
201,16161.6024826897346476164256097315099,16160.0,1.6024826897346476164256097315099
202,16322.8034824999500236305532443827205,16321.2,1.6034824999500236305532443827205
203,16484.8044773765574324263821257007572,16483.2,1.6044773765574324263821257007572
204,16647.6054673681368537781386729531297,16646.0,1.6054673681368537781386729531297
205,16811.2064525225558266382682311760833,16809.6,1.6064525225558266382682311760833
206,16975.6074328869833401364045755466764,16974.0,1.6074328869833401364045755466764
207,17140.8084085079033857869592006180012,17139.2,1.6084085079033857869592006180012
208,17306.8093794311281851282576390223914,17305.2,1.6093794311281851282576390223914
209,17473.6103457018110985376092268595403,17472.0,1.6103457018110985376092268595403
210,17641.2113073644592267195021014560025,17639.6,1.6113073644592267195021014560025
211,17809.6122644629457122275099880640092,17808.0,1.6122644629457122275099880640092
212,17978.8132170405217512487005443478957,17977.2,1.6132170405217512487005443478957
213,18148.8141651398283200301418856199479,18147.2,1.6141651398283200301418856199479
214,18319.6151088029076309249336039518698,18318.0,1.6151088029076309249336039518698
215,18491.2160480712143172657763004075827,18489.6,1.6160480712143172657763004075827
216,18663.6169829856263610223585790387748,18662.0,1.6169829856263610223585790387748
217,18836.8179135864557672034665099363786,18835.2,1.6179135864557672034665099363786
218,19010.8188399134589939781756838572186,19009.2,1.6188399134589939781756838572186
219,19185.6197620058471417910152434977367,19184.0,1.6197620058471417910152434977367
220,19361.2206799022959139812301281881079,19359.6,1.6206799022959139812301281881079
221,19537.6215936409553468104793809546867,19536.0,1.6215936409553468104793809546867
222,19714.8225032594593260984325628791478,19713.2,1.6225032594593260984325628791478
223,19892.8234087949348840292396497121456,19891.2,1.6234087949348840292396497121456
224,20071.6243102840112911903714912156799,20070.0,1.6243102840112911903714912156799
225,20251.2252077628289464026233312464456,20249.6,1.6252077628289464026233312464456
226,20431.6261012670480678815269118509777,20430.0,1.6261012670480678815269118509777
227,20612.8269908318571943753759238016149,20611.2,1.6269908318571943753759238016149
228,20794.8278764919814980924842227191081,20793.2,1.6278764919814980924842227191081
229,20977.6287582816909165722953296662956,20976.0,1.6287582816909165722953296662956
230,21161.2296362348081081891157169816724,21159.6,1.6296362348081081891157169816724
231,21345.6305103847162330803340580132282,21344.0,1.6305103847162330803340580132282
232,21530.8313807643665699107020658500213,21529.2,1.6313807643665699107020658500213
233,21716.8322474062859634609013811572420,21715.2,1.6322474062859634609013811572420
234,21903.6331103425841191892499239984477,21902.0,1.6331103425841191892499239984477
235,22091.2339696049607379405046291612090,22089.6,1.6339696049607379405046291612090
236,22279.6348252247125005034567650651178,22278.0,1.6348252247125005034567650651178
237,22468.8356772327399056404483610928298,22467.2,1.6356772327399056404483610928298
238,22658.8365256595539633228959225775934,22657.2,1.6365256595539633228959225775934
