Eigenstate,Energy,Kinetic Energy,Potential Energy
1,0.500000000852951846237915651078316490,0.0,0.500000000852951846237915651078316490
2,1.84623094321888367054924560147657514,1.2,0.64623094321888367054924560147657514
3,3.93633762606050417364225581480807118,3.2,0.73633762606050417364225581480807118
4,6.79966531188281011011263783079032750,6.0,0.79966531188281011011263783079032750
5,10.4480466343035575127710275514292198,9.6,0.8480466343035575127710275514292198
6,14.8870660882029523172515440842565857,14.0,0.8870660882029523172515440842565857
7,20.1197209550801585909326161570772582,19.2,0.9197209550801585909326161570772582
8,26.1477840213465957161096631619628467,25.2,0.9477840213465957161096631619628467
9,32.9723837860310472280839556110470187,32.0,0.9723837860310472280839556110470187
10,40.5942805032988485599589737596386404,39.6,0.9942805032988485599589737596386404
11,49.0140097433049946778611676303168843,48.0,1.0140097433049946778611676303168843
12,58.2319626013667600146320285097317231,57.2,1.0319626013667600146320285097317231
13,68.2484332075621016002992877436417906,67.2,1.0484332075621016002992877436417906
14,79.0636482595862886326539012650258821,78.0,1.0636482595862886326539012650258821
15,90.6777861385663708648744008773774546,89.6,1.0777861385663708648744008773774546
16,103.090989713931802982188141009570763,102.0,1.090989713931802982188141009570763
17,116.303375176876066856747435642739343,115.2,1.103375176876066856747435642739343
18,130.315038291362951374256350001850226,129.2,1.115038291362951374256350001850226
19,145.126058917230586689049593828095388,144.0,1.126058917230586689049593828095388
20,160.736504347825421890257709560007858,159.6,1.136504347825421890257709560007858
21,177.146431816083953150193463990039806,176.0,1.146431816083953150193463990039806
22,194.355890405691487869888825002698752,193.2,1.155890405691487869888825002698752
23,212.364922529018688547375389446317280,211.2,1.164922529018688547375389446317280
24,231.173565084522010796515218758086527,230.0,1.173565084522010796515218758086527
25,250.781850373539643233321772543767027,249.6,1.181850373539643233321772543767027
26,271.189806834099107044709667042061056,270.0,1.189806834099107044709667042061056
27,292.397459633879842453250290907659612,291.2,1.197459633879842453250290907659612
28,314.404831153572258346227716453020586,313.2,1.204831153572258346227716453020586
29,337.211941384079693421632397546390041,336.0,1.211941384079693421632397546390041
30,360.818808255360249568335122129395839,359.6,1.218808255360249568335122129395839
31,385.225447910559519650557414409969320,384.0,1.225447910559519650557414409969320
32,410.431874936007332248112147574004508,409.2,1.231874936007332248112147574004508
33,436.438102555341988075024715710332462,435.2,1.238102555341988075024715710332462
34,463.244142794274916514760572747419178,462.0,1.244142794274916514760572747419178
35,490.850006621169485631024072010811279,489.6,1.250006621169485631024072010811279
36,519.255704067574220124363691660031485,518.0,1.255704067574220124363691660031485
37,548.461244332046597148602764559780137,547.2,1.261244332046597148602764559780137
38,578.466635869973171152101320565608708,577.2,1.266635869973171152101320565608708
39,609.271886471593930254835141930323010,608.0,1.271886471593930254835141930323010
40,640.877003330042965885260239278230416,639.6,1.277003330042965885260239278230416
41,673.281993100900787124518416022274739,672.0,1.281993100900787124518416022274739
42,706.486861954498618601946871695042285,705.2,1.286861954498618601946871695042285
43,740.491615622008534439311802710333345,739.2,1.291615622008534439311802710333345
44,775.296259436185186724417663592868521,774.0,1.296259436185186724417663592868521
45,810.900798367487317424766542284661878,809.6,1.300798367487317424766542284661878
46,847.305237056194106368593540077909847,846.0,1.305237056194106368593540077909847
47,884.509579841037931307693688183920033,883.2,1.309579841037931307693688183920033
48,922.513830784797529711774351021178066,921.2,1.313830784797529711774351021178066
49,961.317993697230889399853144587240419,960.0,1.317993697230889399853144587240419
50,1000.92207215567307240034079541176267,999.6,1.32207215567307240034079541176267
51,1041.32606952357870946883393040705285,1040.0,1.32606952357870946883393040705285
52,1082.52998896725055747825628300950434,1081.2,1.32998896725055747825628300950434
53,1124.53383347096306177741320615114006,1123.2,1.33383347096306177741320615114006
54,1167.33760585066230448258602839421633,1166.0,1.33760585066230448258602839421633
55,1210.94130876640024417433251214449989,1209.6,1.34130876640024417433251214449989
56,1255.34494473364107790162448495763526,1254.0,1.34494473364107790162448495763526
57,1300.54851613356035743044824005972389,1299.2,1.34851613356035743044824005972389
58,1346.55202522244269448785033265422387,1345.2,1.35202522244269448785033265422387
59,1393.35547414027113580529200870653404,1392.0,1.35547414027113580529200870653404
60,1440.95886491859026425766567196346483,1439.6,1.35886491859026425766567196346483
61,1489.36219948771551816702141354179870,1488.0,1.36219948771551816702141354179870
62,1538.56547968335291983516296059816411,1537.2,1.36547968335291983516296059816411
63,1588.56870725268616248048310441796412,1587.2,1.36870725268616248048310441796412
64,1639.37188385998169227474325262186857,1638.0,1.37188385998169227474325262186857
65,1690.97501109175688733579666842735143,1689.6,1.37501109175688733579666842735143
66,1743.37809046155158819347656839061600,1742.0,1.37809046155158819347656839061600
67,1796.58112341433897195484431328535274,1795.2,1.38112341433897195484431328535274
68,1850.58411133060800623448991611101250,1849.2,1.38411133060800623448991611101250
69,1905.38705553014640624517671898425101,1904.0,1.38705553014640624517671898425101
70,1960.98995727555009017618308626587226,1959.6,1.38995727555009017618308626587226
71,2017.39281777548252928332662046103679,2016.0,1.39281777548252928332662046103679
72,2074.59563818770509087262373540804781,2073.2,1.39563818770509087262373540804781
73,2132.59841962189741935352343000964556,2131.2,1.39841962189741935352343000964556
74,2191.40116314228508168948188506262394,2190.0,1.40116314228508168948188506262394
75,2251.00386977009007247295343552327782,2249.6,1.40386977009007247295343552327782
76,2311.40654048581832429553104099918789,2310.0,1.40654048581832429553104099918789
77,2372.60917623139706668599230171978511,2371.2,1.40917623139706668599230171978511
78,2434.61177791217371109127362159411327,2433.2,1.41177791217371109127362159411327
79,2497.41434639878689255586914807739386,2496.0,1.41434639878689255586914807739386
80,2561.01688252891936062998813614141052,2559.6,1.41688252891936062998813614141052
81,2625.41938710894156269583170128377113,2624.0,1.41938710894156269583170128377113
82,2690.62186091545400145130891527156582,2689.2,1.42186091545400145130891527156582
83,2756.62430469673575955726029588561628,2755.2,1.42430469673575955726029588561628
84,2823.42671917410596016309454069816300,2822.0,1.42671917410596016309454069816300
85,2891.02910504320437275014488079630735,2889.6,1.42910504320437275014488079630735
86,2959.43146297519685786725353309362591,2958.0,1.43146297519685786725353309362591
87,3028.63379361791088686291414219708226,3027.2,1.43379361791088686291414219708226
88,3098.63609759690594934119773500297554,3097.2,1.43609759690594934119773500297554
89,3169.43837551648327756718534546019420,3168.0,1.43837551648327756718534546019420
90,3241.04062796063897383159092916002529,3239.6,1.44062796063897383159092916002529
91,3313.44285549396430533290600052350333,3312.0,1.44285549396430533290600052350333
92,3386.64505866249664283860276946763888,3385.2,1.44505866249664283860276946763888
93,3460.64723799452425713262288704038847,3459.2,1.44723799452425713262288704038847
94,3535.44939400134794432843827698103201,3534.0,1.44939400134794432843827698103201
95,3611.05152717800222997375634680535485,3609.6,1.45152717800222997375634680535485
96,3687.45363800393870005166067682760699,3686.0,1.45363800393870005166067682760699
97,3764.65572694367382264176254129406960,3763.2,1.45572694367382264176254129406960
98,3842.65779444740345113153222085583307,3841.2,1.45779444740345113153222085583307
99,3921.45984095158604639675181823254151,3920.0,1.45984095158604639675181823254151
100,4001.06186687949650903057598610593568,3999.6,1.46186687949650903057598610593568
101,4081.46387264175238339755822416073664,4080.0,1.46387264175238339755822416073664
102,4162.66585863681406971532320448086697,4161.2,1.46585863681406971532320448086697
103,4244.66782525146057245404622586374781,4243.2,1.46782525146057245404622586374781
104,4327.46977286124220608032686020718784,4326.0,1.46977286124220608032686020718784
105,4411.07170183091158609945516485601972,4409.6,1.47170183091158609945516485601972
106,4495.47361251483414258705070945615655,4494.0,1.47361251483414258705070945615655
107,4580.67550525737931532036326406616360,4579.2,1.47550525737931532036326406616360
108,4666.67738039329351038128773776085909,4665.2,1.47738039329351038128773776085909
109,4753.47923824805582951097747977345128,4752.0,1.47923824805582951097747977345128
110,4841.08107913821752107723370696368724,4839.6,1.48107913821752107723370696368724
111,4929.48290337172603565612491364908341,4928.0,1.48290337172603565612491364908341
112,5018.68471124823451979719304139066309,5017.2,1.48471124823451979719304139066309
113,5108.68650305939752600739838831541543,5107.2,1.48650305939752600739838831541543
114,5199.48827908915366823285793897065359,5198.0,1.48827908915366823285793897065359
115,5291.09003961399591167065052194981640,5289.6,1.49003961399591167065052194981640
116,5383.49178490323013741310324153223990,5382.0,1.49178490323013741310324153223990
117,5476.69351521922259071583297366627790,5475.2,1.49351521922259071583297366627790
118,5570.69523081763678065164988780443853,5569.2,1.49523081763678065164988780443853
119,5665.49693194766036520072254309701365,5664.0,1.49693194766036520072254309701365
120,5761.09861885222252998727751772024538,5759.6,1.49861885222252998727751772024538
121,5857.50029176820233060804270409316741,5856.0,1.50029176820233060804270409316741
122,5954.70195092662844958678391793856178,5953.2,1.50195092662844958678391793856178
123,6052.70359655287078679872152822490255,6051.2,1.50359655287078679872152822490255
124,6151.50522886682428453127282328966036,6150.0,1.50522886682428453127282328966036
125,6251.10684808308535878387245429382743,6249.6,1.50684808308535878387245429382743
126,6351.50845441112129321500190228899686,6350.0,1.50845441112129321500190228899686
127,6452.71004805543293156946043551203819,6451.2,1.51004805543293156946043551203819
128,6554.71162921571098183463661961484667,6553.2,1.51162921571098183463661961484667
129,6657.51319808698623330432275580816139,6656.0,1.51319808698623330432275580816139
130,6761.11475485977396934991200620177754,6759.6,1.51475485977396934991200620177754
131,6865.51629972021284329800638726436029,6864.0,1.51629972021284329800638726436029
132,6970.71783285019846983968969461567902,6969.2,1.51783285019846983968969461567902
133,7076.71935442751197261872854067005575,7075.2,1.51935442751197261872854067005575
134,7183.52086462594371737375919700665107,7182.0,1.52086462594371737375919700665107
135,7291.12236361541244190507684064554323,7289.6,1.52236361541244190507684064554323
136,7399.52385156207999045319129594940441,7398.0,1.52385156207999045319129594940441
137,7508.72532862846184677265342402887400,7507.2,1.52532862846184677265342402887400
138,7618.72679497353364657709090545055910,7617.2,1.52679497353364657709090545055910
139,7729.52825075283384793015860537927009,7728.0,1.52825075283384793015860537927009
140,7841.12969611856272271599842342661192,7839.6,1.52969611856272271599842342661192
141,7953.53113121967782777038317783040298,7952.0,1.53113121967782777038317783040298
142,8066.73255620198610618577748657701029,8065.2,1.53255620198610618577748657701029
143,8180.73397120823276065893074184334150,8179.2,1.53397120823276065893074184334150
144,8295.53537637818703357578618856394762,8294.0,1.53537637818703357578618856394762
145,8411.13677184872502434680870578723704,8409.6,1.53677184872502434680870578723704
146,8527.53815775390966664345165373187728,8526.0,1.53815775390966664345165373187728
147,8644.73953422506797999017044293991333,8643.2,1.53953422506797999017044293991333
148,8762.74090139086571121531410609484139,8761.2,1.54090139086571121531410609484139
149,8881.54225937737946774348170383650887,8880.0,1.54225937737946774348170383650887
150,9001.14360830816644655945577644641039,8999.6,1.54360830816644655945577644641039
151,9121.54494830433185495525460286580822,9120.0,1.54494830433185495525460286580822
152,9242.74627948459411356511936175367928,9241.2,1.54627948459411356511936175367928
153,9364.74760196534793085259413394782861,9363.2,1.54760196534793085259413394782861
154,9487.54891586072533317262277568391864,9486.0,1.54891586072533317262277568391864
155,9611.15022128265472887801055108126794,9609.6,1.55022128265472887801055108126794
156,9735.55151834091808458013243843818744,9734.0,1.55151834091808458013243843818744
157,9860.75280714320628486462836405219072,9859.2,1.55280714320628486462836405219072
158,9986.75408779517274754554943201009790,9985.2,1.55408779517274754554943201009790
159,10113.5553604004853584078375236378738,10112.0,1.5553604004853584078375236378738
160,10241.1566250608767920650851392778328,10239.6,1.5566250608767920650851392778328
161,10369.5578818761932777310419429258404,10368.0,1.5578818761932777310419429258404
162,10498.7591309444418696819188537661760,10497.2,1.5591309444418696819188537661760
163,10628.7603723618362775930206728283091,10627.2,1.5603723618362775930206728283091
164,10759.5616062228413117316104336092247,10758.0,1.5616062228413117316104336092247
165,10891.1628326202159919672970221447424,10889.6,1.5628326202159919672970221447424
166,11023.5640516450553714932665848629746,11022.0,1.5640516450553714932665848629746
167,11156.7652633868311228859041277476623,11155.2,1.5652633868311228859041277476623
168,11290.7664679334309296053781791150293,11289.2,1.5664679334309296053781791150293
169,11425.5676653711967284323101541938337,11424.0,1.5676653711967284323101541938337
170,11561.1688557849618430371473683304903,11559.6,1.5688557849618430371473683304903
171,11697.5700392580870493516844987254624,11696.0,1.5700392580870493516844987254624
172,11834.7712158724956111071034074276582,11833.2,1.5712158724956111071034074276582
173,11972.7723857087073214624527425942972,11971.2,1.5723857087073214624527425942972
174,12111.5735488458715871139313290402324,12110.0,1.5735488458715871139313290402324
175,12251.1747053617995894433305098016476,12249.6,1.5747053617995894433305098016476
176,12391.5758553329955530135269688114952,12390.0,1.5758553329955530135269688114952
177,12532.7769988346871553026975387483798,12531.2,1.5769988346871553026975387483798
178,12674.7781359408551074941326317070386,12673.2,1.5781359408551074941326317070386
179,12817.5792667242619334621067859989929,12816.0,1.5792667242619334621067859989929
180,12961.1803912564799786306794421146472,12959.6,1.5803912564799786306794421146472
181,13105.5815096079186721214062047585493,13104.0,1.5815096079186721214062047585493
182,13250.7826218478510706917936936656050,13249.2,1.5826218478510706917936936656050
183,13396.7837280444397083615708815622788,13395.2,1.5837280444397083615708815622788
184,13543.5848282647617768597819541172486,13542.0,1.5848282647617768597819541172486
185,13691.1859225748336596386411793204858,13689.6,1.5859225748336596386411793204858
186,13839.5870110396348414095515255809987,13838.0,1.5870110396348414095515255809987
187,13988.7880937231312180405368244572597,13987.2,1.5880937231312180405368244572597
188,14138.7891706882978233451859405086497,14137.2,1.5891706882978233451859405086497
189,14289.5902419971409976463365629355082,14288.0,1.5902419971409976463365629355082
190,14441.1913077107200149796242664891095,14439.6,1.5913077107200149796242664891095
191,14593.5923678891681894391640286913156,14592.0,1.5923678891681894391640286913156
192,14746.7934225917134783970249329584514,14745.2,1.5934225917134783970249329584514
193,14900.7944718766986023238484735196367,14899.2,1.5944718766986023238484735196367
194,15055.5955158016006960535567389164400,15054.0,1.5955158016006960535567389164400
195,15211.1965544230505110103013644725408,15209.6,1.5965544230505110103013644725408
196,15367.5975877968511837642638658315466,15366.0,1.5975877968511837642638658315466
197,15524.7986159779965870609181086598807,15523.2,1.5986159779965870609181086598807
198,15682.7996390206892793556900797875054,15681.2,1.5996390206892793556900797875054
199,15841.6006569783580676650475966829525,15840.0,1.6006569783580676650475966829525
200,16001.2016699036751997655260152329146,15999.6,1.6016699036751997655260152329146
201,16161.6026778485731989301524576651989,16160.0,1.6026778485731989301524576651989
202,16322.8036808642613569212068410434246,16321.2,1.6036808642613569212068410434246
203,16484.8046790012418983752120507884766,16483.2,1.6046790012418983752120507884766
204,16647.6056723093258308240112401090292,16646.0,1.6056723093258308240112401090292
205,16811.2066608376484931039100409205788,16809.6,1.6066608376484931039100409205788
206,16975.6076446346848181268433434132269,16974.0,1.6076446346848181268433434132269
207,17140.8086237482643190195328047264263,17139.2,1.6086237482643190195328047264263
208,17306.8095982255858161800455439514397,17305.2,1.6095982255858161800455439514397
209,17473.6105681132319145287065553175263,17472.0,1.6105681132319145287065553175263
210,17641.2115334571832462037385412320604,17639.6,1.6115334571832462037385412320604
211,17809.6124943028324900517711499546282,17808.0,1.6124943028324900517711499546282
212,17978.8134506949981823847900574546217,17977.2,1.6134506949981823847900574546217
213,18148.8144026779383278975671055264802,18147.2,1.6144026779383278975671055264802
214,18319.6153502953638305288617889017842,18318.0,1.6153502953638305288617889017842
215,18491.2162935904517485930767871125244,18489.6,1.6162935904517485930767871125244
216,18663.6172326058583935934964893535976,18662.0,1.6172326058583935934964893535976
217,18836.8181673837322824940202656060440,18835.2,1.6181673837322824940202656060440
218,19010.8190979657269586282932540997269,19009.2,1.6190979657269586282932540997269
219,19185.6200243930136911438046524525080,19184.0,1.6200243930136911438046524525080
220,19361.2209467062940725639079160707937,19359.6,1.6209467062940725639079160707937
221,19537.6218649458125199301752633382286,19536.0,1.6218649458125199301752633382286
222,19714.8227791513687048056024624733930,19713.2,1.6227791513687048056024624733930
223,19892.8236893623299143471851137933664,19891.2,1.6236893623299143471851137933664
224,20071.6245956176433677641769324059137,20070.0,1.6245956176433677641769324059137
225,20251.2254979558485006340899980646448,20249.6,1.6254979558485006340899980646448
226,20431.6263964150892312416880474922886,20430.0,1.6263964150892312416880474922886
227,20612.8272910331262289813438636336404,20611.2,1.6272910331262289813438636336404
228,20794.8281818473491988644112051088880,20793.2,1.6281818473491988644112051088880
229,20977.6290688947892024187628985616966,20976.0,1.6290688947892024187628985616966
230,21161.2299522121310337815115923617991,21159.6,1.6299522121310337815115923617991
231,21345.6308318357256679522100925588423,21344.0,1.6308318357256679522100925588423
232,21530.8317078016028079481751858587481,21529.2,1.6317078016028079481751858587481
233,21716.8325801454835434352256763032896,21715.2,1.6325801454835434352256763032896
234,21903.6334489027931559328855198056836,21902.0,1.6334489027931559328855198056836
235,22091.2343141086740842044808083281123,22089.6,1.6343141086740842044808083281123
236,22279.6351757979990815896544478702819,22278.0,1.6351757979990815896544478702819
237,22468.8360340053845927243760753931066,22467.2,1.6360340053845927243760753931066
238,22658.8368887652043771321261526892667,22657.2,1.6368887652043771321261526892667
