Eigenstate,Energy,Kinetic Energy,Potential Energy
1,0.500000000037076909544396984985592177,0.0,0.500000000037076909544396984985592177
2,1.84623093789313332970408898062844193,1.2,0.64623093789313332970408898062844193
3,3.93633761041588575652712208883734399,3.2,0.73633761041588575652712208883734399
4,6.79966527929498267418049282911344878,6.0,0.79966527929498267418049282911344878
5,10.4480465778506356736745376096246438,9.6,0.8480465778506356736745376096246438
6,14.8870660008392860336552473214147950,14.0,0.8870660008392860336552473214147950
7,20.1197208296999369637703276458736869,19.2,0.9197208296999369637703276458736869
8,26.1477838508099782528508975541493422,25.2,0.9477838508099782528508975541493422
9,32.9723835631759521816635661893570250,32.0,0.9723835631759521816635661893570250
10,40.5942802209466011368371425453200881,39.6,0.9942802209466011368371425453200881
11,49.0140093942630837109712508642759187,48.0,1.0140093942630837109712508642759187
12,58.2319621784301200853755759657165880,57.2,1.0319621784301200853755759657165880
13,68.2484327035135913145265069459393244,67.2,1.0484327035135913145265069459393244
14,79.0636476671967051624201105853607046,78.0,1.0636476671967051624201105853607046
15,90.6777854505941835861307352014005055,89.6,1.0777854505941835861307352014005055
16,103.090988923122709500186971170718995,102.0,1.090988923122709500186971170718995
17,116.303374275962432316606099222564034,115.2,1.103374275962432316606099222564034
18,130.315037273063168303091049324027050,129.2,1.115037273063168303091049324027050
19,145.126057774248378884727109761284241,144.0,1.126057774248378884727109761284241
20,160.736503072849107614605772172461770,159.6,1.136503072849107614605772172461770
21,177.146430401785677762002821970811182,176.0,1.146430401785677762002821970811182
22,194.355888844726432765578044424167886,193.2,1.155888844726432765578044424167886
23,212.364920814024261140264009319468786,211.2,1.164920814024261140264009319468786
24,231.173563208117018836177157632870854,230.0,1.173563208117018836177157632870854
25,250.781848328323455790411718533989748,249.6,1.181848328323455790411718533989748
26,271.189804612650803807513290939426580,270.0,1.189804612650803807513290939426580
27,292.397457228757352501406461084720733,291.2,1.197457228757352501406461084720733
28,314.404828557311489221157696599698678,313.2,1.204828557311489221157696599698678
29,337.211938589193651060558960488255950,336.0,1.211938589193651060558960488255950
30,360.818805254338149481586222218981582,359.6,1.218805254338149481586222218981582
31,385.225444695865889581253915571644494,384.0,1.225444695865889581253915571644494
32,410.431871500081106446335177588507911,409.2,1.231871500081106446335177588507911
33,436.438098890595593236055647451212694,435.2,1.238098890595593236055647451212694
34,463.244138893093349366550959510959678,462.0,1.244138893093349366550959510959678
35,490.850002475909382105069892840060623,489.6,1.250002475909382105069892840060623
36,519.255699670562916003285169633960729,518.0,1.255699670562916003285169633960729
37,548.461239675581180050512650228932337,547.2,1.261239675581180050512650228932337
38,578.466630946319523684470393851708204,577.2,1.266630946319523684470393851708204
39,609.271881272985764147673418184080246,608.0,1.271881272985764147673418184080246
40,640.876997848680846894003782633123964,639.6,1.276997848680846894003782633123964
41,673.281987328951150476267948354175866,672.0,1.281987328951150476267948354175866
42,706.486855884092774744044307444905593,705.2,1.286855884092774744044307444905593
43,740.491609245241664836205746485476450,739.2,1.291609245241664836205746485476450
44,775.296252745115329436997713606539133,774.0,1.296252745115329436997713606539133
45,810.900791354134342195555960256766709,809.6,1.300791354134342195555960256766709
46,847.305229712538678926156023668189902,846.0,1.305229712538678926156023668189902
47,884.509572159020466594156727685547493,883.2,1.309572159020466594156727685547493
48,922.513822756317133728353753889171393,921.2,1.313822756317133728353753889171393
49,961.317985314144289356564615419321475,960.0,1.317985314144289356564615419321475
50,1000.92206340979353484761484241152540,999.6,1.32206340979353484761484241152540
51,1041.32606040667494608042427615493719,1040.0,1.32606040667494608042427615493719
52,1082.52997947104561814659433296275307,1081.2,1.32997947104561814659433296275307
53,1124.53382358713321467435229500097802,1123.2,1.33382358713321467435229500097802
54,1167.33759557083590273025366663549483,1166.0,1.33759557083590273025366663549483
55,1210.94129808215657876253268007890790,1209.6,1.34129808215657876253268007890790
56,1255.34493363650921647986672490126405,1254.0,1.34493363650921647986672490126405
57,1300.54850461501796859420213754148776,1299.2,1.34850461501796859420213754148776
58,1346.55201327391485716999858298016449,1345.2,1.35201327391485716999858298016449
59,1393.35546175312913337497450936616892,1392.0,1.35546175312913337497450936616892
60,1440.95885208415036291973451797122286,1439.6,1.35885208415036291973451797122286
61,1489.36218619723772924615525332212846,1488.0,1.36218619723772924615525332212846
62,1538.56546592803974551929339874004791,1537.2,1.36546592803974551929339874004791
63,1588.56869302368132458855902490383657,1587.2,1.36869302368132458855902490383657
64,1639.37186914836884360397579223056154,1638.0,1.37186914836884360397579223056154
65,1690.97499588855830513337693206402050,1689.6,1.37499588855830513337693206402050
66,1743.37807475772684928733201935377067,1742.0,1.37807475772684928733201935377067
67,1796.58110720078360906727391991818141,1795.2,1.38110720078360906727391991818141
68,1850.58409459815214499148689725214370,1849.2,1.38409459815214499148689725214370
69,1905.38703826955338238289023000021431,1904.0,1.38703826955338238289023000021431
70,1960.98993947751504643428765002468415,1959.6,1.38993947751504643428765002468415
71,2017.39279943063099146302205282522178,2016.0,1.39279943063099146302205282522178
72,2074.59561928659152252459494037081386,2073.2,1.39561928659152252459494037081386
73,2132.59840015500375454840682630252747,2131.2,1.39840015500375454840682630252747
74,2191.40114310001923531022194328711672,2190.0,1.40114310001923531022194328711672
75,2251.00384914278442745485770186541654,2249.6,1.40384914278442745485770186541654
76,2311.40651926372819522584402423536081,2310.0,1.40651926372819522584402423536081
77,2372.60915440469913916037968043040009,2371.2,1.40915440469913916037968043040009
78,2434.61175547096445620973246161887407,2433.2,1.41175547096445620973246161887407
79,2497.41432333308095592523783971832947,2496.0,1.41432333308095592523783971832947
80,2561.01685882864792522440621815082340,2559.6,1.41685882864792522440621815082340
81,2625.41936276395068491017237795283533,2624.0,1.41936276395068491017237795283533
82,2690.62183591550291966576706693917326,2689.2,1.42183591550291966576706693917326
83,2756.62427903149517451390105134052176,2755.2,1.42427903149517451390105134052176
84,2823.42669283315628643723580696137923,2822.0,1.42669283315628643723580696137923
85,2891.02907801603396058094130066875337,2889.6,1.42907801603396058094130066875337
86,2959.43143525120018459275193003387563,2958.0,1.43143525120018459275193003387563
87,3028.63376518638671718513190621088251,3027.2,1.43376518638671718513190621088251
88,3098.63606844705546362642553662609841,3097.2,1.43606844705546362642553662609841
89,3169.43834563740816736570637637253583,3168.0,1.43834563740816736570637637253583
90,3241.04059734133950377930994364564043,3239.6,1.44059734133950377930994364564043
91,3313.44282412333734057498399594804391,3312.0,1.44282412333734057498399594804391
92,3386.64502652933364109205113114508770,3385.2,1.44502652933364109205113114508770
93,3460.64720508750922448092295754084795,3459.2,1.44720508750922448092295754084795
94,3535.44936030905535381656684523146744,3534.0,1.44936030905535381656684523146744
95,3611.05149268889490204649736020671406,3609.6,1.45149268889490204649736020671406
96,3687.45360270636564385174788648475392,3686.0,1.45360270636564385174788648475392
97,3764.65569082586803715716856997388467,3763.2,1.45569082586803715716856997388467
98,3842.65775749747968515310168336507848,3841.2,1.45775749747968515310168336507848
99,3921.45980315753851621829672613657893,3920.0,1.45980315753851621829672613657893
100,4001.06182822919657279351119343790464,3999.6,1.46182822919657279351119343790464
101,4081.46383312294617095108867235961708,4080.0,1.46383312294617095108867235961708
102,4162.66581823712006683108475603746271,4161.2,1.46581823712006683108475603746271
103,4244.66778395836715820089831974451958,4243.2,1.46778395836715820089831974451958
104,4327.46973066210514213065552844636733,4326.0,1.46973066210514213065552844636733
105,4411.07165871295145670283670669141405,4409.6,1.47165871295145670283670669141405
106,4495.47356846513374391039277062570217,4494.0,1.47356846513374391039277062570217
107,4580.67546026288099281564238865868681,4579.2,1.47546026288099281564238865868681
108,4666.67733444079644280268662317335701,4665.2,1.47733444079644280268662317335701
109,4753.47919132421325816254377710716121,4752.0,1.47919132421325816254377710716121
110,4841.08103122953392283008195358192716,4839.6,1.48103122953392283008195358192716
111,4929.48285446455423823062844330967947,4928.0,1.48285446455423823062844330967947
112,5018.68466132877275776050152091468045,5017.2,1.48466132877275776050152091468045
113,5108.68645211368643588991617383260367,5107.2,1.48645211368643588991617383260367
114,5199.48822710307322111895897265218707,5198.0,1.48822710307322111895897265218707
115,5291.08998657326228156882470633312809,5289.6,1.48998657326228156882470633312809
116,5383.49173079339250365885921027038926,5382.0,1.49173079339250365885921027038926
117,5476.69346002565987260694600384992602,5475.2,1.49346002565987260694600384992602
118,5570.69517452555430245966891586953248,5569.2,1.49517452555430245966891586953248
119,5665.49687454208644964496638948125815,5664.0,1.49687454208644964496638948125815
120,5761.09856031800501819775844009145542,5759.6,1.49856031800501819775844009145542
121,5857.50023209000502654178278522553879,5856.0,1.50023209000502654178278522553879
122,5954.70189008892748679774400744729782,5953.2,1.50189008892748679774400744729782
123,6052.70353453995091539494764271316802,6051.2,1.50353453995091539494764271316802
124,6151.50516566277507608378234040873696,6150.0,1.50516566277507608378234040873696
125,6251.10678367179732688015022474842166,6249.6,1.50678367179732688015022474842166
126,6351.50838877628192727564804992430869,6350.0,1.50838877628192727564804992430869
127,6452.70998118052264146941525603380724,6451.2,1.50998118052264146941525603380724
128,6554.71156108399895079037530031761123,6553.2,1.51156108399895079037530031761123
129,6657.51312868152617640535838705230551,6656.0,1.51312868152617640535838705230551
130,6761.11468416339979502672658538307391,6759.6,1.51468416339979502672658538307391
131,6865.51622771553421492900415866103668,6864.0,1.51622771553421492900415866103668
132,6970.71775951959626460681538998446214,6969.2,1.51775951959626460681538998446214
133,7076.71927975313363462484772691492956,7075.2,1.51927975313363462484772691492956
134,7183.52078858969850193459987358873607,7182.0,1.52078858969850193459987358873607
135,7291.12228619896654782433155567316816,7289.6,1.52228619896654782433155567316816
136,7399.52377274685157698110132623744988,7398.0,1.52377274685157698110132623744988
137,7508.72524839561593183583552609917448,7507.2,1.52524839561593183583552609917448
138,7618.72671330397688275038054792988124,7617.2,1.52671330397688275038054792988124
139,7729.52816762720917249958530366572961,7728.0,1.52816762720917249958530366572961
140,7841.12961151724387805549220238545881,7839.6,1.52961151724387805549220238545881
141,7953.53104512276374812322527173397810,7952.0,1.53104512276374812322527173397810
142,8066.73246858929516680489685042061840,8065.2,1.53246858929516680489685042061840
143,8180.73388205929688511768506624778486,8179.2,1.53388205929688511768506624778486
144,8295.53528567224565491259730241842267,8294.0,1.53528567224565491259730241842267
145,8411.13667956471889555267576913486885,8409.6,1.53667956471889555267576913486885
146,8527.53806387047451584065047814649527,8526.0,1.53806387047451584065047814649527
147,8644.73943872052800548307884948541247,8643.2,1.53943872052800548307884948541247
148,8762.74080424322691141997774238570902,8761.2,1.54080424322691141997774238570902
149,8881.54216056432280082087981175529968,8880.0,1.54216056432280082087981175529968
150,9001.14350780704081438816839216958245,8999.6,1.54350780704081438816839216958245
151,9121.54484609214690588192190587198683,9120.0,1.54484609214690588192190587198683
152,9242.74617553801285816541365741094394,9241.2,1.54617553801285816541365741094394
153,9364.74749626067916472093660578532160,9363.2,1.54749626067916472093660578532160
154,9487.54880837391586053517046669149946,9486.0,1.54880837391586053517046669149946
155,9611.15011198928138059005888768636910,9609.6,1.55011198928138059005888768636910
156,9735.55140721617952382553445801764557,9734.0,1.55140721617952382553445801764557
157,9860.75269416191459362066896888109982,9859.2,1.55269416191459362066896888109982
158,9986.75397293174478661132426268705609,9985.2,1.55397293174478661132426268705609
159,10113.5552436289338935171108182156739,10112.0,1.5552436289338935171108182156739
160,10241.1565063548013783151655918984157,10239.6,1.5565063548013783151655918984157
161,10369.5577612087708942568418353391966,10368.0,1.5577612087708942568418353391966
162,10498.7590082884172961883841319380212,10497.2,1.5590082884172961883841319380212
163,10628.7602476895122040288597089389577,10627.2,1.5602476895122040288597089389577
164,10759.5614795060681720419129683681468,10758.0,1.5614795060681720419129683681468
165,10891.1627038303815125015327158218532,10889.6,1.5627038303815125015327158218532
166,11023.5639207530738242673925610476451,11022.0,1.5639207530738242673925610476451
167,11156.7651303631322735020559368365173,11155.2,1.5651303631322735020559368365173
168,11290.7663327479486692189312123959059,11289.2,1.5663327479486692189312123959059
169,11425.5675279933573787230391277968925,11424.0,1.5675279933573787230391277968925
170,11561.1687161836721226876805617939986,11559.6,1.5687161836721226876805617939986
171,11697.5698974017216900614369300249706,11696.0,1.5698974017216900614369300249706
172,11834.7710717288846106721334146382173,11833.2,1.5710717288846106721334146382173
173,11972.7722392451228209300674452137117,11971.2,1.5722392451228209300674452137117
174,12111.5734000290143584739885953522810,12110.0,1.5734000290143584739885953522810
175,12251.1745541577851197447347064258104,12249.6,1.5745541577851197447347064258104
176,12391.5757017073397101928490516196280,12390.0,1.5757017073397101928490516196280
177,12532.7768427522914203806879718305834,12531.2,1.5768427522914203806879718305834
178,12674.7779773659913571333871174161382,12673.2,1.5779773659913571333871174161382
179,12817.5791056205567561836040202829717,12816.0,1.5791056205567561836040202829717
180,12961.1802275868985072564079878218069,12959.6,1.5802275868985072564079878218069
181,13105.5813433347479142428752401136606,13104.0,1.5813433347479142428752401136606
182,13250.7824529326827181577466813021682,13249.2,1.5824529326827181577466813021682
183,13396.7835564481524059303941577043177,13395.2,1.5835564481524059303941577043177
184,13543.5846539475028292706030237911130,13542.0,1.5846539475028292706030237911130
185,13691.1857454960001554172663951328978,13689.6,1.5857454960001554172663951328978
186,13839.5868311578541707385817356867477,13838.0,1.5868311578541707385817356867477
187,13988.7879109962409609842193851913069,13987.2,1.5879109962409609842193851913069
188,14138.7889850733249836257486349457494,14137.2,1.5889850733249836257486349457494
189,14289.5900534502805560163807289434367,14288.0,1.5900534502805560163807289434367
190,14441.1911161873127750210747507532698,14439.6,1.5911161873127750210747507532698
191,14593.5921733436778873395262822090420,14592.0,1.5921733436778873395262822090420
192,14746.7932249777031269042092342231983,14745.2,1.5932249777031269042092342231983
193,14900.7942711468060376572854830798408,14899.2,1.5942711468060376572854830798408
194,15055.5953119075132950471313074156101,15054.0,1.5953119075132950471313074156101
195,15211.1963473154790441768047725091566,15209.6,1.5963473154790441768047725091566
196,15367.5973774255027682963193573366626,15366.0,1.5973774255027682963193573366626
197,15524.7984022915467020140092931331996,15523.2,1.5984022915467020140092931331996
198,15682.7994219667528033889301951545446,15681.2,1.5994219667528033889301951545446
199,15841.6004365034592977381129688111541,15840.0,1.6004365034592977381129688111541
200,16001.2014459532168070988343884020263,15999.6,1.6014459532168070988343884020263
201,16161.6024503668040763222855177651641,16160.0,1.6024503668040763222855177651641
202,16322.8034497942433091747521318648855,16321.2,1.6034497942433091747521318648855
203,16484.8044442848151251009912656554027,16483.2,1.6044442848151251009912656554027
204,16647.6054338870731482646683768297464,16646.0,1.6054338870731482646683768297464
205,16811.2064186488582388311693973954290,16809.6,1.6064186488582388311693973954290
206,16975.6073986173123795114874516945099,16974.0,1.6073986173123795114874516945099
207,17140.8083738388922232378122858867861,17139.2,1.6083738388922232378122858867861
208,17306.8093443593823161922297052756246,17305.2,1.6093443593823161922297052756246
209,17473.6103102239080019313613613842818,17472.0,1.6103102239080019313613613842818
210,17641.2112714769480181025466588332637,17639.6,1.6112714769480181025466588332637
211,17809.6122281623467931105258999774754,17808.0,1.6122281623467931105258999774754
212,17978.8131803233264529617495944688862,17977.2,1.6131803233264529617495944688862
213,18148.8141280024985426642047850171492,18147.2,1.6141280024985426642047850171492
214,18319.6150712418754771584446168506218,18318.0,1.6150712418754771584446168506218
215,18491.2160100828817209860489376813390,18489.6,1.6160100828817209860489376813390
216,18663.6169445663647106499691089104226,18662.0,1.6169445663647106499691089104226
217,18836.8178747326055236257956523169776,18835.2,1.6178747326055236257956523169776
218,19010.8188006213293029963943714146558,19009.2,1.6188006213293029963943714146558
219,19185.6197222717154409828431119564546,19184.0,1.6197222717154409828431119564546
220,19361.2206397224075338797925106999726,19359.6,1.6206397224075338797925106999726
221,19537.6215530115231062975365725860448,19536.0,1.6215530115231062975365725860448
222,19714.8224621766631219081542578654362,19713.2,1.6224621766631219081542578654362
223,19892.8233672549212742565487583481332,19891.2,1.6233672549212742565487583481332
224,20071.6242682828930726956784394274387,20070.0,1.6242682828930726956784394274387
225,20251.2251652966847260025174258504525,20249.6,1.6251652966847260025174258504525
226,20431.6260583319218272126821052265712,20430.0,1.6260583319218272126821052265712
227,20612.8269474237578483165653944486592,20611.2,1.6269474237578483165653944486592
228,20794.8278326068824466271737360162938,20793.2,1.6278326068824466271737360162938
229,20977.6287139155295899718052259339153,20976.0,1.6287139155295899718052259339153
230,21161.2295913834855053938009172688993,21159.6,1.6295913834855053938009172688993
231,21345.6304650440964531536270507624032,21344.0,1.6304650440964531536270507624032
232,21530.8313349302763364381963795492501,21529.2,1.6313349302763364381963795492501
233,21716.8322010745141417639202760779878,21715.2,1.6322010745141417639202760779878
234,21903.6330635088812262195446045899019,21902.0,1.6330635088812262195446045899019
235,22091.2339222650384447198564942709151,22089.6,1.6339222650384447198564942709151
236,22279.6347773742431269690171771133556,22278.0,1.6347773742431269690171771133556
237,22468.8356288673559077536343383437553,22467.2,1.6356288673559077536343383437553
238,22658.8364767748474122965718485575158,22657.2,1.6364767748474122965718485575158
