Eigenstate,Energy,Kinetic Energy,Potential Energy
1,0.500000000017812177648841177835466194,0.0,0.500000000017812177648841177835466194
2,1.84623093776738318240138383682386911,1.2,0.64623093776738318240138383682386911
3,3.93633761004650476778335986816624504,3.2,0.73633761004650476778335986816624504
4,6.79966527852560402984970409431107819,6.0,0.79966527852560402984970409431107819
5,10.4480465765179139279601128151440007,9.6,0.8480465765179139279601128151440007
6,14.8870659987770166922854725705688604,14.0,0.8870659987770166922854725705688604
7,20.1197208267405745818508572334541971,19.2,0.9197208267405745818508572334541971
8,26.1477838467852697513294087280736405,25.2,0.9477838467852697513294087280736405
9,32.9723835579172315301664482474201678,32.0,0.9723835579172315301664482474201678
10,40.5942802142849390933547647700209741,39.6,0.9942802142849390933547647700209741
11,49.0140093860293693289869577684360901,48.0,1.0140093860293693289869577684360901
12,58.2319621684551074507750108547387870,57.2,1.0319621684551074507750108547387870
13,68.2484326916279273535213864190105557,67.2,1.0484326916279273535213864190105557
14,79.0636476532309465558599720164984371,78.0,1.0636476532309465558599720164984371
15,90.6777854343788071119485226189377441,89.6,1.0777854343788071119485226189377441
16,103.090988904488118247758319746455066,102.0,1.090988904488118247758319746455066
17,116.303374254738959215868864990477981,115.2,1.103374254738959215868864990477981
18,130.315037249081077852895586261730601,129.2,1.115037249081077852895586261730601
19,145.126057747337867640728224685584344,144.0,1.126057747337867640728224685584344
20,160.736503042840303802099233229970916,159.6,1.136503042840303802099233229970916
21,177.146430368508640258215295417769544,176.0,1.146430368508640258215295417769544
22,194.355888808011149618825585336214028,193.2,1.155888808011149618825585336214028
23,212.364920773700647742994611110242270,211.2,1.164920773700647742994611110242270
24,231.173563164014915835218241203892390,230.0,1.173563164014915835218241203892390
25,250.781848280272626794755554934987394,249.6,1.181848280272626794755554934987394
26,271.189804560480932937998357945107993,270.0,1.189804560480932937998357945107993
27,292.397457172298041815362860478885044,291.2,1.197457172298041815362860478885044
28,314.404828496392256036982071145402462,313.2,1.204828496392256036982071145402462
29,337.211938523643925201286144589443999,336.0,1.211938523643925201286144589443999
30,360.818805183987270452174939403198051,359.6,1.218805183987270452174939403198051
31,385.225444620543103691056788615611182,384.0,1.225444620543103691056788615611182
32,410.431871419615563885772253959610012,409.2,1.231871419615563885772253959610012
33,436.438098804816345114641064702865054,435.2,1.238098804816345114641064702865054
34,463.244138801829344717982443732325866,462.0,1.244138801829344717982443732325866
35,490.850002378989464863971660696086206,489.6,1.250002378989464863971660696086206
36,519.255699567815821957317647170524448,518.0,1.255699567815821957317647170524448
37,548.461239566835533770869357414561448,547.2,1.261239566835533770869357414561448
38,578.466630831403835437230700585380712,577.2,1.266630831403835437230700585380712
39,609.271881151728426788037669656950902,608.0,1.271881151728426788037669656950902
40,640.876997720910132745080414269463961,639.6,1.276997720910132745080414269463961
41,673.281987194495208193792461676467730,672.0,1.281987194495208193792461676467730
42,706.486855742779626168173251632531602,705.2,1.286855742779626168173251632531602
43,740.491609096899201831334389951084009,739.2,1.291609096899201831334389951084009
44,775.296252589571310720389502191710192,774.0,1.296252589571310720389502191710192
45,810.900791191216390155438538591477075,809.6,1.300791191216390155438538591477075
46,847.305229542074276429827371308310203,846.0,1.305229542074276429827371308310203
47,884.509571980836953786551791426672275,883.2,1.309571980836953786551791426672275
48,922.513822570241704821443471605345692,921.2,1.313822570241704821443471605345692
49,961.317985120003989409892928827989108,960.0,1.317985120003989409892928827989108
50,1000.92206320741525654022300314403818,999.6,1.32206320741525654022300314403818
51,1041.32606019588542647436374970308999,1040.0,1.32606019588542647436374970308999
52,1082.52997925167143544218857052608022,1081.2,1.32997925167143544218857052608022
53,1124.53382335900078495733242676286248,1123.2,1.33382335900078495733242676286248
54,1167.33759533377147671086276789665135,1166.0,1.33759533377147671086276789665135
55,1210.94129783598623850666702903165067,1209.6,1.34129783598623850666702903165067
56,1255.34493338105887213229966935205591,1254.0,1.34493338105887213229966935205591
57,1300.54850435011335509391639519909424,1299.2,1.34850435011335509391639519909424
58,1346.55201299938153095763539601944388,1345.2,1.35201299938153095763539601944388
59,1393.35546146879246909239299054681807,1392.0,1.35546146879246909239299054681807
60,1440.95885178983555010166112768155244,1439.6,1.35885178983555010166112768155244
61,1489.36218589276976900389161572844579,1488.0,1.36218589276976900389161572844579
62,1538.56546561324344721644021363758106,1537.2,1.36546561324344721644021363758106
63,1588.56869269838130250870464836870950,1587.2,1.36869269838130250870464836870950
64,1639.37186881238951361028984480290090,1638.0,1.37186881238951361028984480290090
65,1690.97499554172388132004191806670046,1689.6,1.37499554172388132004191806670046
66,1743.37807439986134062273940389381051,1742.0,1.37807439986134062273940389381051
67,1796.58110683171081602890520671784706,1795.2,1.38110683171081602890520671784706
68,1850.58409421769565619239494052283590,1849.2,1.38409421769565619239494052283590
69,1905.38703787753657118969114165121098,1904.0,1.38703787753657118969114165121098
70,1960.98993907376106757656943567651663,1959.6,1.38993907376106757656943567651663
71,2017.39279901496277763407196909965136,2016.0,1.39279901496277763407196909965136
72,2074.59561885883178097334411088903783,2073.2,1.39561885883178097334411088903783
73,2132.59839971497496366248720208945914,2131.2,1.39839971497496366248720208945914
74,2191.40114264754364119002771587804132,2190.0,1.40114264754364119002771587804132
75,2251.00384867768404047850041842993525,2249.6,1.40384867768404047850041842993525
76,2311.40651878582478660488809444706793,2310.0,1.40651878582478660488809444706793
77,2372.60915391381423748624249956702562,2371.2,1.40915391381423748624249956702562
78,2434.61175496691934399063113491616482,2433.2,1.41175496691934399063113491616482
79,2497.41432281569666611356237024284114,2496.0,1.41432281569666611356237024284114
80,2561.01685829774523773439707775111511,2559.6,1.41685829774523773439707775111511
81,2625.41936221935012312577844624909264,2624.0,1.41936221935012312577844624909264
82,2690.62183535702474693855820631590160,2689.2,1.42183535702474693855820631590160
83,2756.62427845895939065090790164828342,2755.2,1.42427845895939065090790164828342
84,2823.42669224638262417858777190964211,2822.0,1.42669224638262417858777190964211
85,2891.02907741484188206717216822336939,2889.6,1.42907741484188206717216822336939
86,2959.43143463540887782164116382263641,2958.0,1.43143463540887782164116382263641
87,3028.63376455581509245794815396751031,3027.2,1.43376455581509245794815396751031
88,3098.63606780152214998343759321114616,3097.2,1.43606780152214998343759321114616
89,3169.43834497673150901082554626705196,3168.0,1.43834497673150901082554626705196
90,3241.04059666533755649372644381994132,3239.6,1.44059666533755649372644381994132
91,3313.44282343182786811965878483482576,3312.0,1.44282343182786811965878483482576
92,3386.64502582213411159892340342374804,3385.2,1.44502582213411159892340342374804
93,3460.64720436443680683269229397433554,3459.2,1.44720436443680683269229397433554
94,3535.44935956992691401490790653805432,3534.0,1.44935956992691401490790653805432
95,3611.05149193352699956856380373569464,3609.6,1.45149193352699956856380373569464
96,3687.45360193457452799482117757022188,3686.0,1.45360193457452799482117757022188
97,3764.65569003746964337130609048215053,3763.2,1.45569003746964337130609048215053
98,3842.65775669228963136163763556370648,3841.2,1.45775669228963136163763556370648
99,3921.45980233537209912604806365337873,3920.0,1.45980233537209912604806365337873
100,4001.06182738986876418253987502701282,3999.6,1.46182738986876418253987502701282
101,4081.46383226627161396387038693579461,4080.0,1.46383226627161396387038693579461
102,4162.66581736291307224093321696435924,4161.2,1.46581736291307224093321696435924
103,4244.66778306644170066949324625190399,4243.2,1.46778306644170066949324625190399
104,4327.46972975227485645252120621058887,4326.0,1.46972975227485645252120621058887
105,4411.07165778502963403661713813855986,4409.6,1.47165778502963403661713813855986
106,4495.47356751893332799676828027025815,4494.0,1.47356751893332799676828027025815
107,4580.67545929821457618173149192593160,4579.2,1.47545929821457618173149192593160
108,4666.67733345747626295277597094586283,4665.2,1.47733345747626295277597094586283
109,4753.47919032205119375498783618272985,4752.0,1.47919032205119375498783618272985
110,4841.08103020834148984021310583019649,4839.6,1.48103020834148984021310583019649
111,4929.48285342414258609951706339898935,4928.0,1.48285342414258609951706339898935
112,5018.68466026895266552940453875610462,5017.2,1.48466026895266552940453875610462
113,5108.68645103426830832025155945536959,5107.2,1.48645103426830832025155945536959
114,5199.48822600386708479764248299956325,5198.0,1.48822600386708479764248299956325
115,5291.08998545407778099880413882503594,5289.6,1.48998545407778099880413882503594
116,5383.49172965403889733468031669465455,5382.0,1.49172965403889733468031669465455
117,5476.69345886594602907518313653240536,5475.2,1.49345886594602907518313653240536
118,5570.69517334528869636405229308663177,5569.2,1.49517334528869636405229308663177
119,5665.49687334107715775603686736964688,5664.0,1.49687334107715775603686736964688
120,5761.09855909605971542687939144206616,5759.6,1.49855909605971542687939144206616
121,5857.50023084693098193933766376120800,5856.0,1.50023084693098193933766376120800
122,5954.70188882453155953534699221085329,5953.2,1.50188882453155953534699221085329
123,6052.70353325403955073149356189279211,6051.2,1.50353325403955073149356189279211
124,6151.50516435515430131516095756972975,6150.0,1.50516435515430131516095756972975
125,6251.10678234227274727244876756138813,6249.6,1.50678234227274727244876756138813
126,6351.50838742465872198166462919371183,6350.0,1.50838742465872198166462919371183
127,6452.70997980660555942830468485601861,6451.2,1.50997980660555942830468485601861
128,6554.71155968759230661024753382290627,6553.2,1.51155968759230661024753382290627
129,6657.51312726243384622864863603363712,6656.0,1.51312726243384622864863603363712
130,6761.11468272142521237815488674465880,6759.6,1.51468272142521237815488674465880
131,6865.51622625048036654594099123447551,6864.0,1.51622625048036654594099123447551
132,6970.71775803126568625186844696996325,6969.2,1.51775803126568625186844696996325
133,7076.71927824132840688048404930949649,7075.2,1.51927824132840688048404930949649
134,7183.52078705422024597961590114348787,7182.0,1.52078705422024597961590114348787
135,7291.12228463961642119198246460282227,7289.6,1.52228463961642119198246460282227
136,7399.52377116343026929869984356186217,7398.0,1.52377116343026929869984356186217
137,7508.72524678792366054562884719970271,7507.2,1.52524678792366054562884719970271
138,7618.72671167181338881151283129025180,7617.2,1.52671167181338881151283129025180
139,7729.52816597037371607095166356643974,7728.0,1.52816597037371607095166356643974
140,7841.12960983553523415928893730188046,7839.6,1.52960983553523415928893730188046
141,7953.53104341598020228899955020731313,7952.0,1.53104341598020228899955020731313
142,8066.73246685723451069389769333325095,8065.2,1.53246685723451069389769333325095
143,8180.73388030175641212731606449852964,8179.2,1.53388030175641212731606449852964
144,8295.53528388902215576077002165191996,8294.0,1.53528388902215576077002165191996
145,8411.13667775560865384186143228940782,8409.6,1.53667775560865384186143228940782
146,8527.53806203527330360142592866354659,8526.0,1.53806203527330360142592866354659
147,8644.73943685903107869696134696165391,8643.2,1.53943685903107869696134696165391
148,8762.74080235522900552134177887075992,8761.2,1.54080235522900552134177887075992
149,8881.54215864961812617774734521557333,8880.0,1.54215864961812617774734521557333
150,9001.14350586542305176166267311127360,8999.6,1.54350586542305176166267311127360
151,9121.54484412340920186417320162969358,9120.0,1.54484412340920186417320162969358
152,9242.74617354194782059570386554709381,9241.2,1.54617354194782059570386554709381
153,9364.74749423707885807986801560203147,9363.2,1.54749423707885807986801560203147
154,9487.54880632257180131664238388201265,9486.0,1.54880632257180131664238388201265
155,9611.15010990998453265083422421109819,9609.6,1.55010990998453265083422421109819
156,9735.55140510872029371217661228584264,9734.0,1.55140510872029371217661228584264
157,9860.75269202608282587362787804665285,9859.2,1.55269202608282587362787804665285
158,9986.75397076732975904594868396277516,9985.2,1.55397076732975904594868396277516
159,10113.5552414357243124813622288632215,10112.0,1.5552414357243124813622288632215
160,10241.1565041325853739238073616785435,10239.6,1.5565041325853739238073616785435
161,10369.5577589573360156018756499002133,10368.0,1.5577589573360156018756499002133
162,10498.7590060075505065255038238987129,10497.2,1.5590060075505065255038238987129
163,10628.7602453789998759396909764204005,10627.2,1.5602453789998759396909764204005
164,10759.5614771656960825718055434661157,10758.0,1.5614771656960825718055434661157
165,10891.1627014599348382726697465530247,10889.6,1.5627014599348382726697465530247
166,11023.5639183523371365669802784861370,11022.0,1.5639183523371365669802784861370
167,11156.7651279318895333453547037017392,11155.2,1.5651279318895333453547037017392
168,11290.7663302859832223868870698730458,11289.2,1.5663302859832223868870698730458
169,11425.5675255004519507742734031383372,11424.0,1.5675255004519507742734031383372
170,11561.1687136596088139445927112773762,11559.6,1.5687136596088139445927112773762
171,11697.5698948462819705701743231228384,11696.0,1.5698948462819705701743231228384
172,11834.7710691418493151361794175798477,11833.2,1.5710691418493151361794175798477
173,11972.7722366262721436171974796709416,11971.2,1.5722366262721436171974796709416
174,12111.5733973781278480963416094939668,12110.0,1.5733973781278480963416094939668
175,12251.1745514746416743117456062014814,12249.6,1.5745514746416743117456062014814
176,12391.5756989917175718367855445914214,12390.0,1.5756989917175718367855445914214
177,12532.7768400039681701545332000511131,12531.2,1.5768400039681701545332000511131
178,12674.7779745847439097808073765003108,12673.2,1.5779745847439097808073765003108
179,12817.5791028061613548807387635143422,12816.0,1.5791028061613548807387635143422
180,12961.1802247391307183252170433280809,12959.6,1.5802247391307183252170433280809
181,13105.5813404533826218357761967812766,13104.0,1.5813404533826218357761967812766
182,13250.7824500174941189132730613177804,13249.2,1.5824500174941189132730613177804
183,13396.7835534989140035996028198132661,13395.2,1.5835534989140035996028198132661
184,13543.5846509639874293139570637707575,13542.0,1.5846509639874293139570637707575
185,13691.1857424779798595717172878534052,13689.6,1.5857424779798595717172878534052
186,13839.5868281051003715545726712725418,13838.0,1.5868281051003715545726712725418
187,13988.7879079085243363323288518425589,13987.2,1.5879079085243363323288518425589
188,14138.7889819504154911726914070680380,14137.2,1.5889819504154911726914070680380
189,14289.5900502919474276700807601423384,14288.0,1.5900502919474276700807601423384
190,14441.1911129933245113445222776971073,14439.6,1.5911129933245113445222776971073
191,14593.5921701138022519331288912036767,14592.0,1.5921701138022519331288912036767
192,14746.7932217117071407563442276400801,14745.2,1.5932217117071407563442276400801
193,14900.7942678444559734627584542661285,14899.2,1.5942678444559734627584542661285
194,15055.5953085685746714932431988470013,15054.0,1.5953085685746714932431988470013
195,15211.1963439397166201967273741198332,15209.6,1.5963439397166201967273741198332
196,15367.5973740126805372894763922163283,15366.0,1.5973740126805372894763922163283
197,15524.7983988414278860331578074822529,15523.2,1.5983988414278860331578074822529
198,15682.7994184790998472936343340884994,15681.2,1.5994184790998472936343340884994
199,15841.6004329780338633142994798107260,15840.0,1.6004329780338633142994798107260
200,16001.2014423897797671441165992912421,15999.6,1.6014423897797671441165992912421
201,16161.6024467651155086967398876840034,16160.0,1.6024467651155086967398876840034
202,16322.8034461540624908168284601611859,16321.2,1.6034461540624908168284601611859
203,16484.8044406059005260082352745613295,16483.2,1.6044406059005260082352745613295
204,16647.6054301691824254389321685999889,16646.0,1.6054301691824254389321685999889
205,16811.2064148917482301879828324172117,16809.6,1.6064148917482301879828324172117
206,16975.6073948207390977532603408965397,16974.0,1.6073948207390977532603408965397
207,17140.8083700026108496905345312023437,17139.2,1.6083700026108496905345312023437
208,17306.8093404831471946053335659314724,17305.2,1.6093404831471946053335659314724
209,17473.6103063074726322404070417771015,17472.0,1.6103063074726322404070417771015
210,17641.2112675200650501543894079488690,17639.6,1.6112675200650501543894079488690
211,17809.6122241647680203506198597326813,17808.0,1.6122241647680203506198597326813
212,17978.8131762848028060832405123557624,17977.2,1.6131762848028060832405123557624
213,18148.8141239227800832184605365486818,18147.2,1.6141239227800832184605365486818
214,18319.6150671207113911266695127884046,18318.0,1.6150671207113911266695127884046
215,18491.2160059200203123116244360341996,18489.6,1.6160059200203123116244360341996
216,18663.6169403615533947311605204735353,18662.0,1.6169403615533947311605204735353
217,18836.8178704855908207684610422896344,18835.2,1.6178704855908207684610422896344
218,19010.8187963318568318263287312598597,19009.2,1.6187963318568318263287312598597
219,19185.6197179395299118173873105146050,19184.0,1.6197179395299118173873105146050
220,19361.2206353472527420583335163563393,19359.6,1.6206353472527420583335163563393
221,19537.6215485931419254705217789847625,19536.0,1.6215485931419254705217789847625
222,19714.8224577147974972842393637569854,19713.2,1.6224577147974972842393637569854
223,19892.8233627493122158074953544583484,19891.2,1.6233627493122158074953544583484
224,20071.6242637332806483186137245501297,20070.0,1.6242637332806483186137245501297
225,20251.2251607028080546391650091810114,20249.6,1.6251607028080546391650091810114
226,20431.6260536935190719251692987516042,20430.0,1.6260536935190719251692987516042
227,20612.8269427405662093194088213739504,20611.2,1.6269427405662093194088213739504
228,20794.8278278786381542750411589111342,20793.2,1.6278278786381542750411589111342
229,20977.6287091419678977026481196969407,20976.0,1.6287091419678977026481196969407
230,21161.2295865643406826269483001778354,21159.6,1.6295865643406826269483001778354
231,21345.6304601791017781424274352161306,21344.0,1.6304601791017781424274352161306
232,21530.8313300191640890767907760823663,21529.2,1.6313300191640890767907760823663
233,21716.8321961170155963477253331083106,21715.2,1.6321961170155963477253331083106
234,21903.6330585047266441590210733260586,21902.0,1.6330585047266441590210733260586
235,22091.2339172139570672071341528527450,22089.6,1.6339172139570672071341528527450
236,22279.6347722759631675969433307245769,22278.0,1.6347722759631675969433307245769
237,22468.8356237216045450868091403564096,22467.2,1.6356237216045450868091403564096
238,22658.8364715813507823939291681115390,22657.2,1.6364715813507823939291681115390
