Eigenstate,Energy,Kinetic Energy,Potential Energy
1,0.500000000000089528493623460111979109,0.0,0.500000000000089528493623460111979109
2,1.84623093765169927591624393179351945,1.2,0.64623093765169927591624393179351945
3,3.93633760970669404658426920362003109,3.2,0.73633760970669404658426920362003109
4,6.79966527781782114916374727115779413,6.0,0.79966527781782114916374727115779413
5,10.4480465752918980804237999660832024,9.6,0.8480465752918980804237999660832024
6,14.8870659968798829978105217674440983,14.0,0.8870659968798829978105217674440983
7,20.1197208240182122343560849425946779,19.2,0.9197208240182122343560849425946779
8,26.1477838430829262093740084480690223,25.2,0.9477838430829262093740084480690223
9,32.9723835530797851816953672066413752,32.0,0.9723835530797851816953672066413752
10,40.5942802081570385806113125371804521,39.6,0.9942802081570385806113125371804521
11,49.0140093784555101036882915389688110,48.0,1.0140093784555101036882915389688110
12,58.2319621592796763433162987089211645,57.2,1.0319621592796763433162987089211645
13,68.2484326806952297294152405030360453,67.2,1.0484326806952297294152405030360453
14,79.0636476403852234516117036445333662,78.0,1.0636476403852234516117036445333662
15,90.6777854194642463262178405626367861,89.6,1.0777854194642463262178405626367861
16,103.090988887348861636026609365513399,102.0,1.090988887348861636026609365513399
17,116.303374235219107516025883074424888,115.2,1.103374235219107516025883074424888
18,130.315037227024693855484189769983049,129.2,1.115037227024693855484189769983049
19,145.126057722588978219377463383969055,144.0,1.126057722588978219377463383969055
20,160.736503015242901140372318943362845,159.6,1.136503015242901140372318943362845
21,177.146430337906682497884007831494802,176.0,1.146430337906682497884007831494802
22,194.355888774248561083661476299130748,193.2,1.155888774248561083661476299130748
23,212.364920736621318845803206278562138,211.2,1.164920736621318845803206278562138
24,231.173563123462702744845874642862843,230.0,1.173563123462702744845874642862843
25,250.781848236091350918651433580165609,249.6,1.181848236091350918651433580165609
26,271.189804512514380261218831056941641,270.0,1.189804512514380261218831056941641
27,292.397457120389962126519240109225331,291.2,1.197457120389962126519240109225331
28,314.404828440386362064179723077654336,313.2,1.204828440386362064179723077654336
29,337.211938463383891675676896845319410,336.0,1.211938463383891675676896845319410
30,360.818805119316733112743506792416644,359.6,1.218805119316733112743506792416644
31,385.225444551305658241275110411138522,384.0,1.225444551305658241275110411138522
32,410.431871345654764910501097358382209,409.2,1.231871345654764910501097358382209
33,436.438098725975704963938616139297207,435.2,1.238098725975704963938616139297207
34,463.244138717952332363155222783445993,462.0,1.244138717952332363155222783445993
35,490.850002289919504730173827480246521,489.6,1.250002289919504730173827480246521
36,519.255699473396292736198092093410609,518.0,1.255699473396292736198092093410609
37,548.461239466909767216128641641489992,547.2,1.261239466909767216128641641489992
38,578.466630725815115145442692359765608,577.2,1.266630725815115145442692359765608
39,609.271881040319986966684159373947142,608.0,1.271881040319986966684159373947142
40,640.876997603525156969418945651155096,639.6,1.276997603525156969418945651155096
41,673.281987070976828153911321554637258,672.0,1.281987070976828153911321554637258
42,706.486855612970920407370039154001352,705.2,1.286855612970920407370039154001352
43,740.491608960643194476775957721821870,739.2,1.291608960643194476775957721821870
44,775.296252446710970206863594600372811,774.0,1.296252446710970206863594600372811
45,810.900791041594627942885076619037564,809.6,1.300791041594627942885076619037564
46,847.305229385533945715235283618014934,846.0,1.305229385533945715235283618014934
47,884.509571817220848210721852159103452,883.2,1.309571817220848210721852159103452
48,922.513822399392557171045697513470364,921.2,1.313822399392557171045697513470364
49,961.317984941764470315186374042465562,960.0,1.317984941764470315186374042465562
50,1000.92206302162797316875429904606618,999.6,1.32206302162797316875429904606618
51,1041.32606000239292122091687688811509,1040.0,1.32606000239292122091687688811509
52,1082.52997905031618461522091367320442,1081.2,1.32997905031618461522091367320442
53,1124.53382314962519746210005600549941,1123.2,1.33382314962519746210005600549941
54,1167.33759511621789272941025598733810,1166.0,1.33759511621789272941025598733810
55,1210.94129761009692817483328877821705,1209.6,1.34129761009692817483328877821705
56,1255.34493314667603421387065495184507,1254.0,1.34493314667603421387065495184507
57,1300.54850410707911565203763100314107,1299.2,1.34850410707911565203763100314107
58,1346.55201274753794202358163040647871,1345.2,1.35201274753794202358163040647871
59,1393.35546120798150733177873580755852,1392.0,1.35546120798150733177873580755852
60,1440.95885151989911547816387896694171,1439.6,1.35885151989911547816387896694171
61,1489.36218561354968344054910151583876,1488.0,1.36218561354968344054910151583876
62,1538.56546532458145325457379571235996,1537.2,1.36546532458145325457379571235996
63,1588.56869240011906196451289835386756,1587.2,1.36869240011906196451289835386756
64,1639.37186850436860622914915722056311,1638.0,1.37186850436860622914915722056311
65,1690.97499522378580342854460056698515,1689.6,1.37499522378580342854460056698515
66,1743.37807407184750377849409652406436,1742.0,1.37807407184750377849409652406436
67,1796.58110649346254566811942567399787,1795.2,1.38110649346254566811942567399787
68,1850.58409386905419027525507032925778,1849.2,1.38409386905419027525507032925778
69,1905.38703751834305884355113612561778,1904.0,1.38703751834305884355113612561778
70,1960.98993870385656773695600419366566,1959.6,1.38993870385656773695600419366566
71,2017.39279863418825768351067122571558,2016.0,1.39279863418825768351067122571558
72,2074.59561846702811537800800865639462,2073.2,1.39561846702811537800800865639462
73,2132.59839931198293260666700072318927,2131.2,1.39839931198293260666700072318927
74,2191.40114223320392920842004470118407,2190.0,1.40114223320392920842004470118407
75,2251.00384825183723508630869876878687,2249.6,1.40384825183723508630869876878687
76,2311.40651834831137692572859290641074,2310.0,1.40651834831137692572859290641074
77,2372.60915346447461287784633670710510,2371.2,1.40915346447461287784633670710510
78,2434.61175450559379266833145908482895,2433.2,1.41175450559379266833145908482895
79,2497.41432234222537377155441426168361,2496.0,1.41432234222537377155441426168361
80,2561.01685781196828616475756256585452,2559.6,1.41685781196828616475756256585452
81,2625.41936172110748883522948963273618,2624.0,1.41936172110748883522948963273618
82,2690.62183484615629976295982948171319,2689.2,1.42183484615629976295982948171319
83,2756.62427793530489236746220411223974,2755.2,1.42427793530489236746220411223974
84,2823.42669170978172711573688957130456,2822.0,1.42669170978172711573688957130456
85,2891.02907686513412771217125345634850,2889.6,1.42907686513412771217125345634850
86,2959.43143407243369542578686551458342,2958.0,1.43143407243369542578686551458342
87,3028.63376397941179763944226963923907,3027.2,1.43376397941179763944226963923907
88,3098.63606721152994332786492825064923,3097.2,1.43606721152994332786492825064923
89,3169.43834437298947466922435594958409,3168.0,1.43834437298947466922435594958409
90,3241.04059604768466077822924771258301,3239.6,1.44059604768466077822924771258301
91,3313.44282280010295809668076536571728,3312.0,1.44282280010295809668076536571728
92,3386.64502517617591367987511472677061,3385.2,1.44502517617591367987511472677061
93,3460.64720370408392536219289514076300,3459.2,1.44720370408392536219289514076300
94,3535.44935889501782985647468548012109,3534.0,1.44935889501782985647468548012109
95,3611.05149124390006868775331394874246,3609.6,1.45149124390006868775331394874246
96,3687.45360123006798003979696073551412,3686.0,1.45360123006798003979696073551412
97,3764.65568931792158025080747223730327,3763.2,1.45568931792158025080747223730327
98,3842.65775595753802582032385227116380,3841.2,1.45775595753802582032385227116380
99,3921.45980158525479331719149246883570,3920.0,1.45980158525479331719149246883570
100,4001.06182662422346823804194064651158,3999.6,1.46182662422346823804194064651158
101,4081.46383148493590456157331365222048,4080.0,1.46383148493590456157331365222048
102,4162.66581656572439116920054471847363,4161.2,1.46581656572439116920054471847363
103,4244.66778225323735338903177603415859,4243.2,1.46778225323735338903177603415859
104,4327.46972892289201065541663813609631,4326.0,1.46972892289201065541663813609631
105,4411.07165693930531820255557612950206,4409.6,1.47165693930531820255557612950206
106,4495.47356665670442994641539443627279,4494.0,1.47356665670442994641539443627279
107,4580.67545841931784162724094437353444,4579.2,1.47545841931784162724094437353444
108,4666.67733256174829404539847968053415,4665.2,1.47733256174829404539847968053415
109,4753.47918940932844762975197260008331,4752.0,1.47918940932844762975197260008331
110,4841.08102927846027715764876847468089,4839.6,1.48102927846027715764876847468089
111,4929.48285247693906958439230646950859,4928.0,1.48285247693906958439230646950859
112,5018.68465930426285850644623369320549,5017.2,1.48465930426285850644623369320549
113,5108.68645005192807324682019362199403,5107.2,1.48645005192807324682019362199403
114,5199.48822500371213179333115406779948,5198.0,1.48822500371213179333115406779948
115,5291.08998443594366637193163477171709,5289.6,1.48998443594366637193163477171709
116,5383.49172861776102210564797189451194,5382.0,1.49172861776102210564797189451194
117,5476.69345781135963749666498376614870,5475.2,1.49345781135963749666498376614870
118,5570.69517227222887443798779909924015,5569.2,1.49517227222887443798779909924015
119,5665.49687224937883174739542047565971,5664.0,1.49687224937883174739542047565971
120,5761.09855798555765037416547813087763,5759.6,1.49855798555765037416547813087763
121,5857.50022971745978016180550649653686,5856.0,1.50022971745978016180550649653686
122,5954.70188767592565913689326188914397,5953.2,1.50188767592565913689326188914397
123,6052.70353208613322410119657825753083,6051.2,1.50353208613322410119657825753083
124,6151.50516316778165362443464854252801,6150.0,1.50516316778165362443464854252801
125,6251.10678113526771496877944842244509,6249.6,1.50678113526771496877944842244509
126,6351.50838619785507127889852725004284,6350.0,1.50838619785507127889852725004284
127,6452.70997855983688479345394972166446,6451.2,1.50997855983688479345394972166446
128,6554.71155842069202924678228430506433,6553.2,1.51155842069202924678228430506433
129,6657.51312597523521255624247652640411,6656.0,1.51312597523521255624247652640411
130,6761.11468141376129250885112594739736,6759.6,1.51468141376129250885112594739736
131,6865.51622492218405275670662468529550,6864.0,1.51622492218405275670662468529550
132,6970.71775668216969145350276627290479,6969.2,1.51775668216969145350276627290479
133,7076.71927687126526308284871613287427,7075.2,1.51927687126526308284871613287427
134,7183.52078566302230275315295901170418,7182.0,1.52078566302230275315295901170418
135,7291.12228322711584412548669635943740,7289.6,1.52228322711584412548669635943740
136,7399.52376972945903845331179318670733,7398.0,1.52376972945903845331179318670733
137,7508.72524533231356890501448078825836,7507.2,1.52524533231356890501448078825836
138,7618.72671019439604072819578015411687,7617.2,1.52671019439604072819578015411687
139,7729.52816447098052570876379852710360,7728.0,1.52816447098052570876379852710360
140,7841.12960831399742393190476462547362,7839.6,1.52960831399742393190476462547362
141,7953.53104187212880129451992110942199,7952.0,1.53104187212880129451992110942199
142,8066.73246529090035314544799790964487,8065.2,1.53246529090035314544799790964487
143,8180.73387871277013577962396528707565,8179.2,1.53387871277013577962396528707565
144,8295.53528227721420033268761788035555,8294.0,1.53528227721420033268761788035555
145,8411.13667612080925943479659340470510,8409.6,1.53667612080925943479659340470510
146,8527.53806037731250911364730321939049,8526.0,1.53806037731250911364730321939049
147,8644.73943517773872023374141002553387,8643.2,1.53943517773872023374141002553387
148,8762.74080065043471480090216395869391,8761.2,1.54080065043471480090216395869391
149,8881.54215692115132893297038917690375,8880.0,1.54215692115132893297038917690375
150,9001.14350411311296613753314366467675,8999.6,1.54350411311296613753314366467675
151,9121.54484234708483681091373284089384,9120.0,1.54484234708483681091373284089384
152,9242.74617174143797425756768923596034,9241.2,1.54617174143797425756768923596034
153,9364.74749241221211617955221193321282,9363.2,1.54749241221211617955221193321282
154,9487.54880447317653553528488034321858,9486.0,1.54880447317653553528488034321858
155,9611.15010803588889900355742224599103,9609.6,1.55010803588889900355742224599103
156,9735.55140320975223091914035883857931,9734.0,1.55140320975223091914035883857931
157,9860.75269010207005372655446726734612,9859.2,1.55269010207005372655446726734612
158,9986.75396881809977677008217756157155,9985.2,1.55396881809977677008217756157155
159,10113.5552394611043970928243707955842,10112.0,1.5552394611043970928243707955842
160,10241.1565021324025785823120717592836,10239.6,1.5565021324025785823120717592836
161,10369.5577569314171679587639353509739,10368.0,1.5577569314171679587639353509739
162,10498.7590039557222070670606851198291,10497.2,1.5590039557222070670606851198291
163,10628.7602433010884963257058563919925,10627.2,1.5602433010884963257058563919925
164,10759.5614750615277639693375100359209,10758.0,1.5614750615277639693375100359209
165,10891.1626993293354896849783905156691,10889.6,1.5626993293354896849783905156691
166,11023.5639161951324331575833064984756,11022.0,1.5639161951324331575833064984756
167,11156.7651257479049147571728461948208,11155.2,1.5651257479049147571728461948208
168,11290.7663280750438910564366839365992,11289.2,1.5663280750438910564366839365992
169,11425.5675232623828702408671427370485,11424.0,1.5675232623828702408671427370485
170,11561.1687113942347071545081983170018,11559.6,1.5687113942347071545081983170018
171,11697.5698925534273181757507662104485,11696.0,1.5698925534273181757507662104485
172,11834.7710668213383537898017294152676,11833.2,1.5710668213383537898017294152676
173,11972.7722342779288642601274156515086,11971.2,1.5722342779288642601274156515086
174,12111.5733950017759942423550843645111,12110.0,1.5733950017759942423550843645111
175,12251.1745490701047403255352082618918,12249.6,1.5745490701047403255352082618918
176,12391.5756965588188012070870514822690,12390.0,1.5756965588188012070870514822690
177,12532.7768375425305537619346724531791,12531.2,1.5768375425305537619346724531791
178,12674.7779720945901841601991912949909,12673.2,1.5779720945901841601991912949909
179,12817.5791002871140004783627420963820,12816.0,1.5791002871140004783627420963820
180,12961.1802221910119577502725810988442,12959.6,1.5802221910119577502725810988442
181,13105.5813378760144181065410826681293,13104.0,1.5813378760144181065410826681293
182,13250.7824474106981736976965238667554,13249.2,1.5824474106981736976965238667554
183,13396.7835508625117554503279787565789,13395.2,1.5835508625117554503279787565789
184,13543.5846482978000518977298691430314,13542.0,1.5846482978000518977298691430314
185,13691.1857397818282598931386286625043,13689.6,1.5857397818282598931386286625043
186,13839.5868253788051881741503745733539,13838.0,1.5868253788051881741503745733539
187,13988.7879051519059375787857701281255,13987.2,1.5879051519059375787857701281255
188,14138.7889791632939733494857243069864,14137.2,1.5889791632939733494857243069864
189,14289.5900474741426132560943983743330,14288.0,1.5900474741426132560943983743330
190,14441.1911101446559471888729397192487,14439.6,1.5911101446559471888729397192487
191,14593.5921672340892074440611917327522,14592.0,1.5921672340892074440611917327522
192,14746.7932188007686060841549591672832,14745.2,1.5932188007686060841549591672832
193,14900.7942649021106576767109436459307,14899.2,1.5942649021106576767109436459307
194,15055.5953055946410007524252962099911,15054.0,1.5953055946410007524252962099911
195,15211.1963409340127359148075293319513,15209.6,1.5963409340127359148075293319513
196,15367.5973709750242942933119073568778,15366.0,1.5973709750242942933119073568778
197,15524.7983957716368507152091336357422,15523.2,1.5983957716368507152091336357422
198,15682.7994153769912957581390736357034,15681.2,1.5994153769912957581390736357034
199,15841.6004298434247795171593592820681,15840.0,1.6004298434247795171593592820681
200,16001.2014392224868410264505633921297,15999.6,1.6014392224868410264505633921297
201,16161.6024435649551343120562144850904,16160.0,1.6024435649551343120562144850904
202,16322.8034429208507644517682811524624,16321.2,1.6034429208507644517682811524624
203,16484.8044373394532442968399698679423,16483.2,1.6044373394532442968399698679423
204,16647.6054268693150834703865241380007,16646.0,1.6054268693150834703865241380007
205,16811.2064115582760196077858608277268,16809.6,1.6064115582760196077858608277268
206,16975.6073914534769048577751098029378,16974.0,1.6073914534769048577751098029378
207,17140.8083666013732535148682601182593,17139.2,1.6083666013732535148682601182593
208,17306.8093370477484650044988990653194,17305.2,1.6093370477484650044988990653194
209,17473.6103028377267279637151316453748,17472.0,1.6103028377267279637151316453748
210,17641.2112640157856169130251514086448,17639.6,1.6112640157856169130251514086448
211,17809.6122206257683888783493523172795,17808.0,1.6122206257683888783493523172795
212,17978.8131727108959901902005791211666,17977.2,1.6131727108959901902005791211666
213,18148.8141203137787778379796485598368,18147.2,1.6141203137787778379796485598368
214,18319.6150634764279703550694649946707,18318.0,1.6150634764279703550694649946707
215,18491.2160022402668274409515383095913,18489.6,1.6160022402668274409515383095913
216,18663.6169366461415722747949594170830,18662.0,1.6169366461415722747949594170830
217,18836.8178667343320604795526684263809,18835.2,1.6178667343320604795526684263809
218,19010.8187925445622047090073285695363,19009.2,1.6187925445622047090073285695363
219,19185.6197141160101581306949166651546,19184.0,1.6197141160101581306949166651546
220,19361.2206314873182693128262378030848,19359.6,1.6206314873182693128262378030848
221,19537.6215446966028064174881358267954,19536.0,1.6215446966028064174881358267954
222,19714.8224537814634678974818733902611,19713.2,1.6224537814634678974818733902611
223,19892.8233587789926732576218064992232,19891.2,1.6233587789926732576218064992232
224,20071.6242597257846489397842676618189,20070.0,1.6242597257846489397842676618189
225,20251.2251566579443118882407244137312,20249.6,1.6251566579443118882407244137312
226,20431.6260496110959543332078173444298,20430.0,1.6260496110959543332078173444298
227,20612.8269386203917384354520583171217,20611.2,1.6269386203917384354520583171217
228,20794.8278237205200026021399336774397,20793.2,1.6278237205200026021399336774397
229,20977.6287049457133866260681533893168,20976.0,1.6287049457133866260681533893168
230,21161.2295823297567803345016619664790,21159.6,1.6295823297567803345016619664790
231,21345.6304559059950975368732569526988,21344.0,1.6304559059950975368732569526988
232,21530.8313257073408856802486177630206,21529.2,1.6313257073408856802486177630206
233,21716.8321917662817661980443111496043,21715.2,1.6321917662817661980443111496043
234,21903.6330541148877216980474375488693,21902.0,1.6330541148877216980474375488693
235,22091.2339127848182231608197421510755,22089.6,1.6339127848182231608197421510755
236,22279.6347678073292068472369644373805,22278.0,1.6347678073292068472369644373805
237,22468.8356192132799045352724843197074,22467.2,1.6356192132799045352724843197074
238,22658.8364670331395288170185045669413,22657.2,1.6364670331395288170185045669413
