Eigenstate,Energy,Kinetic Energy,Potential Energy
1,0.500000000112777125155110127022518840,0.0,0.500000000112777125155110127022518840
2,1.84623093838726736655965161489018401,1.2,0.64623093838726736655965161489018401
3,3.93633761186737592700467667017046114,3.2,0.73633761186737592700467667017046114
4,6.79966528231830323372076899031397867,6.0,0.79966528231830323372076899031397867
5,10.4480465830877167969876447742993950,9.6,0.8480465830877167969876447742993950
6,14.8870660089433375951161340528456226,14.0,0.8870660089433375951161340528456226
7,20.1197208413294947925005877797277869,19.2,0.9197208413294947925005877797277869
8,26.1477838666264271238553543598794633,25.2,0.9477838666264271238553543598794633
9,32.9723835838423794709483049052393852,32.0,0.9723835838423794709483049052393852
10,40.5942802471272200393157708371133471,39.6,0.9942802471272200393157708371133471
11,49.0140094266229245893826511491787958,48.0,1.0140094266229245893826511491787958
12,58.2319622176348584615196581073883420,57.2,1.0319622176348584615196581073883420
13,68.2484327502294502559529914790887737,67.2,1.0484327502294502559529914790887737
14,79.0636477220904004907565763674243076,78.0,1.0636477220904004907565763674243076
15,90.6777855143328949259294518531559753,89.6,1.0777855143328949259294518531559753
16,103.090988996374067566652973913478129,102.0,1.090988996374067566652973913478129
17,116.303374359394516773756898264106860,115.2,1.103374359394516773756898264106860
18,130.315037367344512718056805167416594,129.2,1.115037367344512718056805167416594
19,145.126057880047980577702586415423644,144.0,1.126057880047980577702586415423644
20,160.736503190836440969871610922038163,159.6,1.136503190836440969871610922038163
21,177.146430532630710040499529370926016,176.0,1.146430532630710040499529370926016
22,194.355888989099641762467162017127837,193.2,1.155888989099641762467162017127837
23,212.364920972596654228966087006469107,211.2,1.164920972596654228966087006469107
24,231.173563381560153072788035884572498,230.0,1.173563381560153072788035884572498
25,250.781848517309458842737653018630465,249.6,1.181848517309458842737653018630465
26,271.189804817852395535746756853078523,270.0,1.189804817852395535746756853078523
27,292.397457450847867061835240568677701,291.2,1.197457450847867061835240568677701
28,314.404828796964897596146297279975623,313.2,1.204828796964897596146297279975623
29,337.211938847084583941225222123823614,336.0,1.211938847084583941225222123823614
30,360.818805531141920446695646619528942,359.6,1.218805531141920446695646619528942
31,385.225444992258518528620234482974166,384.0,1.225444992258518528620234482974166
32,410.431871816739343242653785984119946,409.2,1.231871816739343242653785984119946
33,436.438099228196941558449809528959475,435.2,1.238099228196941558449809528959475
34,463.244139252316090714775730894021247,462.0,1.244139252316090714775730894021247
35,490.850002857432599967723227592605714,489.6,1.250002857432599967723227592605714
36,519.255700075066520164829564618533374,518.0,1.255700075066520164829564618533374
37,548.461240103745931028641285642860361,547.2,1.261240103745931028641285642860361
38,578.466631398827057289526757602926144,577.2,1.266631398827057289526757602926144
39,609.271881750518616157578667745942426,608.0,1.271881750518616157578667745942426
40,640.876998351922477839556128838665080,639.6,1.276998351922477839556128838665080
41,673.281987858585970532824840100527283,672.0,1.281987858585970532824840100527283
42,706.486856440806168726536535632786163,705.2,1.286856440806168726536535632786163
43,740.491609829720017295205058791278667,739.2,1.291609829720017295205058791278667
44,775.296253358046049854198985055380719,774.0,1.296253358046049854198985055380719
45,810.900791996205890277567700570701807,809.6,1.300791996205890277567700570701807
46,847.305230384440589995938962036638462,846.0,1.305230384440589995938962036638462
47,884.509572861443377079825472774828792,883.2,1.309572861443377079825472774828792
48,922.513823489952806749374368379384559,921.2,1.313823489952806749374368379384559
49,961.317986079685640407651119520004632,960.0,1.317986079685640407651119520004632
50,1000.92206420793465758085864310440680,999.6,1.32206420793465758085864310440680
51,1041.32606123811113818638934772604017,1040.0,1.32606123811113818638934772604017
52,1082.52998033647340733528242029646094,1081.2,1.32998033647340733528242029646094
53,1124.53382448725038475709150943412898,1123.2,1.33382448725038475709150943412898
54,1167.33759650634151980369404139211128,1166.0,1.33759650634151980369404139211128
55,1210.94129905375101749604646515342538,1209.6,1.34129905375101749604646515342538
56,1255.34493464489418650775208463664616,1254.0,1.34493464489418650775208463664616
57,1300.54850566089654101417831541637574,1299.2,1.34850566089654101417831541637574
58,1346.55201435799149114956080141555369,1345.2,1.35201435799149114956080141555369
59,1393.35546287610970286724824333615654,1392.0,1.35546287610970286724824333615654
60,1440.95885324674218349053382578054323,1439.6,1.35885324674218349053382578054323
61,1489.36218740014958501400858917712550,1488.0,1.36218740014958501400858917712550
62,1538.56546717198191621025423820786021,1537.2,1.36546717198191621025423820786021
63,1588.56869430936561270766798083485008,1587.2,1.36869430936561270766798083485008
64,1639.37187047650860172528658836900089,1638.0,1.37187047650860172528658836900089
65,1690.97499725986846331050138104699793,1689.6,1.37499725986846331050138104699793
66,1743.37807617292394258649878687194612,1742.0,1.37807617292394258649878687194612
67,1796.58110866058580522493340167808764,1795.2,1.38110866058580522493340167808764
68,1850.58409610327927219853004041923941,1849.2,1.38409610327927219853004041923941
69,1905.38703982072695719758310427084501,1904.0,1.38703982072695719758310427084501
70,1960.98994107545830182605544581981218,1959.6,1.38994107545830182605544581981218
71,2017.39280107606890498924790166533564,2016.0,1.39280107606890498924790166533564
72,2074.59562098025084464262836141207962,2073.2,1.39562098025084464262836141207962
73,2132.59840189761303706500629551993336,2131.2,1.39840189761303706500629551993336
74,2191.40114489230885997068412163810585,2190.0,1.40114489230885997068412163810585
75,2251.00385098548663467411399084409858,2249.6,1.40385098548663467411399084409858
76,2311.40652115757711296383203797208834,2310.0,1.40652115757711296383203797208834
77,2372.60915635043081194402445161368797,2371.2,1.40915635043081194402445161368797
78,2434.61175746931687430389867092508615,2433.2,1.41175746931687430389867092508615
79,2497.41432538479408465504074782420360,2496.0,1.41432538479408465504074782420360
80,2561.01686093446373445129498088499474,2559.6,1.41686093446373445129498088499474
81,2625.41936492461317866422575152295684,2624.0,1.41936492461317866422575152295684
82,2690.62183813175816593666741058938677,2689.2,1.42183813175816593666741058938677
83,2756.62428130409133520307851855169137,2755.2,1.42428130409133520307851855169137
84,2823.42669516284364747370067516567164,2822.0,1.42669516284364747370067516567164
85,2891.02908040356496220334863974829914,2889.6,1.42908040356496220334863974829914
86,2959.43143769732945180026881549743809,2958.0,1.43143769732945180026881549743809
87,3028.63376769187109035970414765268579,3027.2,1.43376769187109035970414765268579
88,3098.63607101265402932906716598973491,3097.2,1.43607101265402932906716598973491
89,3169.43834826388228930946205431889586,3168.0,1.43834826388228930946205431889586
90,3241.04060002945285398156732777742450,3239.6,1.44060002945285398156732777742450
91,3313.44282687385593069184075069182888,3312.0,1.44282687385593069184075069182888
92,3386.64502934302585393746834344550312,3385.2,1.44502934302585393746834344550312
93,3460.64720796514584573342491646384241,3459.2,1.44720796514584573342491646384241
94,3535.44936325140960391627521375691253,3534.0,1.44936325140960391627521375691253
95,3611.05149569674246828531623688469419,3609.6,1.45149569674246828531623688469419
96,3687.45360578048471265954509597290852,3686.0,1.45360578048471265954509597290852
97,3764.65569396703932658682791899242958,3763.2,1.45569396703932658682791899242958
98,3842.65776070648647756735021584395772,3841.2,1.45776070648647756735021584395772
99,3921.45980643516669118124141464146349,3920.0,1.45980643516669118124141464146349
100,4001.06183157623464016984948479121535,3999.6,1.46183157623464016984948479121535
101,4081.46383654018530421598859474396541,4080.0,1.46383654018530421598859474396541
102,4162.66582172535413659376120632699682,4161.2,1.46582172535413659376120632699682
103,4244.66778751839276594494381600394028,4243.2,1.46778751839276594494381600394028
104,4327.46973429472165417421656196477967,4326.0,1.46973429472165417421656196477967
105,4411.07166241896103838175861437017998,4409.6,1.47166241896103838175861437017998
106,4495.47357224534139398748978705207099,4494.0,1.47357224534139398748978705207099
107,4580.67546411809457811928289913620781,4579.2,1.47546411809457811928289913620781
108,4666.67733837182673309791785152740419,4665.2,1.47733837182673309791785152740419
109,4753.47919533187396125801496390519756,4752.0,1.47919533187396125801496390519756
110,4841.08103531464171992405996061043069,4839.6,1.48103531464171992405996061043069
111,4929.48285862792881949943567728518882,4928.0,1.48285862792881949943567728518882
112,5018.68466557123685819274234101950927,5017.2,1.48466557123685819274234101950927
113,5108.68645643606587136989469691586860,5107.2,1.48645643606587136989469691586860
114,5199.48823150619692476272866378807520,5198.0,1.48823150619692476272866378807520
115,5291.08999105796234031634812502641867,5289.6,1.48999105796234031634812502641867
116,5383.49173536050419512579486756500140,5382.0,1.49173536050419512579486756500140
117,5476.69346467602170219961853362509012,5475.2,1.49346467602170219961853362509012
118,5570.69517926000804075681846939604243,5569.2,1.49517926000804075681846939604243
119,5665.49687936147717004991359784795920,5664.0,1.49687936147717004991359784795920
120,5761.09856522318113486466262153213288,5759.6,1.49856522318113486466262153213288
121,5857.50023708181833257971244035703477,5856.0,1.50023708181833257971244035703477
122,5954.70189516823319275632119387652238,5953.2,1.50189516823319275632119387652238
123,6052.70353970760768803537092278364748,6051.2,1.50353970760768803537092278364748
124,6151.50517091964507743907654737003201,6150.0,1.50517091964507743907654737003201
125,6251.10678901874625360853599573904475,6249.6,1.50678901874625360853599573904475
126,6351.50839421417905031096891487503051,6350.0,1.50839421417905031096891487503051
127,6452.70998671024084597260612659160407,6451.2,1.50998671024084597260612659160407
128,6554.71156670641477640600273662868459,6553.2,1.51156670641477640600273662868459
129,6657.51313439751985782731026401805988,6656.0,1.51313439751985782731026401805988
130,6761.11468997385530287717689138194146,6759.6,1.51468997385530287717689138194146
131,6865.51623362133929695482756334915669,6864.0,1.51623362133929695482756334915669
132,6970.71776552164248719767601283349610,6969.2,1.51776552164248719767601283349610
133,7076.71928585231642465723626796189751,7075.2,1.51928585231642465723626796189751
134,7183.52079478691718894614548436452562,7182.0,1.52079478691718894614548436452562
135,7291.12229249512440652276614224282611,7289.6,1.52229249512440652276614224282611
136,7399.52377914285587009230688994659126,7398.0,1.52377914285587009230688994659126
137,7508.72525489237795329545939732943097,7507.2,1.52525489237795329545939732943097
138,7618.72671990241200124355747843881669,7617.2,1.52671990241200124355747843881669
139,7729.52817432823687535336089374469212,7728.0,1.52817432823687535336089374469212
140,7841.12961832178781548859887967451922,7839.6,1.52961832178781548859887967451922
141,7953.53105203175177785791855499752111,7952.0,1.53105203175177785791855499752111
142,8066.73247560365939904561867354622097,8065.2,1.53247560365939904561867354622097
143,8180.73388917997372790137941987970540,8179.2,1.53388917997372790137941987970540
144,8295.53529290017585983556392879022257,8294.0,1.53529290017585983556392879022257
145,8411.13668690084760387890829376926226,8409.6,1.53668690084760387890829376926226
146,8527.53807131575130499666783877046691,8526.0,1.53807131575130499666783877046691
147,8644.73944627590693594432156254894196,8643.2,1.53944627590693594432156254894196
148,8762.74081190966657399390456180052522,8761.2,1.54081190966657399390456180052522
149,8881.54216834278636433196610181592801,8880.0,1.54216834278636433196610181592801
150,9001.14351569849607377007225406599880,8999.6,1.54351569849607377007225406599880
151,9121.54485409756633068215314522782920,9120.0,1.54485409756633068215314522782920
152,9242.74618365837364146790740018757326,9241.2,1.54618365837364146790740018757326
153,9364.74750449696327249200366988756333,9363.2,1.54750449696327249200366988756333
154,9487.54881672711008139836670717848434,9486.0,1.54881672711008139836670717848434
155,9611.15012046037737603558762533663465,9609.6,1.55012046037737603558762533663465
156,9735.55141580617387885986927576161122,9734.0,1.55141580617387885986927576161122
157,9860.75270287180886786215720044413068,9859.2,1.55270287180886786215720044413068
158,9986.75398176254556583760791634506800,9985.2,1.55398176254556583760791634506800
159,10113.5552525816528416702773063931232,10112.0,1.5552525816528416702773063931232
160,10241.1565154304552899706188489627965,10239.6,1.5565154304552899706188489627965
161,10369.5577704083817475619631841046948,10368.0,1.5577704083817475619631841046948
162,10498.7590176130123062771327628025336,10497.2,1.5590176130123062771327628025336
163,10628.7602571401238769185438485452943,10627.2,1.5602571401238769185438485452943
164,10759.5614890837343590184460885670836,10758.0,1.5614890837343590184460885670836
165,10891.1627135361454649995736801997674,10889.6,1.5627135361454649995736801997674
166,11023.5639305879842492518538189612764,11022.0,1.5639305879842492518538189612764
167,11156.7651403282433893575511482396706,11155.2,1.5651403282433893575511482396706
168,11290.7663428443202621538222694660053,11289.2,1.5663428443202621538222694660053
169,11425.5675382220548596948329161464359,11424.0,1.5675382220548596948329161464359
170,11561.1687265457665848566166867012507,11559.6,1.5687265457665848566166867012507
171,11697.5699078982899667792013534811937,11696.0,1.5699078982899667792013534811937
172,11834.7710823610093340127269265668396,11833.2,1.5710823610093340127269265668396
173,11972.7722500138924807699539163429318,11971.2,1.5722500138924807699539163429318
174,12111.5734109355233621287469652067548,12110.0,1.5734109355233621287469652067548
175,12251.1745652031338521695363858569660,12249.6,1.5745652031338521695363858569660
176,12391.5757128926345947541846939800390,12390.0,1.5757128926345947541846939800390
177,12532.7768540786449802068696243359841,12531.2,1.5768540786449802068696243359841
178,12674.7779888345222770514562036013647,12673.2,1.5779888345222770514562036013647
179,12817.5791172323899452503824253500672,12816.0,1.5791172323899452503824253500672
180,12961.1802393431651618915369706167263,12959.6,1.5802393431651618915369706167263
181,13105.5813552365855819717966773839229,13104.0,1.5813552365855819717966773839229
182,13250.7824649812353619726929910752395,13249.2,1.5824649812353619726929910752395
183,13396.7835686445704692775666319129481,13395.2,1.5835686445704692775666319129481
184,13543.5846662929433016718339637521039,13542.0,1.5846662929433016718339637521039
185,13691.1857579916266387345780512858643,13689.6,1.5857579916266387345780512858643
186,13839.5868438048369460901731788808375,13838.0,1.5868438048369460901731788808375
187,13988.7879237957570563205356291888367,13987.2,1.5879237957570563205356291888367
188,14138.7889980265582419744086429717691,14137.2,1.5889980265582419744086429717691
189,14289.5900665584217044048668399260876,14288.0,1.5900665584217044048668399260876
190,14441.1911294515594940862136546186489,14439.6,1.5911294515594940862136546186489
191,14593.5921867652348816329220859179027,14592.0,1.5921867652348816329220859179027
192,14746.7932385577821959029205087626524,14745.2,1.5932385577821959029205087626524
193,14900.7942848866261474891734024934121,14899.2,1.5942848866261474891734024934121
194,15055.5953258083006509404417523318862,15054.0,1.5953258083006509404417523318862
195,15211.1963613784671636436874400459792,15209.6,1.5963613784671636436874400459792
196,15367.5973916519325550601273315725420,15366.0,1.5973916519325550601273315725420
197,15524.7984166826665206903670417953459,15523.2,1.5984166826665206903670417953459
198,15682.7994365238185549307041599948191,15681.2,1.5994365238185549307041599948191
199,15841.6004512277344956545680801592025,15840.0,1.6004512277344956545680801592025
200,16001.2014608459726544594108917357514,15999.6,1.6014608459726544594108917357514
201,16161.6024654293195435555844570481727,16160.0,1.6024654293195435555844570481727
202,16322.8034650278052126734763360325097,16321.2,1.6034650278052126734763360325097
203,16484.8044596907182066437453003313281,16483.2,1.6044596907182066437453003313281
204,16647.6054494666201552656865369125830,16646.0,1.6054494666201552656865369125830
205,16811.2064344033600054292032320196176,16809.6,1.6064344033600054292032320196176
206,16975.6074145480879085092541322634162,16974.0,1.6074145480879085092541322634162
207,17140.8083899472687689035757491922769,17139.2,1.6083899472687689035757491922769
208,17306.8093606466954679352601045461881,17305.2,1.6093606466954679352601045461881
209,17473.6103266915017688631961107407679,17472.0,1.6103266915017688631961107407679
210,17641.2112881261749144961565831048264,17639.6,1.6112881261749144961565831048264
211,17809.6122449945679247696725411603160,17808.0,1.6122449945679247696725411603160
212,17978.8131973399116045130076470653081,17977.2,1.6131973399116045130076470653081
213,18148.8141452048262657843133899313523,18147.2,1.6141452048262657843133899313523
214,18319.6150886313331797498439659914540,18318.0,1.6150886313331797498439659914540
215,18491.2160276608657573136561814373038,18489.6,1.6160276608657573136561814373038
216,18663.6169623342804724524481341215658,18662.0,1.6169623342804724524481341215658
217,18836.8178926918675322147785270355954,18835.2,1.6178926918675322147785270355954
218,19010.8188187733613023573202910717404,19009.2,1.6188187733613023573202910717404
219,19185.6197406179504918912929995494761,19184.0,1.6197406179504918912929995494761
220,19361.2206582642881090474106487285488,19359.6,1.6206582642881090474106487285488
221,19537.6215717505011865618516848069162,19536.0,1.6215717505011865618516848069162
222,19714.8224811142002934808345130786010,19713.2,1.6224811142002934808345130786010
223,19892.8233863924888270448524373686697,19891.2,1.6233863924888270448524373686697
224,20071.6242876219720997120934985838042,20070.0,1.6242876219720997120934985838042
225,20251.2251848387662238778184277955490,20249.6,1.6251848387662238778184277955490
226,20431.6260780785067978278732085543338,20430.0,1.6260780785067978278732085543338
227,20612.8269673763574015694210292797467,20611.2,1.6269673763574015694210292797467
228,20794.8278527670179043493391636538790,20793.2,1.6278527670179043493391636538790
229,20977.6287342847325910126710220380376,20976.0,1.6287342847325910126710220380376
230,21161.2296119632981118876229392616562,21159.6,1.6296119632981118876229392616562
231,21345.6304858360712579866276097590383,21344.0,1.6304858360712579866276097590383
232,21530.8313559359765719326487382839958,21529.2,1.6313559359765719326487382839958
233,21716.8322222955137895964911686916203,21715.2,1.6322222955137895964911686916203
234,21903.6330849467651285914476366325519,21902.0,1.6330849467651285914476366325519
235,22091.2339439214024167966506937712783,22089.6,1.6339439214024167966506937712783
236,22279.6347992506940706081743373026311,22278.0,1.6347992506940706081743373026311
237,22468.8356509655119265382912092117753,22467.2,1.6356509655119265382912092117753
238,22658.8364990963379278941826440871202,22657.2,1.6364990963379278941826440871202
