Eigenstate,Energy,Kinetic Energy,Potential Energy
1,0.500000000035804157665410945777637830,0.0,0.500000000035804157665410945777637830
2,1.84623093788482545839904298968610515,1.2,0.64623093788482545839904298968610515
3,3.93633761039148200787384828081102423,3.2,0.73633761039148200787384828081102423
4,6.79966527924415231796755447574394315,6.0,0.79966527924415231796755447574394315
5,10.4480465777625867985458961015089361,9.6,0.8480465777625867985458961015089361
6,14.8870660007030376691782234753772766,14.0,0.8870660007030376691782234753772766
7,20.1197208295044193316400804196333520,19.2,0.9197208295044193316400804196333520
8,26.1477838505440745637147379041182774,25.2,0.9477838505440745637147379041182774
9,32.9723835628285180595942129901288431,32.0,0.9723835628285180595942129901288431
10,40.5942802205064744678928570697941376,39.6,0.9942802205064744678928570697941376
11,49.0140093937190899838375970836724627,48.0,1.0140093937190899838375970836724627
12,58.2319621777710754348248439683775494,57.2,1.0319621777710754348248439683775494
13,68.2484327027283043142668808290849608,67.2,1.0484327027283043142668808290849608
14,79.0636476662739778982008482757587178,78.0,1.0636476662739778982008482757587178
15,90.6777854495228122946231677758736886,89.6,1.0777854495228122946231677758736886
16,103.090988921891484935090379644910779,102.0,1.090988921891484935090379644910779
17,116.303374274560139937299264287077579,115.2,1.103374274560139937299264287077579
18,130.315037271478588344260232753851584,129.2,1.115037271478588344260232753851584
19,145.126057772470286343985069220214527,144.0,1.126057772470286343985069220214527
20,160.736503070866272182239460313339752,159.6,1.136503070866272182239460313339752
21,177.146430399586863709000333368654699,176.0,1.146430399586863709000333368654699
22,194.355888842300398800992021309034133,193.2,1.155888842300398800992021309034133
23,212.364920811359760245638960459692149,211.2,1.164920811359760245638960459692149
24,231.173563205202798082542031592466841,230.0,1.173563205202798082542031592466841
25,250.781848325148256141820321240367096,249.6,1.181848325148256141820321240367096
26,271.189804609203359914059704634716514,270.0,1.189804609203359914059704634716514
27,292.397457225026392483896723840804903,291.2,1.197457225026392483896723840804903
28,314.404828553285734449083664891437557,313.2,1.204828553285734449083664891437557
29,337.211938584861815924630591072942897,336.0,1.211938584861815924630591072942897
30,360.818805249688941161791109910045385,359.6,1.218805249688941161791109910045385
31,385.225444690888007811198389455821202,384.0,1.225444690888007811198389455821202
32,410.431871494763243274459308577696564,409.2,1.231871494763243274459308577696564
33,436.438098884926432784190995196871749,435.2,1.238098884926432784190995196871749
34,463.244138887061567586194735925352410,462.0,1.244138887061567586194735925352410
35,490.850002469503646531675276931307844,489.6,1.250002469503646531675276931307844
36,519.255699663771885508809537129552306,518.0,1.255699663771885508809537129552306
37,548.461239668393504594419686778966128,547.2,1.261239668393504594419686778966128
38,578.466630938723844063345597889412495,577.2,1.266630938723844063345597889412495
39,609.271881264970711743583270372645716,608.0,1.271881264970711743583270372645716
40,640.876997840235043421705271539183502,639.6,1.276997840235043421705271539183502
41,673.281987320063207729355981147727521,672.0,1.281987320063207729355981147727521
42,706.486855874751294340108882238301335,705.2,1.286855874751294340108882238301335
43,740.491609235435237961057903241612903,739.2,1.291609235435237961057903241612903
44,775.296252734832536588012650988451736,774.0,1.296252734832536588012650988451736
45,810.900791343363752924172888062327205,809.6,1.300791343363752924172888062327205
46,847.305229701268851579566954685761662,846.0,1.305229701268851579566954685761662
47,884.509572147239948056210241121237476,883.2,1.309572147239948056210241121237476
48,922.513822744014459159694563157568121,921.2,1.313822744014459159694563157568121
49,961.317985301307981934025373424993598,960.0,1.317985301307981934025373424993598
50,1000.92206339641210550287288520859602,999.6,1.32206339641210550287288520859602
51,1041.32606039273689323793281765913480,1040.0,1.32606039273689323793281765913480
52,1082.52997945653942746079488915190374,1081.2,1.32997945653942746079488915190374
53,1124.53382357204735876617277894738235,1123.2,1.33382357204735876617277894738235
54,1167.33759555515884092289456696233442,1166.0,1.33759555515884092289456696233442
55,1210.94129806587675681654197829225123,1209.6,1.34129806587675681654197829225123
56,1255.34493361961506632750269245682489,1254.0,1.34493361961506632750269245682489
57,1300.54850459749790807308181559224465,1299.2,1.34850459749790807308181559224465
58,1346.55201325575728975602858307022670,1345.2,1.35201325575728975602858307022670
59,1393.35546173432244791455975776729120,1392.0,1.35546173432244791455975776729120
60,1440.95885206468293336125966151126157,1439.6,1.35885206468293336125966151126157
61,1489.36218617709791437073264795272410,1488.0,1.36218617709791437073264795272410
62,1538.56546590721588867077087683467238,1537.2,1.36546590721588867077087683467238
63,1588.56869300216175340278003936584944,1587.2,1.36869300216175340278003936584944
64,1639.37186912614186973728393892453774,1638.0,1.37186912614186973728393892453774
65,1690.97499586561222399035635931956463,1689.6,1.37499586561222399035635931956463
66,1743.37807473404993974777477655977995,1742.0,1.37807473404993974777477655977995
67,1796.58110717636413321236487889426191,1795.2,1.38110717636413321236487889426191
68,1850.58409457297834782919651115256740,1849.2,1.38409457297834782919651115256740
69,1905.38703824361349157256504788635391,1904.0,1.38703824361349157256504788635391
70,1960.98993945079727201042819064905996,1959.6,1.38993945079727201042819064905996
71,2017.39279940312352555823736039549645,2016.0,1.39279940312352555823736039549645
72,2074.59561925828253909172287218035860,2073.2,1.39561925828253909172287218035860
73,2132.59840012588140908178889086868429,2131.2,1.39840012588140908178889086868429
74,2191.40114307007166456612125452280089,2190.0,1.40114307007166456612125452280089
75,2251.00384911199974917100842765389522,2249.6,1.40384911199974917100842765389522
76,2311.40651923209450784012049723920271,2310.0,1.40651923209450784012049723920271
77,2372.60915437220452152857314174134131,2371.2,1.40915437220452152857314174134131
78,2434.61175543759696732242324996808242,2433.2,1.41175543759696732242324996808242
79,2497.41432329882863462375065407502579,2496.0,1.41432329882863462375065407502579
80,2561.01685879349878991583593043673218,2559.6,1.41685879349878991583593043673218
81,2625.41936272789273328146771608659974,2624.0,1.41936272789273328146771608659974
82,2690.62183587852412839685933795046243,2689.2,1.42183587852412839685933795046243
83,2756.62427899358349898986494377664610,2755.2,1.42427899358349898986494377664610
84,2823.42669279429966045946915708990631,2822.0,1.42669279429966045946915708990631
85,2891.02907797622029607735059312512979,2889.6,1.42907797622029607735059312512979
86,2959.43143521041737132693016467300199,2958.0,1.43143521041737132693016467300199
87,3028.63376514462262246451533704159165,3027.2,1.43376514462262246451533704159165
88,3098.63606840429793200941567041312263,3097.2,1.43606840429793200941567041312263
89,3169.43834559364502036774349749964673,3168.0,1.43834559364502036774349749964673
90,3241.04059729655853957788430538963571,3239.6,1.44059729655853957788430538963571
91,3313.44282407752633371357070433596265,3312.0,1.44282407752633371357070433596265
92,3386.64502648248034218295465387399283,3385.2,1.44502648248034218295465387399283
93,3460.64720503960135990701703457341525,3459.2,1.44720503960135990701703457341525
94,3535.44936026008062543191550673235071,3534.0,1.44936026008062543191550673235071
95,3611.05149263884098687584260896773724,3609.6,1.45149263884098687584260896773724
96,3687.45360265522019378884953282932222,3686.0,1.45360265522019378884953282932222
97,3764.65569077361867866198153619584813,3763.2,1.45569077361867866198153619584813
98,3842.65775744411401894777605046412636,3841.2,1.45775744411401894777605046412636
99,3921.45980310304411698198563314100640,3920.0,1.45980310304411698198563314100640
100,4001.06182817356098885597161339110054,3999.6,1.46182817356098885597161339110054
101,4081.46383306615692398505997289622527,4080.0,1.46383306615692398505997289622527
102,4162.66581817916465154342984040516100,4161.2,1.46581817916465154342984040516100
103,4244.66778389923304202249203121224593,4243.2,1.46778389923304202249203121224593
104,4327.46973060177976490500489235366725,4326.0,1.46973060177976490500489235366725
105,4411.07165865142223037341746295486831,4409.6,1.47165865142223037341746295486831
106,4495.47356840238805220668655841980689,4494.0,1.47356840238805220668655841980689
107,4580.67546019890619093785878983999238,4579.2,1.47546019890619093785878983999238
108,4666.67733437557985710515421468098954,4665.2,1.47733437557985710515421468098954
109,4753.47919125774218583575416533421863,4752.0,1.47919125774218583575416533421863
110,4841.08103116179563158137069593362544,4839.6,1.48103116179563158137069593362544
111,4929.48285439553596596347661075906464,4928.0,1.48285439553596596347661075906464
112,5018.68466125846171225244156702622884,5017.2,1.48466125846171225244156702622884
113,5108.68645204206979446902562920434716,5107.2,1.48645204206979446902562920434716
114,5199.48822703013813033892537728881390,5198.0,1.48822703013813033892537728881390
115,5291.08998649899585688256507857386542,5289.6,1.48998649899585688256507857386542
116,5383.49173071778182909067720290048558,5382.0,1.49173071778182909067720290048558
117,5476.69345994869200042320980293587041,5475.2,1.49345994869200042320980293587041
118,5570.69517444721625283799279099496624,5569.2,1.49517444721625283799279099496624
119,5665.49687446236521034187871104298199,5664.0,1.49687446236521034187871104298199
120,5761.09856023688754421483877844661192,5759.6,1.49856023688754421483877844661192
121,5857.50023200747823979025066777503881,5856.0,1.50023200747823979025066777503881
122,5954.70189000497827576148173770933025,5953.2,1.50189000497827576148173770933025
123,6052.70353445456613479193942181742426,6051.2,1.50353445456613479193942181742426
124,6151.50516557594154652595185151537703,6150.0,1.50516557594154652595185151537703
125,6251.10678358350183453157869575088891,6249.6,1.50678358350183453157869575088891
126,6351.50838868651122350915463369897155,6350.0,1.50838868651122350915463369897155
127,6452.70998108926344252148148745286032,6451.2,1.50998108926344252148148745286032
128,6554.71156099123793741439519412756771,6553.2,1.51156099123793741439519412756771
129,6657.51312858724999352319565585830831,6656.0,1.51312858724999352319565585830831
130,6761.11468406759505137856025677286466,6759.6,1.51468406759505137856025677286466
131,6865.51622761818748272144376920422686,6864.0,1.51622761818748272144376920422686
132,6970.71775942069407915926676337522926,6969.2,1.51775942069407915926676337522926
133,7076.71927965266249401411023110927754,7075.2,1.51927965266249401411023110927754
134,7183.52078848764486663767585804026696,7182.0,1.52078848764486663767585804026696
135,7291.12228609531684035942853903177201,7289.6,1.52228609531684035942853903177201
136,7399.52377264159218154680734596660138,7398.0,1.52377264159218154680734596660138
137,7508.72524828873319394844790674963959,7507.2,1.52524828873319394844790674963959
138,7618.72671319545710887936825361786081,7617.2,1.52671319545710887936825361786081
139,7729.52816751703862970116472677923143,7728.0,1.52816751703862970116472677923143
140,7841.12961140540879360429625625113813,7839.6,1.52961140540879360429625625113813
141,7953.53104500925030914204534752552684,7952.0,1.53104500925030914204534752552684
142,8066.73246847408951989247718495310397,8065.2,1.53246847408951989247718495310397
143,8180.73388194238513597454870415776708,8179.2,1.53388194238513597454870415776708
144,8295.53528555361386796488288725759781,8294.0,1.53528555361386796488288725759781
145,8411.13667944435309357396405076949598,8409.6,1.53667944435309357396405076949598
146,8527.53806374836067957175936217359661,8526.0,1.53806374836067957175936217359661
147,8644.73943859665207324980555666711390,8643.2,1.53943859665207324980555666711390
148,8762.74080411757477874876658403393359,8761.2,1.54080411757477874876658403393359
149,8881.54216043688032005239374858249062,8880.0,1.54216043688032005239374858249062
150,9001.14350767779379428874254567602526,8999.6,1.54350767779379428874254567602526
151,9121.54484596108111125287685678960780,9120.0,1.54484596108111125287685678960780
152,9242.74617540511400945020624831290438,9241.2,1.54617540511400945020624831290438
153,9364.74749612593293761012579319370305,9363.2,1.54749612593293761012579319370305
154,9487.54880823730788556917555308678664,9486.0,1.54880823730788556917555308678664
155,9611.15011185079724275968724813359224,9609.6,1.55011185079724275968724813359224
156,9735.55140707580476217025575834367754,9734.0,1.55140707580476217025575834367754
157,9860.75269401963470082461257757394550,9859.2,1.55269401963470082461257757394550
158,9986.75397278754520859697647476719060,9985.2,1.55397278754520859697647476719060
159,10113.5552434828000290366881804921996,10112.0,1.5552434828000290366881804921996
160,10241.1565062067185785396405188265016,10239.6,1.5565062067185785396405188265016
161,10369.5577610587244623625964348251113,10368.0,1.5577610587244623625964348251113
162,10498.7590081363924869414680362212804,10497.2,1.5590081363924869414680362212804
163,10628.7602475354942233668273728343801,10627.2,1.5602475354942233668273728343801
164,10759.5614793500421766532157818234346,10758.0,1.5614793500421766532157818234346
165,10891.1627036723326094024410434865111,10889.6,1.5627036723326094024410434865111
166,11023.5639205929870703764225526978554,11022.0,1.5639205929870703764225526978554
167,11156.7651302009926752118758032444516,11155.2,1.5651302009926752118758032444516
168,11290.7663325837411819657213847931876,11289.2,1.5663325837411819657213847931876
169,11425.5675278270669065532805166840528,11424.0,1.5675278270669065532805166840528
170,11561.1687160152835178223448856649962,11559.6,1.5687160152835178223448856649962
171,11697.5698972312197524575529175157324,11696.0,1.5698972312197524575529175157324
172,11834.7710715562540875817023299014830,11833.2,1.5710715562540875817023299014830
173,11972.7722390703484064563012503438165,11971.2,1.5722390703484064563012503438165
174,12111.5733998520806931248437924939975,12110.0,1.5733998520806931248437924939975
175,12251.1745539786767899837146362374081,12249.6,1.5745539786767899837146362374081
176,12391.5757015260412479870472230134938,12390.0,1.5757015260412479870472230134938
177,12532.7768425687873027460447133104338,12531.2,1.5768425687873027460447133104338
178,12674.7779771802660056771315815297876,12673.2,1.5779771802660056771315815297876
179,12817.5791054325945366438534135393494,12816.0,1.5791054325945366438534135393494
180,12961.1802273966837290388954480481350,12959.6,1.5802273966837290388954480481350
181,13105.5813431422648299547777454620018,13104.0,1.5813431422648299547777454620018
182,13250.7824527379155231385839472679771,13249.2,1.5824527379155231385839472679771
183,13396.7835562510852377799692801734331,13395.2,1.5835562510852377799692801734331
184,13543.5846537481197673739553638200074,13542.0,1.5846537481197673739553638200074
185,13691.1857452942852204666068658909185,13689.6,1.5857452942852204666068658909185
186,13839.5868309537913242521804895335072,13838.0,1.5868309537913242521804895335072
187,13988.7879107898141048222154628313335,13987.2,1.5879107898141048222154628313335
188,14138.7889848645179595028510089194064,14137.2,1.5889848645179595028510089194064
189,14289.5900532390771450114297758484658,14288.0,1.5900532390771450114297758484658
190,14441.1911159736966970834329384212116,14439.6,1.5911159736966970834329384212116
191,14593.5921731276328007922666062641156,14592.0,1.5921731276328007922666062641156
192,14746.7932247592126279440695461523393,14745.2,1.5932247592126279440695461523393
193,14900.7942709258536598513566384341731,14899.2,1.5942709258536598513566384341731
194,15055.5953116840825088262466939506950,15054.0,1.5953116840825088262466939506950
195,15211.1963470895532563255985228871882,15209.6,1.5963470895532563255985228871882
196,15367.5973771970653214399202131158489,15366.0,1.5973771970653214399202131158489
197,15524.7984020605808741013367452854802,15523.2,1.5984020605808741013367452854802
198,15682.7994217332418071725592513582235,15681.2,1.5994217332418071725592513582235
199,15841.6004362673862802506735843115933,15840.0,1.6004362673862802506735843115933
200,16001.2014457145648491259112025378541,15999.6,1.6014457145648491259112025378541
201,16161.6024501255561918717832529483841,16160.0,1.6024501255561918717832529483841
202,16322.8034495503824449426916871225724,16321.2,1.6034495503824449426916871225724
203,16484.8044440383241599337011927262717,16483.2,1.6044440383241599337011927262717
204,16647.6054336379348926173359966784013,16646.0,1.6054336379348926173359966784013
205,16811.2064183970554342227156466228949,16809.6,1.6064183970554342227156466228949
206,16975.6073983628276979757290187900245,16974.0,1.6073983628276979757290187900245
207,17140.8083735817082667708743354150358,17139.2,1.6083735817082667708743354150358
208,17306.8093440994816161961721089951593,17305.2,1.6093440994816161961721089951593
209,17473.6103099612730186539810155913048,17472.0,1.6103099612730186539810155913048
210,17641.2112712115611400733179825477521,17639.6,1.6112712115611400733179825477521
211,17809.6122278941903365726414185114642,17808.0,1.6122278941903365726414185114642
212,17978.8131800523826613002219801113826,17977.2,1.6131800523826613002219801113826
213,18148.8141277287495858299914528526169,18147.2,1.6141277287495858299914528526169
214,18319.6150709653034510885554739520198,18318.0,1.6150709653034510885554739520198
215,18491.2160098034686470195975650150485,18489.6,1.6160098034686470195975650150485
216,18663.6169442840925349401273403449247,18662.0,1.6169442840925349401273403449247
217,18836.8178744474561165476108481031145,18835.2,1.6178744474561165476108481031145
218,19010.8188003332844585504286290669882,19009.2,1.6188003332844585504286290669882
219,19185.6197219807568761945928982898734,19184.0,1.6197219807568761945928982898734
220,19361.2206394285168881948470637899918,19359.6,1.6206394285168881948470637899918
221,19537.6215527146819409724328610769242,19536.0,1.6215527146819409724328610769242
222,19714.8224618768529193968858348294736,19713.2,1.6224618768529193968858348294736
223,19892.8233669521234375926855361390214,19891.2,1.6233669521234375926855361390214
224,20071.6242679770889248700537822212745,20070.0,1.6242679770889248700537822212745
225,20251.2251649878555093364387575574187,20249.6,1.6251649878555093364387575574187
226,20431.6260580200487027266206076742588,20430.0,1.6260580200487027266206076742588
227,20612.8269471088218950942799269830909,20611.2,1.6269471088218950942799269830909
228,20794.8278322888646611752237050110921,20793.2,1.6278322888646611752237050110921
229,20977.6287135944108855744066662475656,20976.0,1.6287135944108855744066662475656
230,21161.2295910592467114629795763759311,21159.6,1.6295910592467114629795763759311
231,21345.6304647167183145746216816478595,21344.0,1.6304647167183145746216816478595
232,21530.8313345997395129100651587741492,21529.2,1.6313345997395129100651587741492
233,21716.8322007407992071353025873233048,21715.2,1.6322007407992071353025873233048
234,21903.6330631719686678195301018825016,21902.0,1.6330631719686678195301018825016
235,22091.2339219249086626839126581204235,22089.6,1.6339219249086626839126581204235
236,22279.6347770308764335599263016713962,22278.0,1.6347770308764335599263016713962
237,22468.8356285207325266773901929679829,22467.2,1.6356285207325266773901929679829
238,22658.8364764249474780131857654420051,22657.2,1.6364764249474780131857654420051
