Eigenstate,Energy,Kinetic Energy,Potential Energy
1,0.500000000168316119453571583382570067,0.0,0.500000000168316119453571583382570067
2,1.84623093874980074379139116371464221,1.2,0.64623093874980074379139116371464221
3,3.93633761293230564570500442354836077,3.2,0.73633761293230564570500442354836077
4,6.79966528453647925402277317085737722,6.0,0.79966528453647925402277317085737722
5,10.4480465869301597736256439045200326,9.6,0.8480465869301597736256439045200326
6,14.8870660148893802031863330015529671,14.0,0.8870660148893802031863330015529671
7,20.1197208498624229907632783091057411,19.2,0.9197208498624229907632783091057411
8,26.1477838782316722090845372509996071,25.2,0.9477838782316722090845372509996071
9,32.9723835990066864147447255584065662,32.0,0.9723835990066864147447255584065662
10,40.5942802663382337107131826565720246,39.6,0.9942802663382337107131826565720246
11,49.0140094503689727125868512000790702,48.0,1.0140094503689727125868512000790702
12,58.2319622464048348405294778797819500,57.2,1.0319622464048348405294778797819500
13,68.2484327845127525986500538349136149,67.2,1.0484327845127525986500538349136149
14,79.0636477623768996690735177877496216,78.0,1.0636477623768996690735177877496216
15,90.6777855611129232150133161590769157,89.6,1.0777855611129232150133161590769157
16,103.090989050138418820105711142783445,102.0,1.090989050138418820105711142783445
17,116.303374420634454377740216271971050,115.2,1.103374420634454377740216271971050
18,130.315037436551782776869253961913474,129.2,1.115037436551782776869253961913474
19,145.126057957714828718012614339742326,144.0,1.126057957714828718012614339742326
20,160.736503277455631712733129195424751,159.6,1.136503277455631712733129195424751
21,177.146430628695548038835190200371404,176.0,1.146430628695548038835190200371404
22,194.355889095103994423985621461649554,193.2,1.155889095103994423985621461649554
23,212.364921089034975389800086690498839,211.2,1.164921089034975389800086690498839
24,231.173563508927507484299265456273978,230.0,1.173563508927507484299265456273978
25,250.781848656101547300225254803703839,249.6,1.181848656101547300225254803703839
26,271.189804968565580523868626060495994,270.0,1.189804968565580523868626060495994
27,292.397457613979198824116089063159697,291.2,1.197457613979198824116089063159697
28,314.404828973012140559322561957082744,313.2,1.204828973012140559322561957082744
29,337.211939036546243442197491476419956,336.0,1.211939036546243442197491476419956
30,360.818805734517269722416342552427699,359.6,1.218805734517269722416342552427699
31,385.225445210047625938621984339546753,384.0,1.225445210047625938621984339546753
32,410.431872049443099701007091760463654,409.2,1.231872049443099701007091760463654
33,436.438099476317088157345741622712357,435.2,1.238099476317088157345741622712357
34,463.244139516355246526098197517674965,462.0,1.244139516355246526098197517674965
35,490.850003137894290012219756134524017,489.6,1.250003137894290012219756134524017
36,519.255700372455203541036813569942993,518.0,1.255700372455203541036813569942993
37,548.461240418567029195738502852330034,547.2,1.261240418567029195738502852330034
38,578.466631731586982499900216545177854,577.2,1.266631731586982499900216545177854
39,609.271882101724800036175036099594337,608.0,1.271882101724800036175036099594337
40,640.876998722083400108152018328682919,639.6,1.276998722083400108152018328682919
41,673.281988248211187878196352709040981,672.0,1.281988248211187878196352709040981
42,706.486856850406343812216711777346911,705.2,1.286856850406343812216711777346911
43,740.491610259806947917100088240054247,739.2,1.291610259806947917100088240054247
44,775.296253809132698240819927026013105,774.0,1.296253809132698240819927026013105
45,810.900792468806412536042313835912547,809.6,1.300792468806412536042313835912547
46,847.305230879070365705313083793683443,846.0,1.305230879070365705313083793683443
47,884.509573378619039033456832927140510,883.2,1.309573378619039033456832927140510
48,922.513824030192270848473420218074629,921.2,1.313824030192270848473420218074629
49,961.317986643508135708240757103801418,960.0,1.317986643508135708240757103801418
50,1000.92206479586075649661381688117052,999.6,1.32206479586075649661381688117052
51,1041.32606185066278684998338611874998,1040.0,1.32606185066278684998338611874998
52,1082.52998097417395612101342592246915,1081.2,1.32998097417395612101342592246915
53,1124.53382515062461896769264454346367,1123.2,1.33382515062461896769264454346367
54,1167.33759719591569052434871702450620,1166.0,1.33759719591569052434871702450620
55,1210.94129977005287261873547972325635,1209.6,1.34129977005287261873547972325635
56,1255.34493538845300192915657460822231,1254.0,1.34493538845300192915657460822231
57,1300.54850643224315201045125368843689,1299.2,1.34850643224315201045125368843689
58,1346.55201515765832393136254245660645,1345.2,1.35201515765832393136254245660645
59,1393.35546370463080631851850767579395,1392.0,1.35546370463080631851850767579395
60,1440.95885410465326109454523806422714,1439.6,1.35885410465326109454523806422714
61,1489.36218828798802697031567081844296,1488.0,1.36218828798802697031567081844296
62,1538.56546809028683174621759509299026,1537.2,1.36546809028683174621759509299026
63,1588.56869525867786258829648533576473,1587.2,1.36869525867786258829648533576473
64,1639.37187145737083096520135594259641,1638.0,1.37187145737083096520135594259641
65,1690.97499827282513409188498199858195,1689.6,1.37499827282513409188498199858195
66,1743.37807721852136738695082421941608,1742.0,1.37807721852136738695082421941608
67,1796.58110973937218015921066710975890,1795.2,1.38110973937218015921066710975890
68,1850.58409721580471057820561383517084,1849.2,1.38409721580471057820561383517084
69,1905.38704096754352331271439833135799,1904.0,1.38704096754352331271439833135799
70,1960.98994225712004495300610004752979,1959.6,1.38994225712004495300610004752979
71,2017.39280229313189362886375464442237,2016.0,1.39280229313189362886375464442237
72,2074.59562223327320099302228204955010,2073.2,1.39562223327320099302228204955010
73,2132.59840318715497173326189201737460,2131.2,1.39840318715497173326189201737460
74,2191.40114621893270692784333660919257,2190.0,1.40114621893270692784333660919257
75,2251.00385234975688645786926518219256,2249.6,1.40385234975688645786926518219256
76,2311.40652256006045613339914947321277,2310.0,1.40652256006045613339914947321277
77,2372.60915779169616279172880485472101,2371.2,1.40915779169616279172880485472101
78,2434.61175894993541482806454922439151,2433.2,1.41175894993541482806454922439151
79,2497.41432690533929879883064924352760,2496.0,1.41432690533929879883064924352760
80,2561.01686249551144461220395579901224,2559.6,1.41686249551144461220395579901224
81,2625.41936652674158247899512691792904,2624.0,1.41936652674158247899512691792904
82,2690.62183977554787334644136802724891,2689.2,1.42183977554787334644136802724891
83,2756.62428299012540580368800864407579,2755.2,1.42428299012540580368800864407579
84,2823.42669689170762815602048824997444,2822.0,1.42669689170762815602048824997444
85,2891.02908217584692508873571875869187,2889.6,1.42908217584692508873571875869187
86,2959.43143951362003247615334262382398,2958.0,1.43143951362003247615334262382398
87,3028.63376955276352642046934791495129,3027.2,1.43376955276352642046934791495129
88,3098.63607291874419922741935057420460,3097.2,1.43607291874419922741935057420460
89,3169.43835021576875152355861929356581,3168.0,1.43835021576875152355861929356581
90,3241.04060202773688650323853089868274,3239.6,1.44060202773688650323853089868274
91,3313.44282891914157084130979568598752,3312.0,1.44282891914157084130979568598752
92,3386.64503143591993851004416253979020,3385.2,1.44503143591993851004416253979020
93,3460.64721010625805148371373514653307,3459.2,1.44721010625805148371373514653307
94,3535.44936544135248838552925387555350,3534.0,1.44936544135248838552925387555350
95,3611.05149793613151097761198327700269,3609.6,1.45149793613151097761198327700269
96,3687.45360806993835657255847070662118,3686.0,1.45360806993835657255847070662118
97,3764.65569630717902010305090746856603,3763.2,1.45569630717902010305090746856603
98,3842.65776309793671671167056758790042,3841.2,1.45776309793671671167056758790042
99,3921.45980887855506225088734924876589,3920.0,1.45980887855506225088734924876589
100,4001.06183407219186274278165020589473,3999.6,1.46183407219186274278165020589473
101,4081.46383908934527454390402411698283,4080.0,1.46383908934527454390402411698283
102,4162.66582432835397138595806996094185,4161.2,1.46582432835397138595806996094185
103,4244.66779017587284654938097486945316,4243.2,1.46779017587284654938097486945316
104,4327.46973700732567116218917863140458,4326.0,1.46973700732567116218917863140458
105,4411.07166518733603654269967140227351,4409.6,1.47166518733603654269967140227351
106,4495.47357507013781774049760625061309,4494.0,1.47357507013781774049760625061309
107,4580.67546699996631734806709468106492,4579.2,1.47546699996631734806709468106492
108,4666.67734131143116941594942032629567,4665.2,1.47734131143116941594942032629567
109,4753.47919832987201471076216735245761,4752.0,1.47919832987201471076216735245761
110,4841.08103837169789613528883445913647,4839.6,1.48103837169789613528883445913647
111,4929.48286174471125726865278317753484,4928.0,1.48286174471125726865278317753484
112,5018.68466874841737755095919720814635,5017.2,1.48466874841737755095919720814635
113,5108.68645967432002210099539760573216,5107.2,1.48645967432002210099539760573216
114,5199.48823480620403539782758197535610,5198.0,1.48823480620403539782758197535610
115,5291.08999442040556760863121234816967,5289.6,1.48999442040556760863121234816967
116,5383.49173878607057401344722907593213,5382.0,1.49173878607057401344722907593213
117,5476.69346816540219626455140943166635,5475.2,1.49346816540219626455140943166635
118,5570.69518281389759318702235759888093,5569.2,1.49518281389759318702235759888093
119,5665.49688298057475511337904801693980,5664.0,1.49688298057475511337904801693980
120,5761.09856890818980990292764902697373,5759.6,1.49856890818980990292764902697373
121,5857.50024083344529052921555315397549,5856.0,1.50024083344529052921555315397549
122,5954.70189898718981520586013753145425,5953.2,1.50189898718981520586013753145425
123,6052.70354359460959882809237854701274,6051.2,1.50354359460959882809237854701274
124,6151.50517487541219682754777404941473,6150.0,1.50517487541219682754777404941473
125,6251.10679304400285297157891564092613,6249.6,1.50679304400285297157891564092613
126,6351.50839830965380744106868917363804,6350.0,1.50839830965380744106868917363804
127,6452.70999087666690094283969773669432,6451.2,1.50999087666690094283969773669432
128,6554.71157094452978802556996342485841,6553.2,1.51157094452978802556996342485841
129,6657.51313870806606069488925348929655,6656.0,1.51313870806606069488925348929655
130,6761.11469435757956504146665729560591,6759.6,1.51469435757956504146665729560591
131,6865.51623807899317819178619067087438,6864.0,1.51623807899317819178619067087438
132,6970.71777005398229791410984935609721,6969.2,1.51777005398229791410984935609721
133,7076.71929046010328543054505958803632,7075.2,1.51929046010328543054505958803632
134,7183.52079947091709071018262690032546,7182.0,1.52079947091709071018262690032546
135,7291.12229725610827140992858889168743,7289.6,1.52229725610827140992858889168743
136,7399.52378398159961294212813949463528,7398.0,1.52378398159961294212813949463528
137,7508.72525980966254384014154928176619,7507.2,1.52525980966254384014154928176619
138,7618.72672489902352698104357813770888,7617.2,1.52672489902352698104357813770888
139,7729.52817940496660511871689490861536,7728.0,1.52817940496660511871689490861536
140,7841.12962347943226373464689328096048,7839.6,1.52962347943226373464689328096048
141,7953.53105727111276965623729766799546,7952.0,1.53105727111276965623729766799546
142,8066.73248092554413581920640790277725,8065.2,1.53248092554413581920640790277725
143,8180.73389458519485390045639409460379,8179.2,1.53389458519485390045639409460379
144,8295.53529838955152936817667931264204,8294.0,1.53529838955152936817667931264204
145,8411.13669247520154930818687105369189,8409.6,1.53669247520154930818687105369189
146,8527.53807697591290551678127977575717,8526.0,1.53807697591290551678127977575717
147,8644.73945202271128714737237178864566,8643.2,1.53945202271128714737237178864566
148,8762.74081774395455824020390929999875,8761.2,1.54081774395455824020390929999875
149,8881.54217426540472193633564437104645,8880.0,1.54217426540472193633564437104645
150,9001.14352171029747501702745904214896,8999.6,1.54352171029747501702745904214896
151,9121.54486019940944868303537543041601,9120.0,1.54486019940944868303537543041601
152,9242.74618985112322587324863943206970,9241.2,1.54618985112322587324863943206970
153,9364.74751078149022407262927840977058,9363.2,1.54751078149022407262927840977058
154,9487.54882310429152750896644654227873,9486.0,1.54882310429152750896644654227873
155,9611.15012693109674697471613767898422,9609.6,1.55012693109674697471613767898422
156,9735.55142237132098514057046980860699,9734.0,1.55142237132098514057046980860699
157,9860.75270953227997840764773487178020,9859.2,1.55270953227997840764773487178020
158,9986.75398851924348711669793171253015,9985.2,1.55398851924348711669793171253015
159,10113.5552594354869977874550749981384,10112.0,1.5552594354869977874550749981384
160,10241.1565223823418037259815276193767,10239.6,1.5565223823418037259815276193767
161,10369.5577774592435224964331397760963,10368.0,1.5577774592435224964331397760963
162,10498.7590247637791097186639248711492,10497.2,1.5590247637791097186639248711492
163,10628.7602643917324240452920613326403,10627.2,1.5602643917324240452920613326403
164,10759.5614964371283979551523192407995,10758.0,1.5614964371283979551523192407995
165,10891.1627209922758629636891115290205,10889.6,1.5627209922758629636891115290205
166,11023.5639381478090797662225561476461,11022.0,1.5639381478090797662225561476461
167,11156.7651479927280205467577139868358,11155.2,1.5651479927280205467577139868358
168,11290.7663506144374461416103054645685,11289.2,1.5663506144374461416103054645685
169,11425.5675460987848231203030142177152,11424.0,1.5675460987848231203030142177152
170,11561.1687345300971205272247254002939,11559.6,1.5687345300971205272247254002939
171,11697.5699159912165264788923317694998,11696.0,1.5699159912165264788923317694998
172,11834.7710905635351224838644519402972,11833.2,1.5710905635351224838644519402972
173,11972.7722583270285508880344422927047,11971.2,1.5722583270285508880344422927047
174,12111.5734193602887112892239572790676,12110.0,1.5734193602887112892239572790676
175,12251.1745737405555199064237200808858,12249.6,1.5745737405555199064237200808858
176,12391.5757215437477616104590773388050,12390.0,1.5757215437477616104590773388050
177,12532.7768628444930678770492417119114,12531.2,1.5768628444930678770492417119114
178,12674.7779977161570498170984924221280,12673.2,1.5779977161570498170984924221280
179,12817.5791262308716127296162712709499,12816.0,1.5791262308716127296162712709499
180,12961.1802484595624831241258032640156,12959.6,1.5802484595624831241258032640156
181,13105.5813644719759708616168351927081,13104.0,1.5813644719759708616168351927081
182,13250.7824743367049941099091023401078,13249.2,1.5824743367049941099091023401078
183,13396.7835781212143901631904972409030,13395.2,1.5835781212143901631904972409030
184,13543.5846758918655363677667391097683,13542.0,1.5846758918655363677667391097683
185,13691.1857677139403029626586486807551,13689.6,1.5857677139403029626586486807551
186,13839.5868536516643588041857655776279,13838.0,1.5868536516643588041857655776279
187,13988.7879337682298537755707311425721,13987.2,1.5879337682298537755707311425721
188,14138.7890081258174933184208952683950,14137.2,1.5890081258174933184208952683950
189,14289.5900767856180288177326199477251,14288.0,1.5900767856180288177326199477251
190,14441.1911398078531794920601948340718,14439.6,1.5911398078531794920601948340718
191,14593.5921972517960050119792249467346,14592.0,1.5921972517960050119792249467346
192,14746.7932491757907452296353176755027,14745.2,1.5932491757907452296353176755027
193,14900.7942956372721453238274385028041,14899.2,1.5942956372721453238274385028041
194,15055.5953366927842797020220604605442,15054.0,1.5953366927842797020220604605442
195,15211.1963723979988925922832819271860,15209.6,1.5963723979988925922832819271860
196,15367.5974028077332690176578591575031,15366.0,1.5974028077332690176578591575031
197,15524.7984279759676505289897082798307,15523.2,1.5984279759676505289897082798307
198,15682.7994479558622098588090700490432,15681.2,1.5994479558622098588090700490432
199,15841.6004627997735973308330555862035,15840.0,1.6004627997735973308330555862035
200,16001.2014725592710729659720957938659,15999.6,1.6014725592710729659720957938659
201,16161.6024772851522352619705173298558,16160.0,1.6024772851522352619705173298558
202,16322.8034770274583600235613562537372,16321.2,1.6034770274583600235613562537372
203,16484.8044718354893598985953336350094,16483.2,1.6044718354893598985953336350094
204,16647.6054617578183762358076699284835,16646.0,1.6054617578183762358076699284835
205,16811.2064468423060132303468200555032,16809.6,1.6064468423060132303468200555032
206,16975.6074271361142273765968245637411,16974.0,1.6074271361142273765968245637411
207,17140.8084026857198780997683409173010,17139.2,1.6084026857198780997683409173010
208,17306.8093735369279537885303841834914,17305.2,1.6093735369279537885303841834914
209,17473.6103397348844789723991435021786,17472.0,1.6103397348844789723991435021786
210,17641.2113013240891141403863754146196,17639.6,1.6113013240891141403863754146196
211,17809.6122583484074555607908870012339,17808.0,1.6122583484074555607908870012339
212,17978.8132108510830453301993059729655,17977.2,1.6132108510830453301993059729655
213,18148.8141588747490960305507283952177,18147.2,1.6141588747490960305507283952177
214,18319.6151024614399449709334869712703,18318.0,1.6151024614399449709334869712703
215,18491.2160416526022372213481417091409,18489.6,1.6160416526022372213481417091409
216,18663.6169764891058513939164437849885,18662.0,1.6169764891058513939164437849885
217,18836.8179070112545721316233479132709,18835.2,1.6179070112545721316233479132709
218,19010.8188332587965182781098011953363,19009.2,1.6188332587965182781098011953363
219,19185.6197552709343300025462022075174,19184.0,1.6197552709343300025462022075174
220,19361.2206730863351273888270865405550,19359.6,1.6206730863351273888270865405550
221,19537.6215867431402383925184877022654,19536.0,1.6215867431402383925184877022654
222,19714.8224962789747133640896191125083,19713.2,1.6224962789747133640896191125083
223,19892.8234017309566197004500276137219,19891.2,1.6234017309566197004500276137219
224,20071.6243031357061316853094726540162,20070.0,1.6243031357061316853094726540162
225,20251.2252005293544180761481674137609,20249.6,1.6252005293544180761481674137609
226,20431.6260939475523309770111513411087,20430.0,1.6260939475523309770111513411087
227,20612.8269834254789046412734806096868,20611.2,1.6269834254789046412734806096868
228,20794.8278689978496660159098938396712,20793.2,1.6278689978496660159098938396712
229,20977.6287506989247641807701779465842,20976.0,1.6287506989247641807701779465842
230,21161.2296285625169233704901842342599,21159.6,1.6296285625169233704901842342599
231,21345.6305026219992213697246380847280,21344.0,1.6305026219992213697246380847280
232,21530.8313729103127036920703628585394,21529.2,1.6313729103127036920703628585394
233,21716.8322394599738285296658764229073,21715.2,1.6322394599738285296658764229073
234,21903.6331023030817586210490055103983,21902.0,1.6331023030817586210490055103983
235,22091.2339614713254932099223030840422,22089.6,1.6339614713254932099223030840422
236,22279.6348169959908497951807124363236,22278.0,1.6348169959908497951807124363236
237,22468.8356689079672992939523853149354,22467.2,1.6356689079672992939523853149354
238,22658.8365172377546563503233871353919,22657.2,1.6365172377546563503233871353919
