Eigenstate,Energy,Kinetic Energy,Potential Energy
1,0.500000000024169101870089649225563206,0.0,0.500000000024169101870089649225563206
2,1.84623093780887784204423162968132356,1.2,0.64623093780887784204423162968132356
3,3.93633761016839185074120187309886161,3.2,0.73633761016839185074120187309886161
4,6.79966527877948053078254891551155707,6.0,0.79966527877948053078254891551155707
5,10.4480465769576791517157276196427402,9.6,0.8480465769576791517157276196427402
6,14.8870659994575127197607847184419933,14.0,0.8870659994575127197607847184419933
7,20.1197208277170851668110640875301951,19.2,0.9197208277170851668110640875301951
8,26.1477838481133111748529735163312881,25.2,0.9477838481133111748529735163312881
9,32.9723835596524551963594937913475663,32.0,0.9723835596524551963594937913475663
10,40.5942802164830819528809219550343795,39.6,0.9942802164830819528809219550343795
11,49.0140093887462268176598587580480659,48.0,1.0140093887462268176598587580480659
12,58.2319621717465179014001891227303779,57.2,1.0319621717465179014001891227303779
13,68.2484326955497626537352114158502377,67.2,1.0484326955497626537352114158502377
14,79.0636476578391064004680110580640020,78.0,1.0636476578391064004680110580640020
15,90.6777854397292154236771527856374032,89.6,1.0777854397292154236771527856374032
16,103.090988910636720960018601134521614,102.0,1.090988910636720960018601134521614
17,116.303374261741722941416281343085937,115.2,1.103374261741722941416281343085937
18,130.315037256993989146520195341052090,129.2,1.115037256993989146520195341052090
19,145.126057756216932671074705831264586,144.0,1.126057756216932671074705831264586
20,160.736503052741548312031287854693341,159.6,1.136503052741548312031287854693341
21,177.146430379488109733030929081546731,176.0,1.146430379488109733030929081546731
22,194.355888820124909607068830180764896,193.2,1.155888820124909607068830180764896
23,212.364920787004784291239848716234247,211.2,1.164920787004784291239848716234247
24,231.173563178565536009321643590999832,230.0,1.173563178565536009321643590999832
25,250.781848296125859267653555712762153,249.6,1.181848296125859267653555712762153
26,271.189804577692928629404373567002846,270.0,1.189804577692928629404373567002846
27,292.397457190924974572438819758839260,291.2,1.197457190924974572438819758839260
28,314.404828516490323347734953545869250,313.2,1.204828516490323347734953545869250
29,337.211938545269348934385947710440505,336.0,1.211938545269348934385947710440505
30,360.818805207196297618325821991868459,359.6,1.218805207196297618325821991868459
31,385.225444645392007222124538145711959,384.0,1.225444645392007222124538145711959
32,410.431871446160643428679978554220735,409.2,1.231871446160643428679978554220735
33,436.438098833113927837661882369974004,435.2,1.238098833113927837661882369974004
34,463.244138831935786127533044827373433,462.0,1.244138831935786127533044827373433
35,490.850002410961149630379860336171538,489.6,1.250002410961149630379860336171538
36,519.255699601709164748326442988350521,518.0,1.255699601709164748326442988350521
37,548.461239602706980091868663800700272,547.2,1.261239602706980091868663800700272
38,578.466630869309862477389915945481508,577.2,1.266630869309862477389915945481508
39,609.271881191725544271658107808491128,608.0,1.271881191725544271658107808491128
40,640.876997763054883787604350472982958,639.6,1.276997763054883787604350472982958
41,673.281987238844170162001109921083646,672.0,1.281987238844170162001109921083646
42,706.486855789389411544184058767658497,705.2,1.286855789389411544184058767658497
43,740.491609145826459080072154995984569,739.2,1.291609145826459080072154995984569
44,775.296252640872725160258772042546009,774.0,1.296252640872725160258772042546009
45,810.900791244948684831968678088359662,809.6,1.300791244948684831968678088359662
46,847.305229598294212992098358682918905,846.0,1.305229598294212992098358682918905
47,884.509572039601333366239484620621215,883.2,1.309572039601333366239484620621215
48,922.513822631607368914348938964458550,921.2,1.313822631607368914348938964458550
49,961.317985184027820759842265198605802,960.0,1.317985184027820759842265198605802
50,1000.92206327415418002524257331655316,999.6,1.32206327415418002524257331655316
51,1041.32606026539640999505159055092690,1040.0,1.32606026539640999505159055092690
52,1082.52997932401149081221616279142840,1081.2,1.32997932401149081221616279142840
53,1124.53382343422696879602262021604175,1123.2,1.33382343422696879602262021604175
54,1167.33759541194089133779961452467216,1166.0,1.33759541194089133779961452467216
55,1210.94129791715603283830187652386993,1209.6,1.34129791715603283830187652386993
56,1255.34493346528624258052533694241270,1254.0,1.34493346528624258052533694241270
57,1300.54850443745554646658771930824325,1299.2,1.34850443745554646658771930824325
58,1346.55201308989583736102011846224972,1345.2,1.35201308989583736102011846224972
59,1393.35546156253623483554187521457410,1392.0,1.35546156253623483554187521457410
60,1440.95885188686617060269054995008907,1439.6,1.35885188686617060269054995008907
61,1489.36218599314469169817567680670343,1488.0,1.36218599314469169817567680670343
62,1538.56546571702017246671280724373718,1537.2,1.36546571702017246671280724373718
63,1588.56869280561738451707487953436649,1587.2,1.36869280561738451707487953436649
64,1639.37186892314256133217683203924499,1638.0,1.37186892314256133217683203924499
65,1690.97499565605155938003738889848701,1689.6,1.37499565605155938003738889848701
66,1743.37807451782137023240856176284187,1742.0,1.37807451782137023240856176284187
67,1796.58110695336097590653823602856313,1795.2,1.38110695336097590653823602856313
68,1850.58409434309378348472318565292224,1849.2,1.38409434309378348472318565292224
69,1905.38703800674056239558353763689633,1904.0,1.38703800674056239558353763689633
70,1960.98993920682887947272607316935183,1959.6,1.38993920682887947272607316935183
71,2017.39279915195242820273298702386328,2016.0,1.39279915195242820273298702386328
72,2074.59561899980135033203314490441155,2073.2,1.39561899980135033203314490441155
73,2132.59839985998259499580968989270691,2131.2,1.39839985998259499580968989270691
74,2191.40114279664754168354526205284256,2190.0,1.40114279664754168354526205284256
75,2251.00384883094248225470326860502165,2249.6,1.40384883094248225470326860502165
76,2311.40651894329610766128855393556621,2310.0,1.40651894329610766128855393556621
77,2372.60915407555684263561282400336448,2371.2,1.40915407555684263561282400336448
78,2434.61175513299170580341010330660025,2433.2,1.41175513299170580341010330660025
79,2497.41432298615732586245533757387068,2496.0,1.41432298615732586245533757387068
80,2561.01685847265280634119487986402381,2559.6,1.41685847265280634119487986402381
81,2625.41936239876328211042104743885555,2624.0,1.41936239876328211042104743885555
82,2690.62183554100224937046947552560231,2689.2,1.42183554100224937046947552560231
83,2756.62427864756006210262835524961251,2755.2,1.42427864756006210262835524961251
84,2823.42669243966536368173255684964416,2822.0,1.42669243966536368173255684964416
85,2891.02907761286566307074196321092475,2889.6,1.42907761286566307074196321092475
86,2959.43143483823274915271404690205545,2958.0,1.43143483823274915271404690205545
87,3028.63376476349817928478087172084638,3027.2,1.43376476349817928478087172084638
88,3098.63606801412365478100499221005226,3097.2,1.43606801412365478100499221005226
89,3169.43834519431071252882725807516382,3168.0,1.43834519431071252882725807516382
90,3241.04059688795381872709023073601603,3239.6,1.44059688795381872709023073601603
91,3313.44282365954062928157026754816863,3312.0,1.44282365954062928157026754816863
92,3386.64502605500289309641215687733343,3385.2,1.44502605500289309641215687733343
93,3460.64720460252121224480459842611165,3459.2,1.44720460252121224480459842611165
94,3535.44935981328663007349669458334271,3534.0,1.44935981328663007349669458334271
95,3611.05149218222179714172662668462260,3609.6,1.45149218222179714172662668462260
96,3687.45360218866426307301723658577667,3686.0,1.45360218866426307301723658577667
97,3764.65569029701425805618366550654798,3763.2,1.45569029701425805618366550654798
98,3842.65775695734915485760344712450121,3841.2,1.45775695734915485760344712450121
99,3921.45980260600664873461037607284706,3920.0,1.45980260600664873461037607284706
100,4001.06182766613854629945734883369175,3999.6,1.46182766613854629945734883369175
101,4081.46383254823692507913894388767949,4080.0,1.46383254823692507913894388767949
102,4162.66581765063429994164339430178112,4161.2,1.46581765063429994164339430178112
103,4244.66778335997932464559071651295933,4243.2,1.46778335997932464559071651295933
104,4327.46973005168944950550341043654192,4326.0,1.46973005168944950550341043654192
105,4411.07165809038186309119914785428320,4409.6,1.47165809038186309119914785428320
106,4495.47356783028395511555123805938549,4494.0,1.47356783028395511555123805938549
107,4580.67545961562445958290719637640267,4579.2,1.47545961562445958290719637640267
108,4666.67733378100635803090137250626043,4665.2,1.47733378100635803090137250626043
109,4753.47919065176255410486343820634034,4752.0,1.47919065176255410486343820634034
110,4841.08103054429526828389945491286756,4839.6,1.48103054429526828389945491286756
111,4929.48285376640003571652373679658607,4928.0,1.48285376640003571652373679658607
112,5018.68466061757514069008624637171205,5017.2,1.48466061757514069008624637171205
113,5108.68645138931726572244617376062109,5107.2,1.48645138931726572244617376062109
114,5199.48822636540408450658603212551487,5198.0,1.48822636540408450658603212551487
115,5291.08998582216448749035800655073102,5289.6,1.48998582216448749035800655073102
116,5383.49173002873708054190608943674754,5382.0,1.49173002873708054190608943674754
117,5476.69345924731756543830076341084369,5475.2,1.49345924731756543830076341084369
118,5570.69517373339556988381743433981566,5569.2,1.49517373339556988381743433981566
119,5665.49687373598146105057349522419477,5664.0,1.49687373598146105057349522419477
120,5761.09855949782365079200395915746697,5759.6,1.49855949782365079200395915746697
121,5857.50023125561686241241133093584446,5856.0,1.50023125561686241241133093584446
122,5954.70188924020180996269264066021715,5953.2,1.50188924020180996269264066021715
123,6052.70353367675670883941453383862004,6051.2,1.50353367675670883941453383862004
124,6151.50516478498101878459866568833569,6150.0,1.50516478498101878459866568833569
125,6251.10678277927179081731655605485241,6249.6,1.50678277927179081731655605485241
126,6351.50838786889297443089547122917387,6350.0,1.50838786889297443089547122917387
127,6452.70998025813802081165053077040127,6451.2,1.50998025813802081165053077040127
128,6554.71156014648609524786834420145867,6553.2,1.51156014648609524786834420145867
129,6657.51312772875219982452935856217544,6656.0,1.51312772875219982452935856217544
130,6761.11468319523148911738886159284907,6759.6,1.51468319523148911738886159284907
131,6865.51622673183804619591848848469559,6864.0,1.51622673183804619591848848469559
132,6970.71775852023837126740930686859473,6969.2,1.51775852023837126740930686859473
133,7076.71927873797982351295355233949127,7075.2,1.51927873797982351295355233949127
134,7183.52078755861424539006331095887637,7182.0,1.52078755861424539006331095887637
135,7291.12228515181698056834188654833698,7289.6,1.52228515181698056834188654833698
136,7399.52377168350149297709323823071667,7398.0,1.52377168350149297709323823071667
137,7508.72524731592978113581136804609804,7507.2,1.52524731592978113581136804609804
138,7618.72671220781876832650080719668298,7617.2,1.52671220781876832650080719668298
139,7729.52816651444284706087387380550296,7728.0,1.52816651444284706087387380550296
140,7841.12961038773274084950197364881857,7839.6,1.52961038773274084950197364881857
141,7953.53104397637084172250839517235908,7952.0,1.53104397637084172250839517235908
142,8066.73246742588317387812288216963845,8065.2,1.53246742588317387812288216963845
143,8180.73388087872812518524895422141417,8179.2,1.53388087872812518524895422141417
144,8295.53528447438208108655815197322024,8294.0,1.53528447438208108655815197322024
145,8411.13667834942209126086596715214253,8409.6,1.53667834942209126086596715214253
146,8527.53806263760569153479362571569443,8526.0,1.53806263760569153479362571569443
147,8644.73943746994799533075369215712673,8643.2,1.53943746994799533075369215712673
148,8762.74080297479616998026414459079560,8761.2,1.54080297479616998026414459079560
149,8881.54215927790139970352136310404127,8880.0,1.54215927790139970352136310404127
150,9001.14350650248843889608527911192173,8999.6,1.54350650248843889608527911192173
151,9121.54484476932285163690605416783620,9120.0,1.54484476932285163690605416783620
152,9242.74617419677602771683711822628361,9241.2,1.54617419677602771683711822628361
153,9364.74749490088806413730273259723499,9363.2,1.54749490088806413730273259723499
154,9487.54880699542859597833612632168295,9486.0,1.54880699542859597833612632168295
155,9611.15011059195565487195463712094310,9609.6,1.55011059195565487195463712094310
156,9735.55140579987263294720817214124788,9734.0,1.55140579987263294720817214124788
157,9860.75269272648342329347716658658998,9859.2,1.55269272648342329347716658658998
158,9986.75397147704580876009389915301936,9985.2,1.55397147704580876009389915301936
159,10113.5552421548231627650929455950266,10112.0,1.5552421548231627650929455950266
160,10241.1565048611345284506008217155906,10239.6,1.5565048611345284506008217155906
161,10369.5577596954031346809561986650965,10368.0,1.5577596954031346809561986650965
162,10498.7590067552034083446323714859967,10497.2,1.5590067552034083446323714859967
163,10628.7602461363065378132317049043972,10627.2,1.5602461363065378132317049043972
164,10759.5614779327246421941173763083858,10758.0,1.5614779327246421941173763083858
165,10891.1627022367535949768704128008719,10889.6,1.5627022367535949768704128008719
166,11023.5639191390145525891311294215143,11022.0,1.5639191390145525891311294215143
167,11156.7651287284942350941147281391187,11155.2,1.5651287284942350941147281391187
168,11290.7663310925840017186849472148491,11289.2,1.5663310925840017186849472148491
169,11425.5675263171177662740466434259572,11424.0,1.5675263171177662740466434259572
170,11561.1687144864087922121433981568111,11559.6,1.5687144864087922121433981568111
171,11697.5698956832854075121912157076515,11696.0,1.5698956832854075121912157076515
172,11834.7710699891256772639765055479289,11833.2,1.5710699891256772639765055479289
173,11972.7722374838910693502195021470015,11971.2,1.5722374838910693502195021470015
174,12111.5733982461591490714872737815756,12110.0,1.5733982461591490714872737815756
175,12251.1745523531553366985597054943959,12249.6,1.5745523531553366985597054943959
176,12391.5756998807837576585714583603820,12390.0,1.5756998807837576585714583603820
177,12532.7768409036572186154376220845562,12531.2,1.5768409036572186154376220845562
178,12674.7779754951263385989294675636362,12673.2,1.5779754951263385989294675636362
179,12817.5791037273078616273163257321881,12816.0,1.5791037273078616273163257321881
180,12961.1802256711121817699426315840456,12959.6,1.5802256711121817699426315840456
181,13105.5813413962701032982964696256212,13104.0,1.5813413962701032982964696256212
182,13250.7824509713588636209250385977335,13249.2,1.5824509713588636209250385977335
183,13396.7835544638274420514411229182849,13395.2,1.5835544638274420514411229182849
184,13543.5846519400211786511265269498990,13542.0,1.5846519400211786511265269498990
185,13691.1857434652057249542257945670447,13689.6,1.5857434652057249542257945670447
186,13839.5868291035903475445193713832938,13838.0,1.5868291035903475445193713832938
187,13988.7879089183506082836433713383620,13987.2,1.5879089183506082836433713383620
188,14138.7889829716504366274400213515373,14137.2,1.5889829716504366274400213515373
189,14289.5900513246636177613959475293909,14288.0,1.5900513246636177613959475293909
190,14441.1911140375947122062123733940308,14439.6,1.5911140375947122062123733940308
191,14593.5921711696994261160251100738554,14592.0,1.5921711696994261160251100738554
192,14746.7932227793044486514425846108732,14745.2,1.5932227793044486514425846108732
193,14900.7942689238267747312146520500678,14899.2,1.5942689238267747312146520500678
194,15055.5953096597925265032789142291463,15054.0,1.5953096597925265032789142291463
195,15211.1963450428552914675067575748196,15209.6,1.5963450428552914675067575748196
196,15367.5973751278139909420121142308536,15366.0,1.5973751278139909420121142308536
197,15524.7983999686302932483063734129341,15523.2,1.5983999686302932483063734129341
198,15682.7994196184455857772407689237065,15681.2,1.5994196184455857772407689237065
199,15841.6004341295975187695520489008033,15840.0,1.6004341295975187695520489008033
200,16001.2014435536361347511725699602045,15999.6,1.6014435536361347511725699602045
201,16161.6024479413395945996837879404986,16160.0,1.6024479413395945996837879404986
202,16322.8034473427295136180248610345156,16321.2,1.6034473427295136180248610345156
203,16484.8044418070859182701384333820386,16483.2,1.6044418070859182701384333820386
204,16647.6054313829618351934154295092967,16646.0,1.6054313829618351934154295092967
205,16811.2064161181975224532510835284111,16809.6,1.6064161181975224532510835284111
206,16975.6073960599343560584093946128486,16974.0,1.6073960599343560584093946128486
207,17140.8083712546283776078216517481594,17139.2,1.6083712546283776078216517481594
208,17306.8093417480635172902239392988630,17305.2,1.6093417480635172902239392988630
209,17473.6103075853644979794614228733485,17472.0,1.6103075853644979794614228733485
210,17641.2112688110094319210587378363897,17639.6,1.6112688110094319210587378363897
211,17809.6122254688421173690130330771805,17808.0,1.6122254688421173690130330771805
212,17978.8131776020840453999320400728352,17977.2,1.6131776020840453999320400728352
213,18148.8141252533461212824054175243215,18147.2,1.6141252533461212824054175243215
214,18319.6150684646401153772930106325963,18318.0,1.6150684646401153772930106325963
215,18491.2160072773898427751550632540497,18489.6,1.6160072773898427751550632540497
216,18663.6169417324420856252750468674843,18662.0,1.6169417324420856252750468674843
217,18836.8178718700772621153108115743884,18835.2,1.6178718700772621153108115743884
218,19010.8187977300198510740171679977656,19009.2,1.6187977300198510740171679977656
219,19185.6197193514485754699690540156472,19184.0,1.6197193514485754699690540156472
220,19361.2206367730063573144060600600174,19359.6,1.6206367730063573144060600600174
221,19537.6215500328100418704811275407820,19536.0,1.6215500328100418704811275407820
222,19714.8224591684599083662717999598359,19713.2,1.6224591684599083662717999598359
223,19892.8233642170489607723778473524200,19891.2,1.6233642170489607723778473524200
224,20071.6242652151720137033961698327263,20070.0,1.6242652151720137033961698327263
225,20251.2251621989345759998080974910583,20249.6,1.6251621989345759998080974910583
226,20431.6260552039615355282122743106009,20430.0,1.6260552039615355282122743106009
227,20612.8269442654056538427420202147905,20611.2,1.6269442654056538427420202147905
228,20794.8278294179558725178588839003030,20793.2,1.6278294179558725178588839003030
229,20977.6287106958454383046578808021839,20976.0,1.6287106958454383046578808021839
230,21161.2295881328598517969131361581006,21159.6,1.6295881328598517969131361581006
231,21345.6304617623446413961185627629100,21344.0,1.6304617623446413961185627629100
232,21530.8313316172129729844285536042081,21529.2,1.6313316172129729844285536042081
233,21716.8321977299530902909869691901876,21715.2,1.6321977299530902909869691901876
234,21903.6330601326356020976943278238160,21902.0,1.6330601326356020976943278238160
235,22091.2339188569206094554967278185887,22089.6,1.6339188569206094554967278185887
236,22279.6347739340646826099483878872091,22278.0,1.6347739340646826099483878872091
237,22468.8356253949276912561580758064722,22467.2,1.6356253949276912561580758064722
238,22658.8364732699794898541132504478442,22657.2,1.6364732699794898541132504478442
