Eigenstate,Energy,Kinetic Energy,Potential Energy
1,0.500000000047426668421984822582420553,0.0,0.500000000047426668421984822582420553
2,1.84623093796069128966084521395342872,1.2,0.64623093796069128966084521395342872
3,3.93633761061433239483665198247504766,3.2,0.73633761061433239483665198247504766
4,6.79966527970832602371011204436463612,6.0,0.79966527970832602371011204436463612
5,10.4480465785666346073788274014342405,9.6,0.8480465785666346073788274014342405
6,14.8870660019472376330812777483475052,14.0,0.8870660019472376330812777483475052
7,20.1197208312898615066004189626828223,19.2,0.9197208312898615066004189626828223
8,26.1477838529722795397635931731088225,25.2,0.9477838529722795397635931731088225
9,32.9723835660012597908023092849310307,32.0,0.9723835660012597908023092849310307
10,40.5942802245256905478579822153304829,39.6,0.9942802245256905478579822153304829
11,49.0140093986868330867712496665305905,48.0,1.0140093986868330867712496665305905
12,58.2319621837894857342541887011256479,57.2,1.0319621837894857342541887011256479
13,68.2484327098995933222799751519790246,67.2,1.0484327098995933222799751519790246
14,79.0636476747004188774860969229507257,78.0,1.0636476747004188774860969229507257
15,90.6777854593067346360096112462848612,89.6,1.0777854593067346360096112462848612
16,103.090988933135271026285455992925906,102.0,1.090988933135271026285455992925906
17,116.303374287366223652391372226735676,115.2,1.103374287366223652391372226735676
18,130.315037285949454620426348997134581,129.2,1.115037285949454620426348997134581
19,145.126057788708471507412125608063821,144.0,1.126057788708471507412125608063821
20,160.736503088974364802858217630012397,159.6,1.136503088974364802858217630012397
21,177.146430419667505836567231889787255,176.0,1.146430419667505836567231889787255
22,194.355888864456287481566153637593816,193.2,1.155888864456287481566153637593816
23,212.364920835693649247908163331732893,211.2,1.164920835693649247908163331732893
24,231.173563231817499783780647694347278,230.0,1.173563231817499783780647694347278
25,250.781848354146643537130248889830426,249.6,1.181848354146643537130248889830426
26,271.189804640688368722184460944180806,270.0,1.189804640688368722184460944180806
27,292.397457259101023329709765836383811,291.2,1.197457259101023329709765836383811
28,314.404828590053055107740862229844812,313.2,1.204828590053055107740862229844812
29,337.211938624424963615935402851327712,336.0,1.211938624424963615935402851327712
30,360.818805292151124885945572319707489,359.6,1.218805292151124885945572319707489
31,385.225444736352510719072201604573064,384.0,1.225444736352510719072201604573064
32,410.431871543333425066988252429877706,409.2,1.231871543333425066988252429877706
33,436.438098936705732136644070586259312,435.2,1.238098936705732136644070586259312
34,463.244138942153504593918306449704940,462.0,1.244138942153504593918306449704940
35,490.850002528011825174597909329150071,489.6,1.250002528011825174597909329150071
36,519.255699725799996132520617398753356,518.0,1.255699725799996132520617398753356
37,548.461239734045326406053236379419849,547.2,1.261239734045326406053236379419849
38,578.466631008103247640833731037626920,577.2,1.266631008103247640833731037626920
39,609.271881338181661557110743651666824,608.0,1.271881338181661557110743651666824
40,640.876997917381600366412093930471748,639.6,1.276997917381600366412093930471748
41,673.281987401249531668510087076579005,672.0,1.281987401249531668510087076579005
42,706.486855960081646658113914216661453,705.2,1.286855960081646658113914216661453
43,740.491609325013984125778707004558050,739.2,1.291609325013984125778707004558050
44,775.296252828764148721998197046467951,774.0,1.296252828764148721998197046467951
45,810.900791441752812384437013562938237,809.6,1.300791441752812384437013562938237
46,847.305229804220051545654669057133012,846.0,1.305229804220051545654669057133012
47,884.509572254858096126333802293077129,883.2,1.309572254858096126333802293077129
48,922.513822856404479954771132078103596,921.2,1.313822856404479954771132078103596
49,961.317985418574919709488332171686360,960.0,1.317985418574919709488332171686360
50,1000.92206351866112676816311144061428,999.6,1.32206351866112676816311144061428
51,1041.32606052007328938360546948812993,1040.0,1.32606052007328938360546948812993
52,1082.52997958906861739320226675788169,1081.2,1.32997958906861739320226675788169
53,1124.53382370987489154970538093818988,1123.2,1.33382370987489154970538093818988
54,1167.33759569839039842978108055152485,1166.0,1.33759569839039842978108055152485
55,1210.94129821461815638422508688462356,1209.6,1.34129821461815638422508688462356
56,1255.34493377397226342362161125484196,1254.0,1.34493377397226342362161125484196
57,1300.54850475757699896810477201910672,1299.2,1.34850475757699896810477201910672
58,1346.55201342166451420358922447224949,1345.2,1.35201342166451420358922447224949
59,1393.35546190616419183956092181155920,1392.0,1.35546190616419183956092181155920
60,1440.95885224256573155581636012519271,1439.6,1.35885224256573155581636012519271
61,1489.36218636112845319803351769764934,1488.0,1.36218636112845319803351769764934
62,1538.56546609750100877694402085008982,1537.2,1.36546609750100877694402085008982
63,1588.56869319880845243685504219846277,1587.2,1.36869319880845243685504219846277
64,1639.37186932925730507934718915931918,1638.0,1.37186932925730507934718915931918
65,1690.97499607530371548800161607873738,1689.6,1.37499607530371548800161607873738
66,1743.37807495042497246095521602935993,1742.0,1.37807495042497246095521602935993
67,1796.58110739953036016675682187922949,1795.2,1.38110739953036016675682187922949
68,1850.58409480304359277818860526585391,1849.2,1.38409480304359277818860526585391
69,1905.38703848068575176799002642920393,1904.0,1.38703848068575176799002642920393
70,1960.98993969498472098215727006106179,1959.6,1.38993969498472098215727006106179
71,2017.39279965453451590276024725917826,2016.0,1.39279965453451590276024725917826
72,2074.59561951702560526983886410550361,2073.2,1.39561951702560526983886410550361
73,2132.59840039206527022553703776510300,2131.2,1.39840039206527022553703776510300
74,2191.40114334380522729507978527365607,2190.0,1.40114334380522729507978527365607
75,2251.00384939339211041809583335539581,2249.6,1.40384939339211041809583335539581
76,2311.40651952125495768703260295180229,2310.0,1.40651952125495768703260295180229
77,2372.60915466924254605099247967865991,2371.2,1.40915466924254605099247967865991
78,2434.61175574262225144513885206502875,2433.2,1.41175574262225144513885206502875
79,2497.41432361195106498582812213583957,2496.0,1.41432361195106498582812213583957
80,2561.01685911482845774597930343234464,2559.6,1.41685911482845774597930343234464
81,2625.41936305753993728371628873982428,2624.0,1.41936305753993728371628873982428
82,2690.62183621659937764676413337897125,2689.2,1.42183621659937764676413337897125
83,2756.62427934019751584129106077741336,2755.2,1.42427934019751584129106077741336
84,2823.42669314956338346217167363573538,2822.0,1.42669314956338346217167363573538
85,2891.02907834024488290547316952833657,2889.6,1.42907834024488290547316952833657
86,2959.43143558331420171857686007681778,2958.0,1.43143558331420171857686007681778
87,3028.63376552650330117254758892251490,3027.2,1.43376552650330117254758892251490
88,3098.63606879527429176362769743820744,3097.2,1.43606879527429176362769743820744
89,3169.43834599382912484857076162207814,3168.0,1.43834599382912484857076162207814
90,3241.04059770606268640180098109406596,3239.6,1.44059770606268640180098109406596
91,3313.44282449646305743033344107791034,3312.0,1.44282449646305743033344107791034
92,3386.64502691096241728485119607148102,3385.2,1.44502691096241728485119607148102
93,3460.64720547774180385027959788275210,3459.2,1.44720547774180385027959788275210
94,3535.44936070799270167046007587407342,3534.0,1.44936070799270167046007587407342
95,3611.05149309663820790749664293558426,3609.6,1.45149309663820790749664293558426
96,3687.45360312301632421423181756595098,3686.0,1.45360312301632421423181756595098
97,3764.65569125152773825619928108772995,3763.2,1.45569125152773825619928108772995
98,3842.65775793225028574510553729891385,3841.2,1.45775793225028574510553729891385
99,3921.45980360152213037370410641038795,3920.0,1.45980360152213037370410641038795
100,4001.06182868249555270150934253787075,3999.6,1.46182868249555270150934253787075
101,4081.46383358566310973664276660745149,4080.0,1.46383358566310973664276660745149
102,4162.66581870935780138438357680048890,4161.2,1.46581870935780138438357680048890
103,4244.66778444022877201938209308749431,4243.2,1.46778444022877201938209308749431
104,4327.46973115369396817378478376283597,4326.0,1.46973115369396817378478376283597
105,4411.07165921437108025976214459754188,4409.6,1.47165921437108025976214459754188
106,4495.47356897648800548068743183621320,4494.0,1.47356897648800548068743183621320
107,4580.67546078427399100325864052748937,4579.2,1.47546078427399100325864052748937
108,4666.67733497233253722330173501458431,4665.2,1.47733497233253722330173501458431
109,4753.47919186599707236445915395950665,4752.0,1.47919186599707236445915395950665
110,4841.08103178167034722884235131563485,4839.6,1.48103178167034722884235131563485
111,4929.48285502714843305752878104505221,4928.0,1.48285502714843305752878104505221
112,5018.68466190193015602515025135046430,5017.2,1.48466190193015602515025135046430
113,5108.68645269751274635702545106869793,5107.2,1.48645269751274635702545106869793
114,5199.48822769767443129953325726729166,5198.0,1.48822769767443129953325726729166
115,5291.08998717874466072592068922346874,5289.6,1.48998717874466072592068922346874
116,5383.49173140986260582809139812547146,5382.0,1.49173140986260582809139812547146
117,5476.69346065322453963191369586220195,5475.2,1.49346065322453963191369586220195
118,5570.69517516432066704248157303465728,5569.2,1.49517516432066704248157303465728
119,5665.49687519216193841204596389729410,5664.0,1.49687519216193841204596389729410
120,5761.09856097949735478109861977362141,5759.6,1.49856097949735478109861977362141
121,5857.50023276302223467584642519049011,5856.0,1.50023276302223467584642519049011
122,5954.70189077357789343218168890567902,5953.2,1.50189077357789343218168890567902
123,6052.70353523634315382332161357647197,6051.2,1.50353523634315382332161357647197
124,6151.50516637101808908848168065728076,6150.0,1.50516637101808908848168065728076
125,6251.10678439200036989368453544203366,6249.6,1.50678439200036989368453544203366
126,6351.50838950855457155850855984719951,6350.0,1.50838950855457155850855984719951
127,6452.70998192497477730469373543011723,6451.2,1.50998192497477730469373543011723
128,6554.71156184074079069533279052105022,6553.2,1.51156184074079069533279052105022
129,6657.51312945066825836013729435483790,6656.0,1.51312945066825836013729435483790
130,6761.11468494505298572040133487925936,6759.6,1.51468494505298572040133487925936
131,6865.51622850980971302316722726190220,6864.0,1.51622850980971302316722726190220
132,6970.71776032660560401689718708151018,6969.2,1.51776032660560401689718708151018
133,7076.71928057298868781937044320119355,7075.2,1.51928057298868781937044320119355
134,7183.52078942251148325256712495938368,7182.0,1.52078942251148325256712495938368
135,7291.12228704485001681095739024975597,7289.6,1.52228704485001681095739024975597
136,7399.52377360591844174208381500593758,7398.0,1.52377360591844174208381500593758
137,7508.72524926797945241038200584529800,7507.2,1.52524926797945241038200584529800
138,7618.72671418975067450319331484241780,7617.2,1.52671418975067450319331484241780
139,7729.52816852650720953201831762014637,7728.0,1.52816852650720953201831762014637
140,7841.12961243018049663609130147424230,7839.6,1.52961243018049663609130147424230
141,7953.53104604945365013786611833127469,7952.0,1.53104604945365013786611833127469
142,8066.73246952985342322673672295435662,8065.2,1.53246952985342322673672295435662
143,8180.73388301383893949714656197861398,8179.2,1.53388301383893949714656197861398
144,8295.53528664088732688760392006774207,8294.0,1.53528664088732688760392006774207
145,8411.13668054757638437936122599892186,8409.6,1.53668054757638437936122599892186
146,8527.53806486766440394476557434883634,8526.0,1.53806486766440394476557434883634
147,8644.73943973216726203232174136081923,8643.2,1.53943973216726203232174136081923
148,8762.74080526943289591747553441210099,8761.2,1.54080526943289591747553441210099
149,8881.54216160521326672005125227363143,8880.0,1.54216160521326672005125227363143
150,9001.14350886273391272919967826933122,8999.6,1.54350886273391272919967826933122
151,9121.54484716276118895008964719662320,9120.0,1.54484716276118895008964719662320
152,9242.74617662366728317149115073942853,9241.2,1.54617662366728317149115073942853
153,9364.74749736149309750392170118347882,9363.2,1.54749736149309750392170118347882
154,9487.54880949000907928757552691549616,9486.0,1.54880949000907928757552691549616
155,9611.15011312077407960600546632405300,9609.6,1.55011312077407960600546632405300
156,9735.55140836319231727189769423631407,9734.0,1.55140836319231727189769423631407
157,9860.75269532456851933151873734433751,9859.2,1.55269532456851933151873734433751
158,9986.75397411016130990591258128132670,9985.2,1.55397411016130990591258128132670
159,10113.5552448232349110416572294981212,10112.0,1.5552448232349110416572294981212
160,10241.1565075651092219086945909595335,10239.6,1.5565075651092219086945909595335
161,10369.5577624352083348413288321543742,10368.0,1.5577624352083348413288321543742
162,10498.7590095311075476834688416789192,10497.2,1.5590095311075476834688416789192
163,10628.7602489485789272913880950410587,10627.2,1.5602489485789272913880950410587
164,10759.5614807816354788305716722118453,10758.0,1.5614807816354788305716722118453
165,10891.1627051225739694668421028300044,10889.6,1.5627051225739694668421028300044
166,11023.5639220620164569673271754350425,11022.0,1.5639220620164569673271754350425
167,11156.7651316889505704435636744891934,11155.2,1.5651316889505704435636744891934
168,11290.7663340907685859256251281137341,11289.2,1.5663340907685859256251281137341
169,11425.5675293533053418293383575023655,11424.0,1.5675293533053418293383575023655
170,11561.1687175608750340596795761022753,11559.6,1.5687175608750340596795761022753
171,11697.5698987963069309447850315681543,11696.0,1.5698987963069309447850315681543
172,11834.7710731409800458672089493734364,11833.2,1.5710731409800458672089493734364
173,11972.7722406748568029947341469341834,11971.2,1.5722406748568029947341469341834
174,12111.5734014765157319542241555153133,12110.0,1.5734014765157319542241555153133
175,12251.1745556231832254334245999917817,12249.6,1.5745556231832254334245999917817
176,12391.5757031907643894170413287000141,12390.0,1.5757031907643894170413287000141
177,12532.7768442538730193176078328428656,12531.2,1.5768442538730193176078328428656
178,12674.7779788858607311555127911486567,12673.2,1.5779788858607311555127911486567
179,12817.5791071588452742331087767564644,12816.0,1.5791071588452742331087767564644
180,12961.1802291437380562492756778213607,12959.6,1.5802291437380562492756778213607
181,13105.5813449102709035030002262959232,13104.0,1.5813449102709035030002262959232
182,13250.7824545270220838813318084145009,13249.2,1.5824545270220838813318084145009
183,13396.7835580614416156809637274596905,13395.2,1.5835580614416156809637274596905
184,13543.5846555798758865049508035880816,13542.0,1.5846555798758865049508035880816
185,13691.1857471475916040426618831290735,13689.6,1.5857471475916040426618831290735
186,13839.5868328287990997015612596633118,13838.0,1.5868328287990997015612596633118
187,13988.7879126866750088912917776637213,13987.2,1.5879126866750088912917776637213
188,14138.7889867833843433963486378473538,14137.2,1.5889867833843433963486378473538
189,14289.5900551801019795684065902690749,14288.0,1.5900551801019795684065902690749
190,14441.1911179370335779893499671407188,14439.6,1.5911179370335779893499671407188
191,14593.5921751134359538275288406090636,14592.0,1.5921751134359538275288406090636
192,14746.7932267676369142694151427164076,14745.2,1.5932267676369142694151427164076
193,14900.7942729570545813304772098994778,14899.2,1.5942729570545813304772098994778
194,15055.5953137382162133860248625166327,15054.0,1.5953137382162133860248625166327
195,15211.1963491667765433543533578112964,15209.6,1.5963491667765433543533578112964
196,15367.5973792975356472240546913677976,15366.0,1.5973792975356472240546913677976
197,15524.7984041844563573007858534732793,15523.2,1.5984041844563573007858534732793
198,15682.7994238806812343354410489535817,15681.2,1.5994238806812343354410489535817
199,15841.6004384385491113675500120684986,15840.0,1.6004384385491113675500120684986
200,16001.2014479096112232240695057601181,15999.6,1.6014479096112232240695057601181
201,16161.6024523446469326499530479163103,16160.0,1.6024523446469326499530479163103
202,16322.8034517936790664466172345891998,16321.2,1.6034517936790664466172345891998
203,16484.8044463059888722729925756920526,16483.2,1.6044463059888722729925756920526
204,16647.6054359301306077240275411102283,16646.0,1.6054359301306077240275411102283
205,16811.2064207139457716519641632411049,16809.6,1.6064207139457716519641632411049
206,16975.6074007045769907490892519843510,16974.0,1.6074007045769907490892519843510
207,17140.8083759484815672625933273141017,17139.2,1.6083759484815672625933273141017
208,17306.8093464914447020629491221211849,17305.2,1.6093464914447020629491221211849
209,17473.6103123785923988086441052681003,17472.0,1.6103123785923988086441052681003
210,17641.2112736544040607028733246708120,17639.6,1.6112736544040607028733246708120
211,17809.6122303627247872011560955680988,17808.0,1.6122303627247872011560955680988
212,17978.8131825467773808970060149287314,17977.2,1.6131825467773808970060149287314
213,18148.8141302491740689635497974413880,18147.2,1.6141302491740689635497974413880
214,18319.6150735119279541267857111583742,18318.0,1.6150735119279541267857111583742
215,18491.2160123764641943767139679414504,18489.6,1.6160123764641943767139679414504
216,18663.6169468836309253707974456854065,18662.0,1.6169468836309253707974456854065
217,18836.8178770737099294887955254112203,18835.2,1.6178770737099294887955254112203
218,19010.8188029864270605114223114131304,19009.2,1.6188029864270605114223114131304
219,19185.6197246609624271957658271845552,19184.0,1.6197246609624271957658271845552
220,19361.2206421359603482555966215736207,19359.6,1.6206421359603482555966215736207
221,19537.6215554495390766488570271010177,19536.0,1.6215554495390766488570271010177
222,19714.8224646393003103696968498929761,19713.2,1.6224646393003103696968498929761
223,19892.8233697423384833058879518583114,19891.2,1.6233697423384833058879518583114
224,20071.6242707952498512209164405099354,20070.0,1.6242707952498512209164405099354
225,20251.2251678341413754172964316246675,20249.6,1.6251678341413754172964316246675
226,20431.6260608946394076190463975372474,20430.0,1.6260608946394076190463975372474
227,20612.8269500118981847161760144440528,20611.2,1.6269500118981847161760144440528
228,20794.8278352206081351813835421902144,20793.2,1.6278352206081351813835421902144
229,20977.6287165550040043111082499299215,20976.0,1.6287165550040043111082499299215
230,21161.2295940488728029771751293307714,21159.6,1.6295940488728029771751293307714
231,21345.6304677355615816782960888730777,21344.0,1.6304677355615816782960888730777
232,21530.8313376479850403003409233834595,21529.2,1.6313376479850403003409233834595
233,21716.8322038186329685708762558266102,21715.2,1.6322038186329685708762558266102
234,21903.6330662795775333540312294402908,21902.0,1.6330662795775333540312294402908
235,22091.2339250624804059567830913037352,22089.6,1.6339250624804059567830913037352
236,22279.6347801985997391454241629986574,22278.0,1.6347801985997391454241629986574
237,22468.8356317187969974923299887986916,22467.2,1.6356317187969974923299887986916
238,22658.8364796535436427840325729549005,22657.2,1.6364796535436427840325729549005
