Eigenstate,Energy,Kinetic Energy,Potential Energy
1,0.500000000012619341225995256242352511,0.0,0.500000000012619341225995256242352511
2,1.84623093773348710444426028326403992,1.2,0.64623093773348710444426028326403992
3,3.93633760994693801114897858416850240,3.2,0.73633760994693801114897858416850240
4,6.79966527831821852179199635555268457,6.0,0.79966527831821852179199635555268457
5,10.4480465761586812836927357982910010,9.6,0.8480465761586812836927357982910010
6,14.8870659982211389259729208371669601,14.0,0.8870659982211389259729208371669601
7,20.1197208259428935836888539518049273,19.2,0.9197208259428935836888539518049273
8,26.1477838457004382707511675841575273,25.2,0.9477838457004382707511675841575273
9,32.9723835564997928800822119010950657,32.0,0.9723835564997928800822119010950657
10,40.5942802124893677849605564909060581,39.6,0.9942802124893677849605564909060581
11,49.0140093838100933145888824713191112,48.0,1.0140093838100933145888824713191112
12,58.2319621657665209944512359596607412,57.2,1.0319621657665209944512359596607412
13,68.2484326884243987996550590219719872,67.2,1.0484326884243987996550590219719872
14,79.0636476494668231614986364279918562,78.0,1.0636476494668231614986364279918562
15,90.6777854300084181079341739052320255,89.6,1.0777854300084181079341739052320255
16,103.090988899465776787365348740795527,102.0,1.090988899465776787365348740795527
17,116.303374249018963599885231173184713,115.2,1.103374249018963599885231173184713
18,130.315037242617712269572273716621725,129.2,1.115037242617712269572273716621725
19,145.126057740085402571644931520801547,144.0,1.126057740085402571644931520801547
20,160.736503034752996192456925454158931,159.6,1.136503034752996192456925454158931
21,177.146430359540733517479429887711116,176.0,1.146430359540733517479429887711116
22,194.355888798116873496863332123742496,193.2,1.155888798116873496863332123742496
23,212.364920762834218113264312432024679,211.2,1.164920762834218113264312432024679
24,231.173563152130534407487078934351837,230.0,1.173563152130534407487078934351837
25,250.781848267324480773625112977240511,249.6,1.181848267324480773625112977240511
26,271.189804546423194639211801241916545,270.0,1.189804546423194639211801241916545
27,292.397457157084868248824349950035789,291.2,1.197457157084868248824349950035789
28,314.404828479977788463235032481930803,313.2,1.204828479977788463235032481930803
29,337.211938505982288666607217930411793,336.0,1.211938505982288666607217930411793
30,360.818805165032573306267984995656987,359.6,1.218805165032573306267984995656987
31,385.225444600249437090456143692076137,384.0,1.225444600249437090456143692076137
32,410.431871397937001285403815535691950,409.2,1.231871397937001285403815535691950
33,436.438098781706941749485887647690369,435.2,1.238098781706941749485887647690369
34,463.244138777243137076399467119366500,462.0,1.244138777243137076399467119366500
35,490.850002352880470153934576464685251,489.6,1.250002352880470153934576464685251
36,519.255699540138037566584540665745893,518.0,1.255699540138037566584540665745893
37,548.461239537542936721916996078794807,547.2,1.261239537542936721916996078794807
38,578.466630800450381837636705663361239,577.2,1.266630800450381837636705663361239
39,609.271881119068051276874668036562811,608.0,1.271881119068051276874668036562811
40,640.876997686496747935790126715061399,639.6,1.276997686496747935790126715061399
41,673.281987158282704113929646484549124,672.0,1.281987158282704113929646484549124
42,706.486855704721869696345667045787524,705.2,1.286855704721869696345667045787524
43,740.491609056950036131612585733305374,739.2,1.291609056950036131612585733305374
44,775.296252547684554674417026410202525,774.0,1.296252547684554674417026410202525
45,810.900791147345837792437268594412473,809.6,1.300791147345837792437268594412473
46,847.305229496173696354662767070830209,846.0,1.305229496173696354662767070830209
47,884.509571932860088605997813258330564,883.2,1.309571932860088605997813258330564
48,922.513822520142270568765820828417138,921.2,1.313822520142270568765820828417138
49,961.317985067735674967851465307724425,960.0,1.317985067735674967851465307724425
50,1000.92206315293172306257908606645280,999.6,1.32206315293172306257908606645280
51,1041.32606013914030680596538259457434,1040.0,1.32606013914030680596538259457434
52,1082.52997919261833353769524527781373,1081.2,1.32997919261833353769524527781373
53,1124.53382329759327529863213413940196,1123.2,1.33382329759327529863213413940196
54,1167.33759526996310372322553077025220,1166.0,1.33759526996310372322553077025220
55,1210.94129776973051597367231125670465,1209.6,1.34129776973051597367231125670465
56,1255.34493331230928260956895305410783,1254.0,1.34493331230928260956895305410783
57,1300.54850427882334932167695606586046,1299.2,1.34850427882334932167695606586046
58,1346.55201292550452727213670195794783,1345.2,1.35201292550452727213670195794783
59,1393.35546139228185283619315988981895,1392.0,1.35546139228185283619315988981895
60,1440.95885171064467303279735940560422,1439.6,1.35885171064467303279735940560422
61,1489.36218581085194870394542580485028,1488.0,1.36218581085194870394542580485028
62,1538.56546552855196649750558231829740,1537.2,1.36546552855196649750558231829740
63,1588.56869261086940881926479759335999,1587.2,1.36869261086940881926479759335999
64,1639.37186872201041844000623956838570,1638.0,1.37186872201041844000623956838570
65,1690.97499544843075960345718514981841,1689.6,1.37499544843075960345718514981841
66,1743.37807430360733014189420481536232,1742.0,1.37807430360733014189420481536232
67,1796.58110673244901681486759533951023,1795.2,1.38110673244901681486759533951023
68,1850.58409411537912992569940348642057,1849.2,1.38409411537912992569940348642057
69,1905.38703777211834059968331153724025,1904.0,1.38703777211834059968331153724025
70,1960.98993896519411583965141618957087,1959.6,1.38993896519411583965141618957087
71,2017.39279890320004777084221187403781,2016.0,1.39279890320004777084221187403781
72,2074.59561874382617524462494453204079,2073.2,1.39561874382617524462494453204079
73,2132.59839959667934296423229336813777,2131.2,1.39839959667934296423229336813777
74,2191.40114252591082444710105369679109,2190.0,1.40114252591082444710105369679109
75,2251.00384855266680403731773712511904,2249.6,1.40384855266680403731773712511904
76,2311.40651865737586362491108878358407,2310.0,1.40651865737586362491108878358407
77,2372.60915378188631733031561917491011,2371.2,1.40915378188631733031561917491011
78,2434.61175483146507161415027575653648,2433.2,1.41175483146507161415027575653648
79,2497.41432267666864145246429548913244,2496.0,1.41432267666864145246429548913244
80,2561.01685815509601509195802615767866,2559.6,1.41685815509601509195802615767866
81,2625.41936207303221055820996999330584,2624.0,1.41936207303221055820996999330584
82,2690.62183520699060563938793341644487,2689.2,1.42183520699060563938793341644487
83,2756.62427830516143433413260434976105,2755.2,1.42427830516143433413260434976105
84,2823.42669208877321846058580650326921,2822.0,1.42669208877321846058580650326921
85,2891.02907725337334384736206824079873,2889.6,1.42907725337334384736206824079873
86,2959.43143447003347466187291641077143,2958.0,1.43143447003347466187291641077143
87,3028.63376438648504196061342377414688,3027.2,1.43376438648504196061342377414688
88,3098.63606762818961916828494554479840,3097.2,1.43606762818961916828494554479840
89,3169.43834479934861369046648710088259,3168.0,1.43834479934861369046648710088259
90,3241.04059648385636064781790841706902,3239.6,1.44059648385636064781790841706902
91,3313.44282324620038326774749580946148,3312.0,1.44282324620038326774749580946148
92,3386.64502563231229617193734403825703,3385.2,1.44502563231229617193734403825703
93,3460.64720417037256554306437007950054,3459.2,1.44720417037256554306437007950054
94,3535.44935937157209722531669737885511,3534.0,1.44935937157209722531669737885511
95,3611.05149173083340265927614838504852,3609.6,1.45149173083340265927614838504852
96,3687.45360172749389072962119847309447,3686.0,1.45360172749389072962119847309447
97,3764.65568982595364926199508896440365,3763.2,1.45568982595364926199508896440365
98,3842.65775647628990703108919054898432,3841.2,1.45775647628990703108919054898432
99,3921.45980211484021366980248395083367,3920.0,1.45980211484021366980248395083367
100,4001.06182716475622852892206804992541,3999.6,1.46182716475622852892206804992541
101,4081.46383203652988023261505060690190,4080.0,1.46383203652988023261505060690190
102,4162.66581712849353310030115617721919,4161.2,1.46581712849353310030115617721919
103,4244.66778282729568869186249675746371,4243.2,1.46778282729568869186249675746371
104,4327.46972950835364346843650643071382,4326.0,1.46972950835364346843650643071382
105,4411.07165753628443048728121636544869,4409.6,1.47165753628443048728121636544869
106,4495.47356726531528228495827819069767,4494.0,1.47356726531528228495827819069767
107,4580.67545903967477402112375771016864,4579.2,1.47545903967477402112375771016864
108,4666.67733319396572671566234295295277,4665.2,1.47733319396572671566234295295277
109,4753.47919005352088181836642372224911,4752.0,1.47919005352088181836642372224911
110,4841.08102993474229593023648426182379,4839.6,1.48102993474229593023648426182379
111,4929.48285314542533863428068318685631,4928.0,1.48285314542533863428068318685631
112,5018.68465998506812696005806041066835,5017.2,1.48465998506812696005806041066835
113,5108.68645074516717447041572182368410,5107.2,1.48645074516717447041572182368410
114,5199.48822570949998420111400121684609,5198.0,1.48822570949998420111400121684609
115,5291.08998515439527423553104840341544,5289.6,1.48998515439527423553104840341544
116,5383.49172934899147636499006753398384,5382.0,1.49172934899147636499006753398384
117,5476.69345855548411657224564960001110,5475.2,1.49345855548411657224564960001110
118,5570.69517302936264504456009394448365,5569.2,1.49517302936264504456009394448365
119,5665.49687301963724970908431243490011,5664.0,1.49687301963724970908431243490011
120,5761.09855876905616144102291026042266,5759.6,1.49855876905616144102291026042266
121,5857.50023051431392082781883571935979,5856.0,1.50023051431392082781883571935979
122,5954.70188848625105745946018879547125,5953.2,1.50188848625105745946018879547125
123,6052.70353291004560052207978519601796,6051.2,1.50353291004560052207978519601796
124,6151.50516400539682179220940764589637,6150.0,1.50516400539682179220940764589637
125,6251.10678198670158256278757560655030,6249.6,1.50678198670158256278757560655030
126,6351.50838706322364083472209925799456,6350.0,1.50838706322364083472209925799456
127,6452.70997943925625452992229021825940,6451.2,1.50997943925625452992229021825940
128,6554.71155931427839389452580170221123,6553.2,1.51155931427839389452580170221123
129,6657.51312688310486418780698233794208,6656.0,1.51312688310486418780698233794208
130,6761.11468233603062137038635025750511,6759.6,1.51468233603062137038635025750511
131,6865.51622585896954810124271447525882,6864.0,1.51622585896954810124271447525882
132,6970.71775763358794237582864569345440,6969.2,1.51775763358794237582864569345440
133,7076.71927783743295935600615505900956,7075.2,1.51927783743295935600615505900956
134,7183.52078664405623566656039954904636,7182.0,1.52078664405623566656039954904636
135,7291.12228422313290732470688835881954,7289.6,1.52228422313290732470688835881954
136,7399.52377074057622878147729109691669,7398.0,1.52377074057622878147729109691669
137,7508.72524635864798724592525295741911,7507.2,1.52524635864798724592525295741911
138,7618.72671123606489285110314749508292,7617.2,1.52671123606489285110314749508292
139,7729.52816552810112311485500646980363,7728.0,1.52816552810112311485500646980363
140,7841.12960938668718470250260381824308,7839.6,1.52960938668718470250260381824308
141,7953.53104296050525094101178508579799,7952.0,1.53104296050525094101178508579799
142,8066.73246639508112546095891314213041,8065.2,1.53246639508112546095891314213041
143,8180.73387983287297369244816782354064,8179.2,1.53387983287297369244816782354064
144,8295.53528341335695676149330056373616,8294.0,1.53528341335695676149330056373616
145,8411.13667727310989814561850371914370,8409.6,1.53667727310989814561850371914370
146,8527.53806154588910557868198400599106,8526.0,1.53806154588910557868198400599106
147,8644.73943636270946249195990196154734,8643.2,1.53943636270946249195990196154734
148,8762.74080185191790432049502801456806,8761.2,1.54080185191790432049502801456806
149,8881.54215813926538147564006544884400,8880.0,1.54215813926538147564006544884400
150,9001.14350534797641262464856717263664,8999.6,1.54350534797641262464856717263664
151,9121.54484359881632419154240084053272,9120.0,1.54484359881632419154240084053272
152,9242.74617301015626637840024333589050,9241.2,1.54617301015626637840024333589050
153,9364.74749369803609465673479255681749,9363.2,1.54749369803609465673479255681749
154,9487.54880577622520062817449937901579,9486.0,1.54880577622520062817449937901579
155,9611.15010935628137049041569543585075,9609.6,1.55010935628137049041569543585075
156,9735.55140454760774897478105869461323,9734.0,1.55140454760774897478105869461323
157,9860.75269145750797980196028677129262,9859.2,1.55269145750797980196028677129262
158,9986.75397019123959447400631291722496,9985.2,1.55397019123959447400631291722496
159,10113.5552408520657130753924720744317,10112.0,1.5552408520657130753924720744317
160,10241.1565035413051234206402794017352,10239.6,1.5565035413051234206402794017352
161,10369.5577583583807970446087079761769,10368.0,1.5577583583807970446087079761769
162,10498.7590054008669014965162540699463,10497.2,1.5590054008669014965162540699463
163,10628.7602447645343637909651303851561,10627.2,1.5602447645343637909651303851561
164,10759.5614765433950396525324068604247,10758.0,1.5614765433950396525324068604247
165,10891.1627008297445371541156266720581,10889.6,1.5627008297445371541156266720581
166,11023.5639177142037452645916619577132,11022.0,1.5639177142037452645916619577132
167,11156.7651272857591145380780736747183,11155.2,1.5651272857591145380780736747183
168,11290.7663296318017326336803184976495,11289.2,1.5663296318017326336803184976495
169,11425.5675248381652397277854159066678,11424.0,1.5675248381652397277854159066678
170,11561.1687129891626235619875042560114,11559.6,1.5687129891626235619875042560114
171,11697.5698941676219343210760231023632,11696.0,1.5698941676219343210760231023632
172,11834.7710684549209572077142090879373,11833.2,1.5710684549209572077142090879373
173,11972.7722359310208781161085337786863,11971.2,1.5722359310208781161085337786863
174,12111.5733966744989782481528385255562,12110.0,1.5733966744989782481528385255562
175,12251.1745507625803916569499720054883,12249.6,1.5745507625803916569499720054883
176,12391.5756982711689554240335050045699,12390.0,1.5756982711689554240335050045699
177,12532.7768392748771857307967323668391,12531.2,1.5768392748771857307967323668391
178,12674.7779738470554089784948733585777,12673.2,1.5779738470554089784948733585777
179,12817.5791020598200744017359519096570,12816.0,1.5791020598200744017359519096570
180,12961.1802239840812791218289404684101,12959.6,1.5802239840812791218289404684101
181,13105.5813396895695282885449405686846,13104.0,1.5813396895695282885449405686846
182,13250.7824492448617580056463602335498,13249.2,1.5824492448617580056463602335498
183,13396.7835527174066440894275561964652,13395.2,1.5835527174066440894275561964652
184,13543.5846501735492209017724712674678,13542.0,1.5846501735492209017724712674678
185,13691.1857416785548320658219478566048,13689.6,1.5857416785548320658219478566048
186,13839.5868272966324340328394581307543,13838.0,1.5868272966324340328394581307543
187,13988.7879070909572763007417476036104,13987.2,1.5879070909572763007417476036104
188,14138.7889811236929737205779901540711,14137.2,1.5889811236929737205779901540711
189,14289.5900494560129946220140154940687,14288.0,1.5900494560129946220140154940687
190,14441.1911121481215804088651635415824,14439.6,1.5911121481215804088651635415824
191,14593.5921692592741158471950232513513,14592.0,1.5921692592741158471950232513513
192,14746.7932208477969664281477926086438,14745.2,1.5932208477969664281477926086438
193,14900.7942669711068011093263632367478,14899.2,1.5942669711068011093263632367478
194,15055.5953076857294137754622841642502,15054.0,1.5953076857294137754622841642502
195,15211.1963430473180613506992992428343,15209.6,1.5963430473180613506992992428343
196,15367.5973731106713322543527538527440,15366.0,1.5973731106713322543527538527440
197,15524.7983979297505595754277422861194,15523.2,1.5983979297505595754277422861194
198,15682.7994175576967931278367943893191,15681.2,1.5994175576967931278367943893191
199,15841.6004320468473432201321097683922,15840.0,1.6004320468473432201321097683922
200,16001.2014414487519100799130446843514,15999.6,1.6014414487519100799130446843514
201,16161.6024458141883099092871667324264,16160.0,1.6024458141883099092871667324264
202,16322.8034451931778109474957893191061,16321.2,1.6034451931778109474957893191061
203,16484.8044396350000901953856582330881,16483.2,1.6044396350000901953856582330881
204,16647.6054291882078224165878142332822,16646.0,1.6054291882078224165878142332822
205,16811.2064139006409113807152980362686,16809.6,1.6064139006409113807152980362686
206,16975.6073938194403763672761418803418,16974.0,1.6073938194403763672761418803418
207,17140.8083689910618998009267038045448,17139.2,1.6083689910618998009267038045448
208,17306.8093394612890502394695603769678,17305.2,1.6093394612890502394695603769678
209,17473.6103052752461864574230848549430,17472.0,1.6103052752461864574230848549430
210,17641.2112664774110541207612864588819,17639.6,1.6112664774110541207612864588819
211,17809.6122231116270824117799082064596,17808.0,1.6122231116270824117799082064596
212,17978.8131752211153908312103874260333,17977.2,1.6131752211153908312103874260333
213,18148.8141228484865105554691158612097,18147.2,1.6141228484865105554691158612097
214,18319.6150660357518353247251558868063,18318.0,1.6150660357518353247251558868063
215,18491.2160048243348010680105247724775,18489.6,1.6160048243348010680105247724775
216,18663.6169392550818082198231100548333,18662.0,1.6169392550818082198231100548333
217,18836.8178693682728906872571558908936,18835.2,1.6178693682728906872571558908936
218,19010.8187952036321404401036933072604,19009.2,1.6187952036321404401036933072604
219,19185.6197168003378909968492794109265,19184.0,1.6197168003378909968492794109265
220,19361.2206341970326723146931466967117,19359.6,1.6206341970326723146931466967117
221,19537.6215474318329349858647800741872,19536.0,1.6215474318329349858647800741872
222,19714.8224565423385609375994752337968,19713.2,1.6224565423385609375994752337968
223,19892.8233615656421541965950400963165,19891.2,1.6233615656421541965950400963165
224,20071.6242625383381267772397037782555,20070.0,1.6242625383381267772397037782555
225,20251.2251594965315822501454838006869,20249.6,1.6251594965315822501454838006869
226,20431.6260524758470005289195456908861,20430.0,1.6260524758470005289195456908861
227,20612.8269415114367325180115766053926,20611.2,1.6269415114367325180115766053926
228,20794.8278266379893064318280193068417,20793.2,1.6278266379893064318280193068417
229,20977.6287078897375529372479225218339,20976.0,1.6287078897375529372479225218339
230,21161.2295853004665538057682598891353,21159.6,1.6295853004665538057682598891353
231,21345.6304589035214158645325366104958,21344.0,1.6304589035214158645325366104958
232,21530.8313287318148806551467445080748,21529.2,1.6313287318148806551467445080748
233,21716.8321948178347647857702140526072,21715.2,1.6321948178347647857702140526072
234,21903.6330571936512471225302362191199,21902.0,1.6330571936512471225302362191199
235,22091.2339158909239959913433137624981,22089.6,1.6339158909239959913433137624981
236,22279.6347709409091460888939438291159,22278.0,1.6347709409091460888939438291159
237,22468.8356223744661287228802155566328,22467.2,1.6356223744661287228802155566328
238,22658.8364702220643571125193983838407,22657.2,1.6364702220643571125193983838407
