Eigenstate,Energy,Kinetic Energy,Potential Energy
1,0.500000000014918617045806586398587926,0.0,0.500000000014918617045806586398587926
2,1.84623093774849555236898698662843816,1.2,0.64623093774849555236898698662843816
3,3.93633760999102399554806265360273609,3.2,0.73633760999102399554806265360273609
4,6.79966527841004424997956082063201208,6.0,0.79966527841004424997956082063201208
5,10.4480465763177414779080784598649676,9.6,0.8480465763177414779080784598649676
6,14.8870659984672690084863391334847823,14.0,0.8870659984672690084863391334847823
7,20.1197208262960883531260122528839735,19.2,0.9197208262960883531260122528839735
8,26.1477838461807761783416324924588783,25.2,0.9477838461807761783416324924588783
9,32.9723835571274007222515294574877834,32.0,0.9723835571274007222515294574877834
10,40.5942802132844026950119018217102351,39.6,0.9942802132844026950119018217102351
11,49.0140093847927328979481781600902514,48.0,1.0140093847927328979481781600902514
12,58.2319621669569576136934762546281095,57.2,1.0319621669569576136934762546281095
13,68.2484326898428361186332235891033947,67.2,1.0484326898428361186332235891033947
14,79.0636476511334739895365399549531716,78.0,1.0636476511334739895365399549531716
15,90.6777854319435030282707048508870608,89.6,1.0777854319435030282707048508870608
16,103.090988901689523278174931215189948,102.0,1.090988901689523278174931215189948
17,116.303374251551605475661741998983236,115.2,1.103374251551605475661741998983236
18,130.315037245479489337306302311621240,129.2,1.115037245479489337306302311621240
19,145.126057743296560434912931366352349,144.0,1.126057743296560434912931366352349
20,160.736503038333786159803171889988660,159.6,1.136503038333786159803171889988660
21,177.146430363511412585900421958182696,176.0,1.146430363511412585900421958182696
22,194.355888802497704390405408795649121,193.2,1.155888802497704390405408795649121
23,212.364920767645469362760426665793643,211.2,1.164920767645469362760426665793643
24,231.173563157392480461480094676807051,230.0,1.173563157392480461480094676807051
25,250.781848273057402133268565791382650,249.6,1.181848273057402133268565791382650
26,271.189804552647378011845643647476176,270.0,1.189804552647378011845643647476176
27,292.397457163820606716270618383533142,291.2,1.197457163820606716270618383533142
28,314.404828487245381661825396845133899,313.2,1.204828487245381661825396845133899
29,337.211938513802042976658295605065274,336.0,1.211938513802042976658295605065274
30,360.818805173424802049239434468768611,359.6,1.218805173424802049239434468768611
31,385.225444609234460732414060328772472,384.0,1.225444609234460732414060328772472
32,410.431871407535147645704457495771003,409.2,1.231871407535147645704457495771003
33,436.438098791938546213817867369149907,435.2,1.238098791938546213817867369149907
34,463.244138788128542813494372336751854,462.0,1.244138788128542813494372336751854
35,490.850002364440028335389524380941488,489.6,1.250002364440028335389524380941488
36,519.255699552392107589344832117267295,518.0,1.255699552392107589344832117267295
37,548.461239550511886433049724395216904,547.2,1.261239550511886433049724395216904
38,578.466630814154587761091988807562883,577.2,1.266630814154587761091988807562883
39,609.271881133527898841983920894404459,608.0,1.271881133527898841983920894404459
40,640.876997701732631707293357197779969,639.6,1.276997701732631707293357197779969
41,673.281987174315028023358311723429960,672.0,1.281987174315028023358311723429960
42,706.486855721571047274615850859620058,705.2,1.286855721571047274615850859620058
43,740.491609074636490742706439386215681,739.2,1.291609074636490742706439386215681
44,775.296252566228719750049550085939020,774.0,1.296252566228719750049550085939020
45,810.900791166768157067621394232974644,809.6,1.300791166768157067621394232974644
46,847.305229516494624104098944510341584,846.0,1.305229516494624104098944510341584
47,884.509571954100089881225395565154085,883.2,1.309571954100089881225395565154085
48,922.513822542321821436022875074103302,921.2,1.313822542321821436022875074103302
49,961.317985090875262746597516420411833,960.0,1.317985090875262746597516420411833
50,1000.92206317705184656464199096310639,999.6,1.32206317705184656464199096310639
51,1041.32606016426147657527922214648886,1040.0,1.32606016426147657527922214648886
52,1082.52997921876107209060098624953006,1081.2,1.32997921876107209060098624953006
53,1124.53382332477811736471698393979100,1123.2,1.33382332477811736471698393979100
54,1167.33759529821059648668049538641218,1166.0,1.33759529821059648668049538641218
55,1210.94129779906121931515056804104575,1209.6,1.34129779906121931515056804104575
56,1255.34493334274376934853032736538808,1254.0,1.34493334274376934853032736538808
57,1300.54850431038220545920612114533477,1299.2,1.34850431038220545920612114533477
58,1346.55201295820835223422475460306211,1345.2,1.35201295820835223422475460306211
59,1393.35546142615125971747399086455181,1392.0,1.35546142615125971747399086455181
60,1440.95885174570028884073179132417173,1439.6,1.35885174570028884073179132417173
61,1489.36218584711441460344745580827377,1488.0,1.36218584711441460344745580827377
62,1538.56546556604193805600626660629696,1537.2,1.36546556604193805600626660629696
63,1588.56869264960755625221037364578250,1587.2,1.36869264960755625221037364578250
64,1639.37186876201742685678801698283320,1638.0,1.37186876201742685678801698283320
65,1690.97499548972732925377157330717055,1689.6,1.37499548972732925377157330717055
66,1743.37807434621417666253197891671994,1742.0,1.37807434621417666253197891671994
67,1796.58110677638687147693216281048320,1795.2,1.38110677638687147693216281048320
68,1850.58409416066873988225442271564613,1849.2,1.38409416066873988225442271564613
69,1905.38703781878046913383054187237920,1904.0,1.38703781878046913383054187237920
70,1960.98993901324954261304014581071655,1959.6,1.38993901324954261304014581071655
71,2017.39279895266956907261204292143972,2016.0,1.39279895266956907261204292143972
72,2074.59561879473060424078408780759730,2073.2,1.39561879473060424078408780759730
73,2132.59839964903950994747388239304482,2131.2,1.39839964903950994747388239304482
74,2191.40114257974757708706028983289519,2190.0,1.40114257974757708706028983289519
75,2251.00384860800100763127297036477307,2249.6,1.40384860800100763127297036477307
76,2311.40651871422840134893218925280518,2310.0,1.40651871422840134893218925280518
77,2372.60915384027809049086323426692360,2371.2,1.40915384027809049086323426692360
78,2434.61175489141699990012978141328537,2433.2,1.41175489141699990012978141328537
79,2497.41432273820166318773844803647888,2496.0,1.41432273820166318773844803647888
80,2561.01685821823108748832249324625828,2559.6,1.41685821823108748832249324625828
81,2625.41936213779030996883609833026185,2624.0,1.41936213779030996883609833026185
82,2690.62183527339272781273725325343230,2689.2,1.42183527339272781273725325343230
83,2756.62427837322859466834771289988436,2755.2,1.42427837322859466834771289988436
84,2823.42669215852645225836240516248086,2822.0,1.42669215852645225836240516248086
85,2891.02907732483370657130704744458029,2889.6,1.42907732483370657130704744458029
86,2959.43143454322204219035349279049572,2958.0,1.43143454322204219035349279049572
87,3028.63376446142291084410244824182384,3027.2,1.43376446142291084410244824182384
88,3098.63606770489790688620758327412626,3097.2,1.43606770489790688620758327412626
89,3169.43834487784845890855357711087481,3168.0,1.43834487784845890855357711087481
90,3241.04059656416892347597138667867254,3239.6,1.44059656416892347597138667867254
91,3313.44282332834684551842335203588872,3312.0,1.44282332834684551842335203588872
92,3386.64502571631386161905165109726955,3385.2,1.44502571631386161905165109726955
93,3460.64720425625046018142800849064146,3459.2,1.44720425625046018142800849064146
94,3535.44935945934756953060445991331391,3534.0,1.44935945934756953060445991331391
95,3611.05149182052772384853597044468796,3609.6,1.45149182052772384853597044468796
96,3687.45360181912835502232932775672019,3686.0,1.45360181912835502232932775672019
97,3764.65568991954957414166307046373436,3763.2,1.45568991954957414166307046373436
98,3842.65775657186863350742858471203206,3841.2,1.45775657186863350742858471203206
99,3921.45980221242310654145331241151497,3920.0,1.45980221242310654145331241151497
100,4001.06182726436467664675101413898220,3999.6,1.46182726436467664675101413898220
101,4081.46383213818529676358950040363030,4080.0,1.46383213818529676358950040363030
102,4162.66581723221735579194521737673025,4161.2,1.46581723221735579194521737673025
103,4244.66778293310938013730116846386586,4243.2,1.46778293310938013730116846386586
104,4327.46972961627869137203423745331647,4326.0,1.46972961627869137203423745331647
105,4411.07165764634234793088111644206808,4409.6,1.47165764634234793088111644206808
106,4495.47356737752760799472829930557038,4494.0,1.47356737752760799472829930557038
107,4580.67545915406307263501620220355362,4579.2,1.47545915406307263501620220355362
108,4666.67733331055158905149309524273381,4665.2,1.47733331055158905149309524273381
109,4753.47919017232592514252035112003874,4752.0,1.47919017232592514252035112003874
110,4841.08103005578816422700547708550932,4839.6,1.48103005578816422700547708550932
111,4929.48285326873370287584086176475565,4928.0,1.48285326873370287584086176475565
112,5018.68466011066068537709270030362659,5017.2,1.48466011066068537709270030362659
113,5108.68645087306565282339049256911074,5107.2,1.48645087306565282339049256911074
114,5199.48822583972613605221115725369907,5198.0,1.48822583972613605221115725369907
115,5291.08998528697088122124923687695018,5289.6,1.48998528697088122124923687695018
116,5383.49172948393834846941646021558208,5382.0,1.49172948393834846941646021558208
117,5476.69345869282409240100714725122515,5475.2,1.49345869282409240100714725122515
118,5570.69517316911759209946037833995008,5569.2,1.49517316911759209946037833995008
119,5665.49687316182906466343356612568439,5664.0,1.49687316182906466343356612568439
120,5761.09855891370677041566705113576664,5759.6,1.49855891370677041566705113576664
121,5857.50023066144527966787516252420592,5856.0,1.50023066144527966787516252420592
122,5954.70188863588515201176635355695605,5953.2,1.50188863588515201176635355695605
123,6052.70353306220444691336305444116850,6051.2,1.50353306220444691336305444116850
124,6151.50516416010246670798320941968677,6150.0,1.50516416010246670798320941968677
125,6251.10678214397610352698236215357053,6249.6,1.50678214397610352698236215357053
126,6351.50838722308914649005758555720663,6350.0,1.50838722308914649005758555720663
127,6452.70997960173488491902817463913635,6451.2,1.50997960173488491902817463913635
128,6554.71155947939232074181810994559474,6553.2,1.51155947939232074181810994559474
129,6657.51312705087629118212719967317819,6656.0,1.51312705087629118212719967317819
130,6761.11468250648178444841055213298214,6759.6,1.51468250648178444841055213298214
131,6865.51622603212271573166793923990433,6864.0,1.51622603212271573166793923990433
132,6970.71775780946541584434379629905857,6969.2,1.51775780946541584434379629905857
133,7076.71927801605707305105473368641446,7075.2,1.51927801605707305105473368641446
134,7183.52078682544935736590243609744109,7182.0,1.52078682544935736590243609744109
135,7291.12228440731743848278745431057343,7289.6,1.52228440731743848278745431057343
136,7399.52377092757460481760901097210329,7398.0,1.52377092757460481760901097210329
137,7508.72524654848267783329228804400400,7507.2,1.52524654848267783329228804400400
138,7618.72671142875840220659414221709773,7617.2,1.52671142875840220659414221709773
139,7729.52816572367599028973253468455813,7728.0,1.52816572367599028973253468455813
140,7841.12960958516598387391669790632287,7839.6,1.52960958516598387391669790632287
141,7953.53104316191059170436514197730288,7952.0,1.53104316191059170436514197730288
142,8066.73246659943565312313143634249641,8065.2,1.53246659943565312313143634249641
143,8180.73388004019936956588853023113556,8179.2,1.53388004019936956588853023113556
144,8295.53528362367793845918525231419223,8294.0,1.53528362367793845918525231419223
145,8411.13667748644821987692968431231798,8409.6,1.53667748644821987692968431231798
146,8527.53806176226755844610304568442823,8526.0,1.53806176226755844610304568442823
147,8644.73943658215087478874178625839553,8643.2,1.53943658215087478874178625839553
148,8762.74080207444514182919226955582659,8761.2,1.54080207444514182919226955582659
149,8881.54215836490134776756805416751694,8880.0,1.54215836490134776756805416751694
150,9001.14350557674404936026271071583661,8999.6,1.54350557674404936026271071583661
151,9121.54484383073861142174720492064112,9120.0,1.54484383073861142174720492064112
152,9242.74617324525622284679634811041826,9241.2,1.54617324525622284679634811041826
153,9364.74749393633677810281203476288789,9363.2,1.54749393633677810281203476288789
154,9487.54880601774970809145913424240994,9486.0,1.54880601774970809145913424240994
155,9611.15010960105283861557993917099070,9609.6,1.55010960105283861557993917099070
156,9735.55140479564935431772316439919213,9734.0,1.55140479564935431772316439919213
157,9860.75269170884293913686338638946409,9859.2,1.55269170884293913686338638946409
158,9986.75397044589116510138433437507783,9985.2,1.55397044589116510138433437507783
159,10113.5552411100571931311314553129582,10112.0,1.5552411100571931311314553129582
160,10241.1565038026598521860434690341093,10239.6,1.5565038026598521860434690341093
161,10369.5577586231221552574538327404471,10368.0,1.5577586231221552574538327404471
162,10498.7590056690183116631334953213747,10497.2,1.5590056690183116631334953213747
163,10628.7602450361192904993442533777510,10627.2,1.5602450361192904993442533777510
164,10759.5614768184369898864675973488850,10758.0,1.5614768184369898864675973488850
165,10891.1627011082670606083966845768341,10889.6,1.5627011082670606083966845768341
166,11023.5639179962304346612501552916130,11022.0,1.5639179962304346612501552916130
167,11156.7651275713136059436971293524611,11155.2,1.5651275713136059436971293524611
168,11290.7663299209077057777768408185531,11289.2,1.5663299209077057777768408185531
169,11425.5675251308464183222734694116622,11424.0,1.5675251308464183222734694116622
170,11561.1687132854427756217317112068103,11559.6,1.5687132854427756217317112068103
171,11697.5698944675248724855438391098172,11696.0,1.5698944675248724855438391098172
172,11834.7710687584705390637360307824781,11833.2,1.5710687584705390637360307824781
173,11972.7722362382410065217545777083993,11971.2,1.5722362382410065217545777083993
174,12111.5733969854136016577358337447026,12110.0,1.5733969854136016577358337447026
175,12251.1745510772135044471627365495156,12249.6,1.5745510772135044471627365495156
176,12391.5756985895445982212305254579295,12390.0,1.5756985895445982212305254579295
177,12532.7768395970194457394289183666395,12531.2,1.5768395970194457394289183666395
178,12674.7779741729884203107067008898983,12673.2,1.5779741729884203107067008898983
179,12817.5791023895680184081342808036972,12816.0,1.5791023895680184081342808036972
180,12961.1802243176683847234328317875373,12959.6,1.5802243176683847234328317875373
181,13105.5813400270200723099258306009422,13104.0,1.5813400270200723099258306009422
182,13250.7824495862000655092680309338270,13249.2,1.5824495862000655092680309338270
183,13396.7835530626570887111953873976094,13395.2,1.5835530626570887111953873976094
184,13543.5846505227362251878015028082605,13542.0,1.5846505227362251878015028082605
185,13691.1857420317028678104333388798718,13689.6,1.5857420317028678104333388798718
186,13839.5868276537660226177949862850957,13838.0,1.5868276537660226177949862850957
187,13988.7879074521009890357260460293653,13987.2,1.5879074521009890357260460293653
188,14138.7889814888714321849382603623496,14137.2,1.5889814888714321849382603623496
189,14289.5900498252508710077670435340885,14288.0,1.5900498252508710077670435340885
190,14441.1911125214435978649814845273342,14439.6,1.5911125214435978649814845273342
191,14593.5921696367050488251701635885471,14592.0,1.5921696367050488251701635885471
192,14746.7932212293616410288705606051759,14745.2,1.5932212293616410288705606051759
193,14900.7942673568300954312542202263660,14899.2,1.5942673568300954312542202263660
194,15055.5953080756362582641138984646710,15054.0,1.5953080756362582641138984646710
195,15211.1963434414334391494744145773220,15209.6,1.5963434414334391494744145773220
196,15367.5973735090202795566895942004217,15366.0,1.5973735090202795566895942004217
197,15524.7983983323581659783082219545488,15523.2,1.5983983323581659783082219545488
198,15682.7994179645882019866498498636752,15681.2,1.5994179645882019866498498636752
199,15841.6004324580477520049055633281945,15840.0,1.6004324580477520049055633281945
200,16001.2014418642865707329244297407081,15999.6,1.6014418642865707329244297407081
201,16161.6024462340825292040640229488662,16160.0,1.6024462340825292040640229488662
202,16322.8034456174569508492160290710238,16321.2,1.6034456174569508492160290710238
203,16484.8044400636895682226886135240923,16483.2,1.6044400636895682226886135240923
204,16647.6054296213331120048066813529590,16646.0,1.6054296213331120048066813529590
205,16811.2064143382275422465417377470577,16809.6,1.6064143382275422465417377470577
206,16975.6073942615139348748678437361801,16974.0,1.6073942615139348748678437361801
207,17140.8083694376480293294688508393599,17139.2,1.6083694376480293294688508393599
208,17306.8093399124134515522011152967483,17305.2,1.6093399124134515522011152967483
209,17473.6103057309346180721389238577991,17472.0,1.6103057309346180721389238577991
210,17641.2112669376893326818013061799036,17639.6,1.6112669376893326818013061799036
211,17809.6122235765210830635162231174155,17808.0,1.6122235765210830635162231174155
212,17978.8131756906510475930438613033409,17977.2,1.6131756906510475930438613033409
213,18148.8141233226898166983465284935811,18147.2,1.6141233226898166983465284935811
214,18319.6150665146488437491883581002262,18318.0,1.6150665146488437491883581002262
215,18491.2160053079516246837890164938006,18489.6,1.6160053079516246837890164938006
216,18663.6169397434446203269815548705012,18662.0,1.6169397434446203269815548705012
217,18836.8178698614079253589093836004287,18835.2,1.6178698614079253589093836004287
218,19010.8187957015656929067048704527391,19009.2,1.6187957015656929067048704527391
219,19185.6197173030963180320779248430872,19184.0,1.6197173030963180320779248430872
220,19361.2206347046423926229348246376089,19359.6,1.6206347046423926229348246376089
221,19537.6215479443204295913093002799147,19536.0,1.6215479443204295913093002799147
222,19714.8224570597303735749635482857624,19713.2,1.6224570597303735749635482857624
223,19892.8233620879648917034824167332979,19891.2,1.6233620879648917034824167332979
224,20071.6242630656184594881508583533807,20070.0,1.6242630656184594881508583533807
225,20251.2251600287962443921490245958725,20249.6,1.6251600287962443921490245958725
226,20431.6260530131227906189975952624930,20430.0,1.6260530131227906189975952624930
227,20612.8269420537505137620914216518412,20611.2,1.6269420537505137620914216518412
228,20794.8278271853680071255124273168134,20793.2,1.6278271853680071255124273168134
229,20977.6287084422081668682566271265521,20976.0,1.6287084422081668682566271265521
230,21161.2295858580561406581031294233473,21159.6,1.6295858580561406581031294233473
231,21345.6304594662571016243790881814581,21344.0,1.6304594662571016243790881814581
232,21530.8313292997238580185246996719753,21529.2,1.6313292997238580185246996719753
233,21716.8321953909442935679458922429149,21715.2,1.6321953909442935679458922429149
234,21903.6330577719886546692036813783773,21902.0,1.6330577719886546692036813783773
235,22091.2339164745166775916231029784383,22089.6,1.6339164745166775916231029784383
236,22279.6347715297845653900726935670957,22278.0,1.6347715297845653900726935670957
237,22468.8356229686518181470239669734836,22467.2,1.6356229686518181470239669734836
238,22658.8364708215879182748840615649360,22657.2,1.6364708215879182748840615649360
