Eigenstate,Energy,Kinetic Energy,Potential Energy
1,0.500000000119843549963020673966775457,0.0,0.500000000119843549963020673966775457
2,1.84623093843339370081147380938454971,1.2,0.64623093843339370081147380938454971
3,3.93633761200287011660157714003751940,3.2,0.73633761200287011660157714003751940
4,6.79966528260052730925706210019706246,6.0,0.79966528260052730925706210019706246
5,10.4480465835765980164854612953901723,9.6,0.8480465835765980164854612953901723
6,14.8870660096998592221129182823734878,14.0,0.8870660096998592221129182823734878
7,20.1197208424151411174245840580405263,19.2,0.9197208424151411174245840580405263
8,26.1477838681029530310260236361303289,25.2,0.9477838681029530310260236361303289
9,32.9723835857717042208060579156750703,32.0,0.9723835857717042208060579156750703
10,40.5942802495713742190363362369354474,39.6,0.9942802495713742190363362369354474
11,49.0140094296440220940364000602240008,48.0,1.0140094296440220940364000602240008
12,58.2319622212950812317150712746718107,57.2,1.0319622212950812317150712746718107
13,68.2484327545910399614683224894985336,67.2,1.0484327545910399614683224894985336
14,79.0636477272156542129259133682513528,78.0,1.0636477272156542129259133682513528
15,90.6777855202841632537474923553631858,89.6,1.0777855202841632537474923553631858
16,103.090989003213754210423853757306353,102.0,1.090989003213754210423853757306353
17,116.303374367185079167269113659315203,115.2,1.103374367185079167269113659315203
18,130.315037376148463285088049864107508,129.2,1.115037376148463285088049864107508
19,145.126057889927888457566586165155808,144.0,1.126057889927888457566586165155808
20,160.736503201854934068216062319186491,159.6,1.136503201854934068216062319186491
21,177.146430544850477315911779371666071,176.0,1.146430544850477315911779371666071
22,194.355889002583435687725126706186102,193.2,1.155889002583435687725126706186102
23,212.364920987407293384260861397233751,211.2,1.164920987407293384260861397233751
24,231.173563397760524840605895796138157,230.0,1.173563397760524840605895796138157
25,250.781848534962522182522925643428562,249.6,1.181848534962522182522925643428562
26,271.189804837021183822328350436792387,270.0,1.189804837021183822328350436792387
27,292.397457471595490975742325014192981,291.2,1.197457471595490975742325014192981
28,314.404828819354548056912209349870867,313.2,1.204828819354548056912209349870867
29,337.211938871179535076943614605175530,336.0,1.211938871179535076943614605175530
30,360.818805557005532594689920176970237,359.6,1.218805557005532594689920176970237
31,385.225445019954241263279758816473640,384.0,1.225445019954241263279758816473640
32,410.431871846330718427390945696113175,409.2,1.231871846330718427390945696113175
33,436.438099259747606419419158785373733,435.2,1.238099259747606419419158785373733
34,463.244139285889780934526218154256987,462.0,1.244139285889780934526218154256987
35,490.850002893093152797366472179062262,489.6,1.250002893093152797366472179062262
36,519.255700112877877553630509739391214,518.0,1.255700112877877553630509739391214
37,548.461240143772142770193345440010309,547.2,1.261240143772142770193345440010309
38,578.466631441132284183877588390846887,577.2,1.266631441132284183877588390846887
39,609.271881795167133188836569746093749,608.0,1.271881795167133188836569746093749
40,640.876998398978677368639733331016661,639.6,1.276998398978677368639733331016661
41,673.281987908114365505126779045363860,672.0,1.281987908114365505126779045363860
42,706.486856492871395894360473870622974,705.2,1.286856492871395894360473870622974
43,740.491609884386840454908619648663378,739.2,1.291609884386840454908619648663378
44,775.296253415379363098035986842603041,774.0,1.296253415379363098035986842603041
45,810.900792056270721260273945020777458,809.6,1.300792056270721260273945020777458
46,847.305230447302103216148658244706221,846.0,1.305230447302103216148658244706221
47,884.509572927166877176441628032655873,883.2,1.309572927166877176441628032655873
48,922.513823558603741813047393734343563,921.2,1.313823558603741813047393734343563
49,961.317986151329605307546385379670707,960.0,1.317986151329605307546385379670707
50,1000.92206428263739730691664033096141,999.6,1.32206428263739730691664033096141
51,1041.32606131593855120730196184963179,1040.0,1.32606131593855120730196184963179
52,1082.52998041749154897242625318440620,1081.2,1.32998041749154897242625318440620
53,1124.53382457152547057467450920302743,1123.2,1.33382457152547057467450920302743
54,1167.33759659393992901538530737192497,1166.0,1.33759659393992901538530737192497
55,1210.94129914473929638837123642529170,1209.6,1.34129914473929638837123642529170
56,1255.34493473933905188054488373155767,1254.0,1.34493473933905188054488373155767
57,1300.54850575886488363839709356386495,1299.2,1.34850575886488363839709356386495
58,1346.55201445955037924277404835353489,1345.2,1.35201445955037924277404835353489
59,1393.35546298132638558711530381666353,1392.0,1.35546298132638558711530381666353
60,1440.95885335568409444660641348352773,1439.6,1.35885335568409444660641348352773
61,1489.36218751288434579818868355442380,1488.0,1.36218751288434579818868355442380
62,1538.56546728857733994625034310300943,1537.2,1.36546728857733994625034310300943
63,1588.56869442988970761979808881934257,1587.2,1.36869442988970761979808881934257
64,1639.37187060102957472698234083908598,1638.0,1.37187060102957472698234083908598
65,1690.97499738845472361287374665128276,1689.6,1.37499738845472361287374665128276
66,1743.37807630564410532733118377484036,1742.0,1.37807630564410532733118377484036
67,1796.58110879750869511847368272048060,1795.2,1.38110879750869511847368272048060
68,1850.58409624447392720645803497784795,1849.2,1.38409624447392720645803497784795
69,1905.38703996626263222153566228718966,1904.0,1.38703996626263222153566228718966
70,1960.98994122540447242209594536256049,1959.6,1.38994122540447242209594536256049
71,2017.39280123049527110467230898960281,2016.0,1.39280123049527110467230898960281
72,2074.59562113922733437550483141438927,2073.2,1.39562113922733437550483141438927
73,2132.59840206120981044685029703024185,2131.2,1.39840206120981044685029703024185
74,2191.40114506059631277267594535708466,2190.0,1.40114506059631277267594535708466
75,2251.00385115853540223727045765399335,2249.6,1.40385115853540223727045765399335
76,2311.40652133545807405354909126274432,2310.0,1.40652133545807405354909126274432
77,2372.60915653321509262941224573028133,2371.2,1.40915653321509262941224573028133
78,2434.61175765707585186233574268541662,2433.2,1.41175765707585186233574268541662
79,2497.41432557759939150237879580668223,2496.0,1.41432557759939150237879580668223
80,2561.01686113238726209815075073181287,2559.6,1.41686113238726209815075073181287
81,2625.41936512772708169880169849343894,2624.0,1.41936512772708169880169849343894
82,2690.62183834013486603454768491031145,2689.2,1.42183834013486603454768491031145
83,2756.62428151780352516445220389059307,2755.2,1.42428151780352516445220389059307
84,2823.42669538196429528846926216447082,2822.0,1.42669538196429528846926216447082
85,2891.02908062816731514458002249451956,2889.6,1.42908062816731514458002249451956
86,2959.43143792748704054646545102351459,2958.0,1.43143792748704054646545102351459
87,3028.63376792765773314635842232728377,3027.2,1.43376792765773314635842232728377
88,3098.63607125414383612998244148039978,3097.2,1.43607125414383612998244148039978
89,3169.43834851114966604832348526634962,3168.0,1.43834851114966604832348526634962
90,3241.04060028257250677425216606286665,3239.6,1.44060028257250677425216606286665
91,3313.44282713290287011996356787100530,3312.0,1.44282713290287011996356787100530
92,3386.64502960807539935366238481815405,3385.2,1.44502960807539935366238481815405
93,3460.64720823627362959886679365794242,3459.2,1.44720823627362959886679365794242
94,3535.44936352869157617096605254103131,3534.0,1.44936352869157617096605254103131
95,3611.05149598025490075163848696328863,3609.6,1.45149598025490075163848696328863
96,3687.45360607030420347962043845973922,3686.0,1.45360607030420347962043845973922
97,3764.65569426324280469420810522675889,3763.2,1.45569426324280469420810522675889
98,3842.65776100915120719357878777880582,3841.2,1.45776100915120719357878777880582
99,3921.45980674437027639783103881561951,3920.0,1.45980674437027639783103881561951
100,4001.06183189205502946622616121903398,3999.6,1.46183189205502946622616121903398
101,4081.46383686270079511396061465160748,4080.0,1.46383686270079511396061465160748
102,4162.66582205464338029907771615607557,4161.2,1.46582205464338029907771615607557
103,4244.66778785453477203651481940963392,4243.2,1.46778785453477203651481940963392
104,4327.46973463779579533157307058325786,4326.0,1.46973463779579533157307058325786
105,4411.07166276904705515133904842528543,4409.6,1.47166276904705515133904842528543
106,4495.47357260251939958834597304788915,4494.0,1.47357260251939958834597304788915
107,4580.67546448244506328880648986197104,4579.2,1.47546448244506328880648986197104
108,4666.67733874343057097819556581944751,4665.2,1.47733874343057097819556581944751
109,4753.47919571081241232342865457317884,4752.0,1.47919571081241232342865457317884
110,4841.08103570099643695075552487895874,4839.6,1.48103570099643695075552487895874
111,4929.48285902178185257729272480001619,4928.0,1.48285902178185257729272480001619
112,5018.68466597267065978048463009916913,5017.2,1.48466597267065978048463009916913
113,5108.68645684516330139398954843114845,5107.2,1.48645684516330139398954843114845
114,5199.48823192304125576073220598028180,5198.0,1.48823192304125576073220598028180
115,5291.08999148263726262536153180515639,5289.6,1.48999148263726262536153180515639
116,5383.49173579309382211670552550043043,5382.0,1.49173579309382211670552550043043
117,5476.69346511661057555780898500797625,5475.2,1.49346511661057555780898500797625
118,5570.69517970868113581003492780738541,5569.2,1.49517970868113581003492780738541
119,5665.49687981831990114399505855391908,5664.0,1.49687981831990114399505855391908
120,5761.09856568827936078784079260785327,5759.6,1.49856568827936078784079260785327
121,5857.50023755525836203620241376239959,5856.0,1.50023755525836203620241376239959
122,5954.70189565010178988993223006384794,5953.2,1.50189565010178988993223006384794
123,6052.70354019799207800387670416420772,6051.2,1.50354019799207800387670416420772
124,6151.50517141863295204009418008371333,6150.0,1.50517141863295204009418008371333
125,6251.10678952642577695767327946638321,6249.6,1.50678952642577695767327946638321
126,6351.50839473063886457300970863609127,6350.0,1.50839473063886457300970863609127
127,6452.70998723557007714651423133674339,6451.2,1.50998723557007714651423133674339
128,6554.71156724070304016453532923093667,6553.2,1.51156724070304016453532923093667
129,6657.51313494085726541204308480122611,6656.0,1.51313494085726541204308480122611
130,6761.11469052633246704975416371174973,6759.6,1.51469052633246704975416371174973
131,6865.51623418304733800526125963024150,6864.0,1.51623418304733800526125963024150
132,6970.71776609267303901053038086174228,6969.2,1.51776609267303901053038086174228
133,7076.71928643276164083654539222331369,7075.2,1.51928643276164083654539222331369
134,7183.52079537686974899992334262831567,7182.0,1.52079537686974899992334262831567
135,7291.12229309467752210798112569850678,7289.6,1.52229309467752210798112569850678
136,7399.52377975210329132120486632290172,7398.0,1.52377975210329132120486632290172
137,7508.72525551141397510413178932425162,7507.2,1.52525551141397510413178932425162
138,7618.72672053133146982366413584667863,7617.2,1.52672053133146982366413584667863
139,7729.52817496713519464793010362099075,7728.0,1.52817496713519464793010362099075
140,7841.12961897076095375284027556434088,7839.6,1.52961897076095375284027556434088
141,7953.53105269089627428599829194777029,7952.0,1.53105269089627428599829194777029
142,8066.73247627307237046435975600688089,8065.2,1.53247627307237046435975600688089
143,8180.73388985975287553186434263460203,8179.2,1.53388985975287553186434263460203
144,8295.53529359041947612363064974522427,8294.0,1.53529359041947612363064974522427
145,8411.13668760165457939554534102468516,8409.6,1.53668760165457939554534102468516
146,8527.53807202722113540932894646387661,8526.0,1.53807202722113540932894646387661
147,8644.73944699813972906019548035006936,8643.2,1.53944699813972906019548035006936
148,8762.74081264276305687619060824637058,8761.2,1.54081264276305687619060824637058
149,8881.54216908684789049022178063708719,8880.0,1.54216908684789049022178063708719
150,9001.14351645362463042571530328933941,8999.6,1.54351645362463042571530328933941
151,9121.54485486386454611021595055527312,9120.0,1.54485486386454611021595055527312
152,9242.74618443594479241615888381482189,9241.2,1.54618443594479241615888381482189
153,9364.74750528591129167856979906764852,9363.2,1.54750528591129167856979906764852
154,9487.54881752753956508899817447153971,9486.0,1.54881752753956508899817447153971
155,9611.15012127239359170174033308505531,9609.6,1.55012127239359170174033308505531
156,9735.55141662988277291878129836454707,9734.0,1.55141662988277291878129836454707
157,9860.75270370731707350012331878640462,9859.2,1.55270370731707350012331878640462
158,9986.75398260996041091767174946227519,9985.2,1.55398260996041091767174946227519
159,10113.5552534410823567255788934443901,10112.0,1.5552534410823567255788934443901
160,10241.1565163020082162846553051620120,10239.6,1.5565163020082162846553051620120
161,10369.5577712921675453370389571295726,10368.0,1.5577712921675453370389571295726
162,10498.7590185091411628922956321381695,10497.2,1.5590185091411628922956321381695
163,10628.7602580487067152783230003889110,10627.2,1.5602580487067152783230003889110
164,10759.5614900048828459937290278561333,10758.0,1.5614900048828459937290278561333
165,10891.1627144699720199619793027962573,10889.6,1.5627144699720199619793027962573
166,11023.5639315346020527029803882345710,11022.0,1.5639315346020527029803882345710
167,11156.7651412877663916544991704009616,11155.2,1.5651412877663916544991704009616
168,11290.7663438168631923324147152872780,11289.2,1.5663438168631923324147152872780
169,11425.5675392077332343919768488134324,11424.0,1.5675392077332343919768488134324
170,11561.1687275446967173332738177586714,11559.6,1.5687275446967173332738177586714
171,11697.5699089105889760454578117535226,11696.0,1.5699089105889760454578117535226
172,11834.7710833867951540564762399371202,11833.2,1.5710833867951540564762399371202
173,11972.7722510532838698907316337800884,11971.2,1.5722510532838698907316337800884
174,12111.5734119886399123782791232914546,12110.0,1.5734119886399123782791232914546
175,12251.1745662700959989005897629328606,12249.6,1.5745662700959989005897629328606
176,12391.5757139735636262793316375235901,12390.0,1.5757139735636262793316375235901
177,12532.7768551736630475688066095665915,12531.2,1.5768551736630475688066095665915
178,12674.7779899437524039065414617457081,12673.2,1.5779899437524039065414617457081
179,12817.5791183559560378670846951991633,12816.0,1.5791183559560378670846951991633
180,12961.1802404811920192655153972906165,12959.6,1.5802404811920192655153972906165
181,13105.5813563891989060593592320645407,13104.0,1.5813563891989060593592320645407
182,13250.7824661485617680444094206067892,13249.2,1.5824661485617680444094206067892
183,13396.7835698267374963938414498243266,13395.2,1.5835698267374963938414498243266
184,13543.5846674900794232822733082279216,13542.0,1.5846674900794232822733082279216
185,13691.1857592038612734030160522947983,13689.6,1.5857592038612734030160522947983
186,13839.5868450323004683472525404638632,13838.0,1.5868450323004683472525404638632
187,13988.7879250385808076457695303670875,13987.2,1.5879250385808076457695303670875
188,14138.7889992848745419096822620902757,14137.2,1.5889992848745419096822620902757
189,14289.5900678323638618013698665008230,14288.0,1.5900678323638618013698665008230
190,14441.1911307412618184868273632337270,14439.6,1.5911307412618184868273632337270
191,14593.5921880708326947921196075303784,14592.0,1.5921880708326947921196075303784
192,14746.7932398794118434462722140988484,14745.2,1.5932398794118434462722140988484
193,14900.7942862244250107145844918918824,14899.2,1.5942862244250107145844918918824
194,15055.5953271624071587632856818101253,15054.0,1.5953271624071587632856818101253
195,15211.1963627490208046880346010103358,15209.6,1.5963627490208046880346010103358
196,15367.5973930390738898983050986870204,15366.0,1.5973930390738898983050986870204
197,15524.7984180865371942331267971346108,15523.2,1.5984180865371942331267971346108
198,15682.7994379445613089703073483873080,15681.2,1.5994379445613089703073483873080
199,15841.6004526654931815631445151822705,15840.0,1.6004526654931815631445151822705
200,16001.2014623008922460449817150766257,15999.6,1.6014623008922460449817150766257
201,16161.6024669015461500781833396843793,16160.0,1.6024669015461500781833396843793
202,16322.8034665174860920238441732746890,16321.2,1.6034665174860920238441732746890
203,16484.8044611980017786871165515302093,16483.2,1.6044611980017786871165515302093
204,16647.6054509916560153532279096500064,16646.0,1.6054509916560153532279096500064
205,16811.2064359462989380797106476616159,16809.6,1.6064359462989380797106476616159
206,16975.6074161090819012637585987406256,16974.0,1.6074161090819012637585987406256
207,17140.8083915264710263555543947585491,17139.2,1.6083915264710263555543947585491
208,17306.8093622442604259391961922753525,17305.2,1.6093622442604259391961922753525
209,17473.6103283075851089242798163049555,17472.0,1.6103283075851089242798163049555
210,17641.2112897609335783439661113572488,17639.6,1.6112897609335783439661113572488
211,17809.6122466481601291187265479774605,17808.0,1.6122466481601291187265479774605
212,17978.8131990124968560131292693326004,17977.2,1.6131990124968560131292693326004
213,18148.8141468965653761637989892931266,18147.2,1.6141468965653761637989892931266
214,18319.6150903423882811544821254405061,18318.0,1.6150903423882811544821254405061
215,18491.2160293914003178446966521177297,18489.6,1.6160293914003178446966521177297
216,18663.6169640844593119066756489338801,18662.0,1.6169640844593119066756489338801
217,18836.8178944618568380299018677222114,18835.2,1.6178944618568380299018677222114
218,19010.8188205633286457659450085320987,19009.2,1.6188205633286457659450085320987
219,19185.6197424280648442868045884022025,19184.0,1.6197424280648442868045884022025
220,19361.2206600947198585651545534180192,19359.6,1.6206600947198585651545534180192
221,19537.6215736014221548790571237208582,19536.0,1.6215736014221548790571237208582
222,19714.8224829857837528387915396466034,19713.2,1.6224829857837528387915396466034
223,19892.8233882849095174969155679110729,19891.2,1.6233882849095174969155679110729
224,20071.6242895354062466011485428536811,20070.0,1.6242895354062466011485428536811
225,20251.2251867733915555469172958091267,20249.6,1.6251867733915555469172958091267
226,20431.6260800345025635678071581435796,20430.0,1.6260800345025635678071581435796
227,20612.8269693539043898070723586330029,20611.2,1.6269693539043898070723586330029
228,20794.8278547662984610807218722622423,20793.2,1.6278547662984610807218722622423
229,20977.6287363059306384846421068491827,20976.0,1.6287363059306384846421068491827
230,21161.2296140065991675323197951342609,21159.6,1.6296140065991675323197951342609
231,21345.6304879016624536127619329715448,21344.0,1.6304879016624536127619329715448
232,21530.8313580240466731778629464692010,21529.2,1.6313580240466731778629464692010
233,21716.8322244062532156450615025848587,21715.2,1.6322244062532156450615025848587
234,21903.6330870803659721616986045837401,21902.0,1.6330870803659721616986045837401
235,22091.2339460780584644025258964071795,22089.6,1.6339460780584644025258964071795
236,22279.6348014306008230994918736303389,22278.0,1.6348014306008230994918736303389
237,22468.8356531688666199242970292785980,22467.2,1.6356531688666199242970292785980
238,22658.8365013233395544551016233912509,22657.2,1.6365013233395544551016233912509
