Eigenstate,Energy,Kinetic Energy,Potential Energy
1,0.500000000105297175049654103300686309,0.0,0.500000000105297175049654103300686309
2,1.84623093833844175953530285347306636,1.2,0.64623093833844175953530285347306636
3,3.93633761172395286364073129237138616,3.2,0.73633761172395286364073129237138616
4,6.79966528201956428283113055949298838,6.0,0.79966528201956428283113055949298838
5,10.4480465825702285736876819236268326,9.6,0.8480465825702285736876819236268326
6,14.8870660081425494364025674520514119,14.0,0.8870660081425494364025674520514119
7,20.1197208401803263476627242349062749,19.2,0.9197208401803263476627242349062749
8,26.1477838650635124071375407655822940,25.2,0.9477838650635124071375407655822940
9,32.9723835818001794301508042292826119,32.0,0.9723835818001794301508042292826119
10,40.5942802445400788448315847468864352,39.6,0.9942802445400788448315847468864352
11,49.0140094234250994281427988118620080,48.0,1.0140094234250994281427988118620080
12,58.2319622137605358281997453639734709,57.2,1.0319622137605358281997453639734709
13,68.2484327456127548919853903304606482,67.2,1.0484327456127548919853903304606482
14,79.0636477166654000908747578597259520,78.0,1.0636477166654000908747578597259520
15,90.6777855080336022900586265454597174,89.6,1.0777855080336022900586265454597174
16,103.090988989134441145789049092549968,102.0,1.090988989134441145789049092549968
17,116.303374351148460169833766209249089,115.2,1.103374351148460169833766209249089
18,130.315037358025873480994551127738642,129.2,1.115037358025873480994551127738642
19,145.126057869590548516962825999928813,144.0,1.126057869590548516962825999928813
20,160.736503179173946122165456997073906,159.6,1.136503179173946122165456997073906
21,177.146430519696820388351209201359769,176.0,1.146430519696820388351209201359769
22,194.355888974827960768400680064685938,193.2,1.155888974827960768400680064685938
23,212.364920956920718230511600560648822,211.2,1.164920956920718230511600560648822
24,231.173563364413428570420193397794019,230.0,1.173563364413428570420193397794019
25,250.781848498625339703930991030188055,249.6,1.181848498625339703930991030188055
26,271.189804797564200132129126373143735,270.0,1.189804797564200132129126373143735
27,292.397457428888835352035273347301518,291.2,1.197457428888835352035273347301518
28,314.404828773268188163783503028729561,313.2,1.204828773268188163783503028729561
29,337.211938821583270995199845833724731,336.0,1.211938821583270995199845833724731
30,360.818805503768990789245135320272792,359.6,1.218805503768990789245135320272792
31,385.225444962946868495347067663583145,384.0,1.225444962946868495347067663583145
32,410.431871785421775617776407121531090,409.2,1.231871785421775617776407121531090
33,436.438099194806162467801118761821044,435.2,1.238099194806162467801118761821044
34,463.244139216784706498513123933433751,462.0,1.244139216784706498513123933433751
35,490.850002819693114034278214662267126,489.6,1.250002819693114034278214662267126
36,519.255700035051329827282997615046009,518.0,1.255700035051329827282997615046009
37,548.461240061387324324439625197816049,547.2,1.261240061387324324439625197816049
38,578.466631354057209784239117178706603,577.2,1.266631354057209784239117178706603
39,609.271881703269587733221109627078161,608.0,1.271881703269587733221109627078161
40,640.876998302126209467869531759083860,639.6,1.276998302126209467869531759083860
41,673.281987806174281033778526074264947,672.0,1.281987806174281033778526074264947
42,706.486856385710751512236229251419064,705.2,1.286856385710751512236229251419064
43,740.491609771872437099306527821360744,739.2,1.291609771872437099306527821360744
44,775.296253297377739446864636578071201,774.0,1.296253297377739446864636578071201
45,810.900791932648147165949760976841242,809.6,1.300791932648147165949760976841242
46,847.305230317924573110127861823063066,846.0,1.305230317924573110127861823063066
47,884.509572791900103444163966393200632,883.2,1.309572791900103444163966393200632
48,922.513823417313148139005474128350667,921.2,1.313823417313148139005474128350667
49,961.317986003880319990140235049889463,960.0,1.317986003880319990140235049889463
50,1000.92206412889424654270628680781524,999.6,1.32206412889424654270628680781524
51,1041.32606115576605234423016938065414,1040.0,1.32606115576605234423016938065414
52,1082.52998025075390373154813254035510,1081.2,1.32998025075390373154813254035510
53,1124.53382439808655823989941480588609,1123.2,1.33382439808655823989941480588609
54,1167.33759641366329959070880378369440,1166.0,1.33759641366329959070880378369440
55,1210.94129895748816372205028851632368,1209.6,1.34129895748816372205028851632368
56,1255.34493454497628675564718991219171,1254.0,1.34493454497628675564718991219171
57,1300.54850555725300682913553263630126,1299.2,1.34850555725300682913553263630126
58,1346.55201425055155453601883499281300,1345.2,1.35201425055155453601883499281300
59,1393.35546276480241276845978515117356,1392.0,1.35546276480241276845978515117356
60,1440.95885313149640225034688728657995,1439.6,1.35885313149640225034688728657995
61,1489.36218728089398482056420630135905,1488.0,1.36218728089398482056420630135905
62,1538.56546704864497552127494590485919,1537.2,1.36546704864497552127494590485919
63,1588.56869418187561265700511058721398,1587.2,1.36869418187561265700511058721398
64,1639.37187034479362251038842014969792,1638.0,1.37187034479362251038842014969792
65,1690.97499712385638056045843281258845,1689.6,1.37499712385638056045843281258845
66,1743.37807603254242371031702524495747,1742.0,1.37807603254242371031702524495747
67,1796.58110851576230573968083745480210,1795.2,1.38110851576230573968083745480210
68,1850.58409595394103203699705992811204,1849.2,1.38409595394103203699705992811204
69,1905.38703966680099699509182885039472,1904.0,1.38703966680099699509182885039472
70,1960.98994091687141918604856879080627,1959.6,1.38994091687141918604856879080627
71,2017.39280091274767072728255204483312,2016.0,1.39280091274767072728255204483312
72,2074.59562081212159900839591592812929,2073.2,1.39562081212159900839591592812929
73,2132.59840172460188594199424082657875,2131.2,1.39840172460188594199424082657875
74,2191.40114471434167105309147525129815,2190.0,1.40114471434167105309147525129815
75,2251.00385080248903362062712102237110,2249.6,1.40385080248903362062712102237110
76,2311.40652096947447952786313941379273,2310.0,1.40652096947447952786313941379273
77,2372.60915615714827608001022096856741,2371.2,1.40915615714827608001022096856741
78,2434.61175727077931224925218097682639,2433.2,1.41175727077931224925218097682639
79,2497.41432518092611498734480573252928,2496.0,1.41432518092611498734480573252928
80,2561.01686072518971412032056990642201,2559.6,1.41686072518971412032056990642201
81,2625.41936470985719899835451580785084,2624.0,1.41936470985719899835451580785084
82,2690.62183791144404862329230977802641,2689.2,1.42183791144404862329230977802641
83,2756.62428107814262824255200480962037,2755.2,1.42428107814262824255200480962037
84,2823.42669493118362110639502771913168,2822.0,1.42669493118362110639502771913168
85,2891.02908016611660480938798890526236,2889.6,1.42908016611660480938798890526236
86,2959.43143745401546577148764514028797,2958.0,1.43143745401546577148764514028797
87,3028.63376744261388794338193810845871,3027.2,1.43376744261388794338193810845871
88,3098.63607075737572844298375547992616,3097.2,1.43607075737572844298375547992616
89,3169.43834800250470932781329189604912,3168.0,1.43834800250470932781329189604912
90,3241.04059976189751149127525213604335,3239.6,1.44059976189751149127525213604335
91,3313.44282660004403521878723406575689,3312.0,1.44282660004403521878723406575689
92,3386.64502906287830364217587083474875,3385.2,1.44502906287830364217587083474875
93,3460.64720767858322307570276206969431,3459.2,1.44720767858322307570276206969431
94,3535.44936295835217128834351075544176,3534.0,1.44936295835217128834351075544176
95,3611.05149539711016361291512552815828,3609.6,1.45149539711016361291512552815828
96,3687.45360547419714497053025625526497,3686.0,1.45360547419714497053025625526497
97,3764.65569365401577154674805151772579,3763.2,1.45569365401577154674805151772579
98,3842.65776038664587298149618518431394,3841.2,1.45776038664587298149618518431394
99,3921.45980610842763246265073365563082,3920.0,1.45980610842763246265073365563082
100,4001.06183124251537577274381890707226,3999.6,1.46183124251537577274381890707226
101,4081.46383619940373103411570566177928,4080.0,1.46383619940373103411570566177928
102,4162.66582137742779532310650718142251,4161.2,1.46582137742779532310650718142251
103,4244.66778716323883641027053052105075,4243.2,1.46778716323883641027053052105075
104,4327.46973393225695061888655027029060,4326.0,1.46973393225695061888655027029060
105,4411.07166204910200472027984672972157,4409.6,1.47166204910200472027984672972157
106,4495.47357186800409902022928762060291,4494.0,1.47357186800409902022928762060291
107,4580.67546373319471070877760263571157,4579.2,1.47546373319471070877760263571157
108,4666.67733797927959730620846274002848,4665.2,1.47733797927959730620846274002848
109,4753.47919493159447144442116881914089,4752.0,1.47919493159447144442116881914089
110,4841.08103490654439580280806201033570,4839.6,1.48103490654439580280806201033570
111,4929.48285821192778115654236004590981,4928.0,1.48285821192778115654236004590981
112,5018.68466514724582106155101232059512,5017.2,1.48466514724582106155101232059512
113,5108.68645600399814116465316166015248,5107.2,1.48645600399814116465316166015248
114,5199.48823106596539236958934537052442,5198.0,1.48823106596539236958934537052442
115,5291.08999060947947664116411510923706,5289.6,1.48999060947947664116411510923706
116,5383.49173490368204589807735427240138,5382.0,1.49173490368204589807735427240138
117,5476.69346421077188273201279689080772,5475.2,1.49346421077188273201279689080772
118,5570.69517878624173065944764653199964,5569.2,1.49517878624173065944764653199964
119,5665.49687887910510789893108484677832,5664.0,1.49687887910510789893108484677832
120,5761.09856473211361282434527031970474,5759.6,1.49856473211361282434527031970474
121,5857.50023658196519097741828653404241,5856.0,1.50023658196519097741828653404241
122,5954.70189465950381460962660538723449,5953.2,1.50189465950381460962660538723449
123,6052.70353918991099353069300521736087,6051.2,1.50353918991099353069300521736087
124,6151.50517039288951836107771967791082,6150.0,1.50517039288951836107771967791082
125,6251.10678848283980771959824311585554,6249.6,1.50678848283980771959824311585554
126,6351.50839366902921568001600641038900,6350.0,1.50839366902921568001600641038900
127,6452.70998615575463525254223183543627,6451.2,1.50998615575463525254223183543627
128,6554.71156614249871105902642660019344,6553.2,1.51156614249871105902642660019344
129,6657.51313382407996229735281343393221,6656.0,1.51313382407996229735281343393221
130,6761.11468939079709870870372712668470,6759.6,1.51468939079709870870372712668470
131,6865.51623302856779685723149628281467,6864.0,1.51623302856779685723149628281467
132,6970.71776491906218905448044154511783,6969.2,1.51776491906218905448044154511783
133,7076.71928523983130547931591279287357,7075.2,1.51928523983130547931591279287357
134,7183.52079416443069876816140235363691,7182.0,1.52079416443069876816140235363691
135,7291.12229186253946224200093928703482,7289.6,1.52229186253946224200093928703482
136,7399.52377850007484924907468132561068,7398.0,1.52377850007484924907468132561068
137,7508.72525423930268779425364251903664,7507.2,1.52525423930268779425364251903664
138,7618.72671923894377101408855100564984,7617.2,1.52671923894377101408855100564984
139,7729.52817365427640195062327609329951,7728.0,1.52817365427640195062327609329951
140,7841.12961763723525563109580857590973,7839.6,1.52961763723525563109580857590973
141,7953.53105133650671690315999433538715,7952.0,1.53105133650671690315999433538715
142,8066.73247489762084440199593668408987,8065.2,1.53247489762084440199593668408987
143,8180.73388846304010237550723628429539,8179.2,1.53388846304010237550723628429539
144,8295.53529217224499491416778380941300,8294.0,1.53529217224499491416778380941300
145,8411.13668616181673294432201497094507,8409.6,1.53668616181673294432201497094507
146,8527.53807056551705647499285135535487,8526.0,1.53807056551705647499285135535487
147,8644.73944551436532638528605993855918,8643.2,1.53944551436532638528605993855918
148,8762.74081113671300108144684692821149,8761.2,1.54081113671300108144684692821149
149,8881.54216755831559982455221974730301,8880.0,1.54216755831559982455221974730301
150,9001.14351490240225636974420436560391,8999.6,1.54351490240225636974420436560391
151,9121.54485328974295883128906991996395,9120.0,1.54485328974295883128906991996395
152,9242.74618283871356607266067405145009,9241.2,1.54618283871356607266067405145009
153,9364.74750366535868957137263486794919,9363.2,1.54750366535868957137263486794919
154,9487.54881588345252465783156699041616,9486.0,1.54881588345252465783156699041616
155,9611.15011960455770936423553160246115,9609.6,1.55011960455770936423553160246115
156,9735.55141493808228874991256952332507,9734.0,1.55141493808228874991256952332507
157,9860.75270199133485574973412041510638,9859.2,1.55270199133485574973412041510638
158,9986.75398086957794036373819414058161,9985.2,1.55398086957794036373819414058161
159,10113.5552516760797108608287029355413,10112.0,1.5552516760797108608287029355413
160,10241.1565145121640533341236710866158,10239.6,1.5565145121640533341236710866158
161,10369.5577694772590881041064599069350,10368.0,1.5577694772590881041064599069350
162,10498.7590166689441824307161383696190,10497.2,1.5590166689441824307161383696190
163,10628.7602561829955143877112827174294,10627.2,1.5602561829955143877112827174294
164,10759.5614881134302425359399133986561,10758.0,1.5614881134302425359399133986561
165,10891.1627125525493299957696219467557,10889.6,1.5627125525493299957696219467557
166,11023.5639295909790734343061790161576,11022.0,1.5639295909790734343061790161576
167,11156.7651393177113841997591410907025,11155.2,1.5651393177113841997591410907025
168,11290.7663418201428642919093690872269,11289.2,1.5663418201428642919093690872269
169,11425.5675371841127222308110504672453,11424.0,1.5675371841127222308110504672453
170,11561.1687254939395685668867750525346,11559.6,1.5687254939395685668867750525346
171,11697.5699068324571312269210258298874,11696.0,1.5699068324571312269210258298874
172,11834.7710812810489285626553732902418,11833.2,1.5710812810489285626553732902418
173,11972.7722489196819355043622568095993,11971.2,1.5722489196819355043622568095993
174,12111.5734098269392786629609260047410,12110.0,1.5734098269392786629609260047410
175,12251.1745640800519943656555420713892,12249.6,1.5745640800519943656555420713892
176,12391.5757117549298793315001488489897,12390.0,1.5757117549298793315001488489897
177,12532.7768529261914672474792216063730,12531.2,1.5768529261914672474792216063730
178,12674.7779876671931603995525474115717,12673.2,1.5779876671931603995525474115717
179,12817.5791160500575428036650870709905,12816.0,1.5791160500575428036650870709905
180,12961.1802381457009057831764959357851,12959.6,1.5802381457009057831764959357851
181,13105.5813540238600086413526002294526,13104.0,1.5813540238600086413526002294526
182,13250.7824637531181021243633816396075,13249.2,1.5824637531181021243633816396075
183,13396.7835674009302377241206735299081,13395.2,1.5835674009302377241206735299081
184,13543.5846650336478870625531690972210,13542.0,1.5846650336478870625531690972210
185,13691.1857567165428931655048842002937,13689.6,1.5857567165428931655048842002937
186,13839.5868425138307745949390978022953,13838.0,1.5868425138307745949390978022953
187,13988.7879224886934062400125030354803,13987.2,1.5879224886934062400125030354803
188,14138.7889967033010922033994290217128,14137.2,1.5889967033010922033994290217128
189,14289.5900652188340545140231328431031,14288.0,1.5900652188340545140231328431031
190,14441.1911280955033533173381401763078,14439.6,1.5911280955033533173381401763078
191,14593.5921853925712577657843878224011,14592.0,1.5921853925712577657843878224011
192,14746.7932371683710839916844885608636,14745.2,1.5932371683710839916844885608636
193,14900.7942834803265184665030611724865,14899.2,1.5942834803265184665030611724865
194,15055.5953243849704400873217203849616,15054.0,1.5953243849704400873217203849616
195,15211.1963599379632589229617804964402,15209.6,1.5963599379632589229617804964402
196,15367.5973901941107853117276382658437,15366.0,1.5973901941107853117276382658437
197,15524.7984152073816436861680156141598,15523.2,1.5984152073816436861680156141598
198,15682.7994350309242452869100799313829,15681.2,1.5994350309242452869100799313829
199,15841.6004497170833325995002165373628,15840.0,1.6004497170833325995002165373628
200,16001.2014593174161094545296763325910,15999.6,1.6014593174161094545296763325910
201,16161.6024638827079677675449464747870,16160.0,1.6024638827079677675449464747870
202,16322.8034634629878242949785117161127,16321.2,1.6034634629878242949785117161127
203,16484.8044581075430780609045102355335,16483.2,1.6044581075430780609045102355335
204,16647.6054478649342000696097298455820,16646.0,1.6054478649342000696097298455820
205,16811.2064327830089652694195003974749,16809.6,1.6064327830089652694195003974749
206,16975.6074129089163397866080785407528,16974.0,1.6074129089163397866080785407528
207,17140.8083882891200293001515483195303,17139.2,1.6083882891200293001515483195303
208,17306.8093589694117027788638555620731,17305.2,1.6093589694117027788638555620731
209,17473.6103249949238973238822339329600,17472.0,1.6103249949238973238822339329600
210,17641.2112864101426156122405610672206,17639.6,1.6112864101426156122405610672206
211,17809.6122432589196233006302484117850,17808.0,1.6122432589196233006302484117850
212,17978.8131955844844566166160814237742,17977.2,1.6131955844844566166160814237742
213,18148.8141434294561445153434518568879,18147.2,1.6141434294561445153434518568879
214,18319.6150868358546603775689638839278,18318.0,1.6150868358546603775689638839278
215,18491.2160258451121024553936768317955,18489.6,1.6160258451121024553936768317955
216,18663.6169604980836170203045965489970,18662.0,1.6169604980836170203045965489970
217,18836.8178908350580681727174803954485,18835.2,1.6178908350580681727174803954485
218,19010.8188168957684632856245700604245,19009.2,1.6188168957684632856245700604245
219,19185.6197387194021373554419262457724,19184.0,1.6197387194021373554419262457724
220,19361.2206563446107087683405128364626,19359.6,1.6206563446107087683405128364626
221,19537.6215698095198043845150119121401,19536.0,1.6215698095198043845150119121401
222,19714.8224791517385711379205630133390,19713.2,1.6224791517385711379205630133390
223,19892.8233844083689677124760595458368,19891.2,1.6233844083689677124760595458368
224,20071.6242856160148513542029425443837,20070.0,1.6242856160148513542029425443837
225,20251.2251828107908623760172855643982,20249.6,1.6251828107908623760172855643982
226,20431.6260760283311098932915138435431,20430.0,1.6260760283311098932915138435431
227,20612.8269653037976674332123930474609,20611.2,1.6269653037976674332123930474609
228,20794.8278506718888802283196748796853,20793.2,1.6278506718888802283196748796853
229,20977.6287321668474913465541001878271,20976.0,1.6287321668474913465541001878271
230,21161.2296098224685913442413434703696,21159.6,1.6296098224685913442413434703696
231,21345.6304836721073932314690066038555,21344.0,1.6304836721073932314690066038555
232,21530.8313537486868431589659386955350,21529.2,1.6313537486868431589659386955350
233,21716.8322200847050618121809602905364,21715.2,1.6322200847050618121809602905364
234,21903.6330827122426326588240817981662,21902.0,1.6330827122426326588240817981662
235,22091.2339416629697302211686600758498,22089.6,1.6339416629697302211686600758498
236,22279.6347969681530980720877640170348,22278.0,1.6347969681530980720877640170348
237,22468.8356486586628801751586378637100,22467.2,1.6356486586628801751586378637100
238,22658.8364967649793073000572666593564,22657.2,1.6364967649793073000572666593564
