Eigenstate,Energy,Kinetic Energy,Potential Energy
1,0.500000000031927545125314044649474639,0.0,0.500000000031927545125314044649474639
2,1.84623093785952092815570381129871032,1.2,0.64623093785952092815570381129871032
3,3.93633761031715188342477342364899934,3.2,0.73633761031715188342477342364899934
4,6.79966527908933084590157750986635367,6.0,0.79966527908933084590157750986635367
5,10.4480465774944036421634838394429117,9.6,0.8480465774944036421634838394429117
6,14.8870660002880467881649576399296459,14.0,0.8870660002880467881649576399296459
7,20.1197208289089043687389719425790415,19.2,0.9197208289089043687389719425790415
8,26.1477838497341761881036267944926620,25.2,0.9477838497341761881036267944926620
9,32.9723835617702931674505109983685323,32.0,0.9723835617702931674505109983685323
10,40.5942802191659262161875875293184871,39.6,0.9942802191659262161875875293184871
11,49.0140093920621840937154830318689627,48.0,1.0140093920621840937154830318689627
12,58.2319621757637494981438809378578589,57.2,1.0319621757637494981438809378578589
13,68.2484327003364732910015746374328806,67.2,1.0484327003364732910015746374328806
14,79.0636476634635374216506964040137629,78.0,1.0636476634635374216506964040137629
15,90.6777854462596406540795211472809333,89.6,1.0777854462596406540795211472809333
16,103.090988918141444227714022617141305,102.0,1.090988918141444227714022617141305
17,116.303374270289076679544368679676183,115.2,1.103374270289076679544368679676183
18,130.315037266652333720818898300777571,129.2,1.115037266652333720818898300777571
19,145.126057767054656206996314396743539,144.0,1.126057767054656206996314396743539
20,160.736503064827066874285322188453218,159.6,1.136503064827066874285322188453218
21,177.146430392889867759084297902723813,176.0,1.146430392889867759084297902723813
22,194.355888834911380527181452951219677,193.2,1.155888834911380527181452951219677
23,212.364920803244471287911285596094895,211.2,1.164920803244471287911285596094895
24,231.173563196326972882594048672633995,230.0,1.173563196326972882594048672633995
25,250.781848315477611381974140459966441,249.6,1.181848315477611381974140459966441
26,271.189804598703593924184151181549183,270.0,1.189804598703593924184151181549183
27,292.397457213663184622991151983156677,291.2,1.197457213663184622991151983156677
28,314.404828541024744466540605103292662,313.2,1.204828541024744466540605103292662
29,337.211938571668683305006729632331382,336.0,1.211938571668683305006729632331382
30,360.818805235529284456040742534772083,359.6,1.218805235529284456040742534772083
31,385.225444675727423956670059860777885,384.0,1.225444675727423956670059860777885
32,410.431871478567306905463095304917333,409.2,1.231871478567306905463095304917333
33,436.438098867660695534567660619797282,435.2,1.238098867660695534567660619797282
34,463.244138868691557385028181543239409,462.0,1.244138868691557385028181543239409
35,490.850002449994866893064507404817179,489.6,1.250002449994866893064507404817179
36,519.255699643089814816439814136545832,518.0,1.255699643089814816439814136545832
37,548.461239646503595381533048179203731,547.2,1.261239646503595381533048179203731
38,578.466630915591522288599894597218153,577.2,1.266630915591522288599894597218153
39,609.271881240561376063199854929654291,608.0,1.271881240561376063199854929654291
40,640.876997814514064458233631717207854,639.6,1.276997814514064458233631717207854
41,673.281987292995927337325279055545628,672.0,1.281987292995927337325279055545628
42,706.486855846303024868788690113877295,705.2,1.286855846303024868788690113877295
43,740.491609205571261514511270467854684,739.2,1.291609205571261514511270467854684
44,775.296252703518104282592293338522502,774.0,1.296252703518104282592293338522502
45,810.900791310564084143584424055254836,809.6,1.300791310564084143584424055254836
46,847.305229666949133227600709835359018,846.0,1.305229666949133227600709835359018
47,884.509572111365333807224354997704224,883.2,1.309572111365333807224354997704224
48,922.513822706550068706916307379510770,921.2,1.313822706550068706916307379510770
49,961.317985262218900235724219445273956,960.0,1.317985262218900235724219445273956
50,1000.92206335566338202644749486140066,999.6,1.32206335566338202644749486140066
51,1041.32606035029354120194443392952252,1040.0,1.32606035029354120194443392952252
52,1082.52997941236642307497131818148946,1081.2,1.32997941236642307497131818148946
53,1124.53382352610964046940002530172624,1123.2,1.33382352610964046940002530172624
54,1167.33759550742130861920703428138739,1166.0,1.33759550742130861920703428138739
55,1210.94129801630427110911682734638315,1209.6,1.34129801630427110911682734638315
56,1255.34493356817244775065932237058752,1254.0,1.34493356817244775065932237058752
57,1300.54850454414993632228341327714241,1299.2,1.34850454414993632228341327714241
58,1346.55201320046870291587914495161347,1345.2,1.35201320046870291587914495161347
59,1393.35546167705794168478690722137839,1392.0,1.35546167705794168478690722137839
60,1440.95885200540716028067085149044544,1439.6,1.35885200540716028067085149044544
61,1489.36218611577548303912993374655926,1488.0,1.36218611577548303912993374655926
62,1538.56546584381136296880730379365657,1537.2,1.36546584381136296880730379365657
63,1588.56869293663965170973877570479365,1587.2,1.36869293663965170973877570479365
64,1639.37186905846666414675962252903133,1638.0,1.37186905846666414675962252903133
65,1690.97499579574833952381656494469584,1689.6,1.37499579574833952381656494469584
66,1743.37807466196175356597816150622150,1742.0,1.37807466196175356597816150622150
67,1796.58110710201597382461133302370242,1795.2,1.38110710201597382461133302370242
68,1850.58409449633449430038351353486204,1849.2,1.38409449633449430038351353486204
69,1905.38703816463817272802339761178637,1904.0,1.38703816463817272802339761178637
70,1960.98993936945466563850939683975887,1959.6,1.38993936945466563850939683975887
71,2017.39279931937775761062407274797597,2016.0,1.39279931937775761062407274797597
72,2074.59561917209768288143300096808559,2073.2,1.39561917209768288143300096808559
73,2132.59840003722148447884329847644120,2131.2,1.39840003722148447884329847644120
74,2191.40114297890063719084427632401331,2190.0,1.40114297890063719084427632401331
75,2251.00384901828152958492982318790304,2249.6,1.40384901828152958492982318790304
76,2311.40651913579295073444687330922940,2310.0,1.40651913579295073444687330922940
77,2372.60915427328342491019634012678142,2371.2,1.40915427328342491019634012678142
78,2434.61175533602007169743267517652881,2433.2,1.41175533602007169743267517652881
79,2497.41432319455962217841603789392235,2496.0,1.41432319455962217841603789392235
80,2561.01685868650128369502658243309899,2559.6,1.41685868650128369502658243309899
81,2625.41936261813029636447383761088384,2624.0,1.41936261813029636447383761088384
82,2690.62183576596026307058060471799253,2689.2,1.42183576596026307058060471799253
83,2756.62427887818164591933113805735398,2755.2,1.42427887818164591933113805735398
84,2823.42669267602319785565724288459468,2822.0,1.42669267602319785565724288459468
85,2891.02907785503253886226226337015779,2889.6,1.42907785503253886226226337015779
86,2959.43143508628157029589353878852666,2958.0,1.43143508628157029589353878852666
87,3028.63376501750196344567412501351555,3027.2,1.43376501750196344567412501351555
88,3098.63606827415553502036876969864699,3097.2,1.43606827415553502036876969864699
89,3169.43834546044393876929768868225676,3168.0,1.43834546044393876929768868225676
90,3241.04059716026175922488235889081163,3239.6,1.44059716026175922488235889081163
91,3313.44282393809677210275690416525649,3312.0,1.44282393809677210275690416525649
92,3386.64502633988084759783941182094897,3385.2,1.44502633988084759783941182094897
93,3460.64720489379471055970199219392234,3459.2,1.44720489379471055970199219392234
94,3535.44936011102952860184018089708407,3534.0,1.44936011102952860184018089708407
95,3611.05149248650807804541334364551811,3609.6,1.45149248650807804541334364551811
96,3687.45360249956803577591122618033960,3686.0,1.45360249956803577591122618033960
97,3764.65569061460976074909230262343088,3763.2,1.45569061460976074909230262343088
98,3842.65775728171075600824469357020107,3841.2,1.45775728171075600824469357020107
99,3921.45980293720884860263146974076003,3920.0,1.45980293720884860263146974076003
100,4001.06182800425597845656595062156647,3999.6,1.46182800425597845656595062156647
101,4081.46383289334435793440818966800746,4080.0,1.46383289334435793440818966800746
102,4162.66581800280663827205274776530506,4161.2,1.46581800280663827205274776530506
103,4244.66778371929161113186491583268172,4243.2,1.46778371929161113186491583268172
104,4327.46973041821686627331228873555687,4326.0,1.46973041821686627331228873555687
105,4411.07165846419973325778146219179120,4409.6,1.47165846419973325778146219179120
106,4495.47356821146774434182612005968259,4494.0,1.47356821146774434182612005968259
107,4580.67546000424977763113725153208952,4579.2,1.47546000424977763113725153208952
108,4666.67733417714896032797185392073069,4665.2,1.47733417714896032797185392073069
109,4753.47919105549834331124240512248742,4752.0,1.47919105549834331124240512248742
110,4841.08103095570029586834420804403675,4839.6,1.48103095570029586834420804403675
111,4929.48285418555050353659927787414246,4928.0,1.48285418555050353659927787414246
112,5018.68466104454740257856194132710321,5017.2,1.48466104454740257856194132710321
113,5108.68645182418782907963722204773123,5107.2,1.48645182418782907963722204773123
114,5199.48822680824961189870679960926426,5198.0,1.48822680824961189870679960926426
115,5291.08998627306179825395471468110096,5289.6,1.48998627306179825395471468110096
116,5383.49173048776315239443679573494377,5382.0,1.49173048776315239443679573494377
117,5476.69345971454953609493100285609389,5475.2,1.49345971454953609493100285609389
118,5570.69517420891073868050038479361993,5569.2,1.49517420891073868050038479361993
119,5665.49687421985729057348392099294396,5664.0,1.49687421985729057348392099294396
120,5761.09855999013776851339569322211245,5759.6,1.49855999013776851339569322211245
121,5857.50023175644706233296850284205665,5856.0,1.50023175644706233296850284205665
122,5954.70188974962605426044532254719893,5953.2,1.50188974962605426044532254719893
123,6052.70353419485312952528993664199148,6051.2,1.50353419485312952528993664199148
124,6151.50516531182791936467950379380975,6150.0,1.50516531182791936467950379380975
125,6251.10678331494764796187867813039128,6249.6,1.50678331494764796187867813039128
126,6351.50838841347643965029731784420110,6350.0,1.50838841347643965029731784420110
127,6452.70998081170792213914746987863766,6451.2,1.50998081170792213914746987863766
128,6554.71156070912143892942547746896811,6553.2,1.51156070912143892942547746896811
129,6657.51312830053217201570683033857579,6656.0,1.51312830053217201570683033857579
130,6761.11468377623545758737419129410652,6759.6,1.51468377623545758737419129410652
131,6865.51622732214556203878098797197138,6864.0,1.51622732214556203878098797197138
132,6970.71775911992917062065221790692567,6969.2,1.51775911992917062065221790692567
133,7076.71927934713382928343989703199456,7075.2,1.51927934713382928343989703199456
134,7183.52078817731156898739210742863194,7182.0,1.52078817731156898739210742863194
135,7291.12228578013792364575187980905456,7289.6,1.52228578013792364575187980905456
136,7399.52377232152654917997176941502535,7398.0,1.52377232152654917997176941502535
137,7508.72524796373963785788660865594330,7507.2,1.52524796373963785788660865594330
138,7618.72671286549430847379611296185580,7617.2,1.52671286549430847379611296185580
139,7729.52816718206515082350354719253157,7728.0,1.52816718206515082350354719253157
140,7841.12961106538308748138831943988917,7839.6,1.52961106538308748138831943988917
141,7953.53104466413071132910043385711011,7952.0,1.53104466413071132910043385711011
142,8066.73246812383424921219773659185439,8065.2,1.53246812383424921219773659185439
143,8180.73388158695229345087748706369119,8179.2,1.53388158695229345087748706369119
144,8295.53528519296143575131695496973274,8294.0,1.53528519296143575131695496973274
145,8411.13667907843893387637845420474307,8409.6,1.53667907843893387637845420474307
146,8527.53806337714253356568353497231297,8526.0,1.53806337714253356568353497231297
147,8644.73943822008755999209492859906475,8643.2,1.53943822008755999209492859906475
148,8762.74080373562139408361146967742432,8761.2,1.54080373562139408361146967742432
149,8881.54216004949543551160709746533200,8880.0,1.54216004949543551160709746533200
150,9001.14350728493465598626771169230639,8999.6,1.54350728493465598626771169230639
151,9121.54484556270483877345602634504821,9120.0,1.54484556270483877345602634504821
152,9242.74617500117759473214973905114103,9241.2,1.54617500117759473214973905114103
153,9364.74749571639324382212187945886258,9363.2,1.54749571639324382212187945886258
154,9487.54880782212164598108006731034782,9486.0,1.54880782212164598108006731034782
155,9611.15011142992105960723167220621743,9609.6,1.55011142992105960723167220621743
156,9735.55140664919510551361198988702225,9734.0,1.55140664919510551361198988702225
157,9860.75269358724790740075213943721312,9859.2,1.55269358724790740075213943721312
158,9986.75397234933748066576128467345767,9985.2,1.55397234933748066576128467345767
159,10113.5552430387274332206296721328050,10112.0,1.5552430387274332206296721328050
160,10241.1565057567370446572631421886374,10239.6,1.5565057567370446572631421886374
161,10369.5577606027897822553412864241999,10368.0,1.5577606027897822553412864241999
162,10498.7590076744603132940716118433915,10497.2,1.5590076744603132940716118433915
163,10628.7602470675200685211100374782840,10627.2,1.5602470675200685211100374782840
164,10759.5614788759814114152139874904081,10758.0,1.5614788759814114152139874904081
165,10891.1627031921404618428166451799775,10889.6,1.5627031921404618428166451799775
166,11023.5639201066186246240821915709222,11022.0,1.5639201066186246240821915709222
167,11156.7651297084028702407326389085642,11155.2,1.5651297084028702407326389085642
168,11290.7663320848848103745308837479535,11289.2,1.5663320848848103745308837479535
169,11425.5675273218986133384815155518155,11424.0,1.5675273218986133384815155518155
170,11561.1687155037577991438364518970107,11559.6,1.5687155037577991438364518970107
171,11697.5698967132909543973369678316538,11696.0,1.5698967132909543973369678316538
172,11834.7710710318764048953214159890965,11833.2,1.5710710318764048953214159890965
173,11972.7722385394758813170002676313658,11971.2,1.5722385394758813170002676313658
174,12111.5733993146672138603836924832364,12110.0,1.5733993146672138603836924832364
175,12251.1745534346760898057657473911651,12249.6,1.5745534346760898057657473911651
176,12391.5757009754069037130890188083864,12390.0,1.5757009754069037130890188083864
177,12532.7768420114727335136982619218567,12531.2,1.5768420114727335136982619218567
178,12674.7779766162244716508503304459783,12673.2,1.5779766162244716508503304459783
179,12817.5791048617791377138972249391750,12816.0,1.5791048617791377138972249391750
180,12961.1802268190474035125121623438229,12959.6,1.5802268190474035125121623438229
181,13105.5813425577603532395159050975638,13104.0,1.5813425577603532395159050975638
182,13250.7824521464955064176596298620915,13249.2,1.5824521464955064176596298620915
183,13396.7835556527021266796092820617203,13395.2,1.5835556527021266796092820617203
184,13543.5846531427258406226383194579995,13542.0,1.5846531427258406226383194579995
185,13691.1857446818325885461231356768332,13689.6,1.5857446818325885461231356768332
186,13839.5868303342319280404309738676118,13838.0,1.5868303342319280404309738676118
187,13988.7879101630997142276688092236946,13987.2,1.5879101630997142276688092236946
188,14138.7889842306001720905778846007143,14137.2,1.5889842306001720905778846007143
189,14289.5900525979073846206321873590495,14288.0,1.5900525979073846206321873590495
190,14441.1911153252262124363858631711377,14439.6,1.5911153252262124363858631711377
191,14593.5921724718126640945883722534215,14592.0,1.5921724718126640945883722534215
192,14746.7932240959937334762366801425403,14745.2,1.5932240959937334762366801425403
193,14900.7942702551867225513781802293705,14899.2,1.5942702551867225513781802293705
194,15055.5953110059180628634120667934950,15054.0,1.5953110059180628634120667934950
195,15211.1963464038416536652124691323799,15209.6,1.5963464038416536652124691323799
196,15367.5973765037567303989372097112057,15366.0,1.5973765037567303989372097112057
197,15524.7984013596252778948068478318389,15523.2,1.5984013596252778948068478318389
198,15682.7994210245890024507962054738592,15681.2,1.5994210245890024507962054738592
199,15841.6004355509858756270554091297099,15840.0,1.6004355509858756270554091297099
200,16001.2014449903662636952225114068068,15999.6,1.6014449903662636952225114068068
201,16161.6024493935086537190078121991437,16160.0,1.6024493935086537190078121991437
202,16322.8034488104349896421627662679980,16321.2,1.6034488104349896421627662679980
203,16484.8044432904256290385164688457384,16483.2,1.6044432904256290385164688457384
204,16647.6054328820339321389428788254493,16646.0,1.6054328820339321389428788254493
205,16811.2064176331004931005719725034838,16809.6,1.6064176331004931005719725034838
206,16975.6073975907670265369432375745893,16974.0,1.6073975907670265369432375745893
207,17140.8083728014899151797283058492829,17139.2,1.6083728014899151797283058492829
208,17306.8093433110534328934288333915490,17305.2,1.6093433110534328934288333915490
209,17473.6103091645826487858785431168770,17472.0,1.6103091645826487858785431168770
210,17641.2112704065560239101499631221879,17639.6,1.6112704065560239101499631221879
211,17809.6122270808177079168236921881394,17808.0,1.6122270808177079168236921881394
212,17978.8131792305895458837436938069782,17977.2,1.6131792305895458837436938069782
213,18148.8141268984827997011481746041699,18147.2,1.6141268984827997011481746041699
214,18319.6150701265095989878609075136524,18318.0,1.6150701265095989878609075136524
215,18491.2160089560941207447692647079264,18489.6,1.6160089560941207447692647079264
216,18663.6169434280835117000410376413046,18662.0,1.6169434280835117000410376413046
217,18836.8178735827585573051168637336633,18835.2,1.6178735827585573051168637336633
218,19010.8187994598441063539228056794855,19009.2,1.6187994598441063539228056794855
219,19185.6197210985192544982334680741996,19184.0,1.6197210985192544982334680741996
220,19361.2206385374272991673078660450379,19359.6,1.6206385374272991673078660450379
221,19537.6215518146854637940821001356020,19536.0,1.6215518146854637940821001356020
222,19714.8224609678944085452786923497531,19713.2,1.6224609678944085452786923497531
223,19892.8233660341475211162576804963220,19891.2,1.6233660341475211162576804963220
224,20071.6242670500400026499018256412650,20070.0,1.6242670500400026499018256412650
225,20251.2251640516777513360725192969746,20249.6,1.6251640516777513360725192969746
226,20431.6260570746860472295708773669278,20430.0,1.6260570746860472295708773669278
227,20612.8269461542180469294444551971573,20611.2,1.6269461542180469294444551971573
228,20794.8278313249630899298327560284840,20793.2,1.6278313249630899298327560284840
229,20977.6287126211548237944884408088376,20976.0,1.6287126211548237944884408088376
230,21161.2295900765791528412044965016804,21159.6,1.6295900765791528412044965016804
231,21345.6304637245820121254035473997072,21344.0,1.6304637245820121254035473997072
232,21530.8313335980769771317956753141268,21529.2,1.6313335980769771317956753141268
233,21716.8321997295527041595947806703705,21715.2,1.6321997295527041595947806703705
234,21903.6330621510802175473447258665850,21902.0,1.6330621510802175473447258665850
235,22091.2339208943200369084405604354729,22089.6,1.6339208943200369084405604354729
236,22279.6347759905291540760981766023507,22278.0,1.6347759905291540760981766023507
237,22468.8356274705678633778844066536570,22467.2,1.6356274705678633778844066536570
238,22658.8364753649064469708028770421757,22657.2,1.6364753649064469708028770421757
