Eigenstate,Energy,Kinetic Energy,Potential Energy
1,0.500000000020559983612714296568251057,0.0,0.500000000020559983612714296568251057
2,1.84623093778531941079592070379359361,1.2,0.64623093778531941079592070379359361
3,3.93633761009919091410102297229812430,3.2,0.73633761009919091410102297229812430
4,6.79966527863534303610422013805516180,6.0,0.79966527863534303610422013805516180
5,10.4480465767080038565272502998349183,9.6,0.8480465767080038565272502998349183
6,14.8870659990711630403280640042584206,14.0,0.8870659990711630403280640042584206
7,20.1197208271626736559464989550056111,19.2,0.9197208271626736559464989550056111
8,26.1477838473593182419335262332462696,25.2,0.9477838473593182419335262332462696
9,32.9723835586672843866696961866770221,32.0,0.9723835586672843866696961866770221
10,40.5942802152350880728892934236684541,39.6,0.9942802152350880728892934236684541
11,49.0140093872037312774432361491031062,48.0,1.0140093872037312774432361491031062
12,58.2319621698778175431611798121738624,57.2,1.0319621698778175431611798121738624
13,68.2484326933231350341639612307006097,67.2,1.0484326933231350341639612307006097
14,79.0636476552228130323247652009766014,78.0,1.0636476552228130323247652009766014
15,90.6777854366915037862494764171415353,89.6,1.0777854366915037862494764171415353
16,103.090988907145825736283218654547414,102.0,1.090988907145825736283218654547414
17,116.303374257765866752217649849889082,115.2,1.103374257765866752217649849889082
18,130.315037252501382947470134960144324,129.2,1.115037252501382947470134960144324
19,145.126057751175775917148444246247832,144.0,1.126057751175775917148444246247832
20,160.736503047120028958320677593030353,159.6,1.136503047120028958320677593030353
21,177.146430373254404117467005408443077,176.0,1.146430373254404117467005408443077
22,194.355888813247182246482950252132045,193.2,1.155888813247182246482950252132045
23,212.364920779451187612690679120361437,211.2,1.164920779451187612690679120361437
24,231.173563170304210032302847847386025,230.0,1.173563170304210032302847847386025
25,250.781848287124931248490445713763713,249.6,1.181848287124931248490445713763713
26,271.189804567920512676155015328790951,270.0,1.189804567920512676155015328790951
27,292.397457180349171236500031231808002,291.2,1.197457180349171236500031231808002
28,314.404828505079219196835674451892300,313.2,1.204828505079219196835674451892300
29,337.211938532991016110545498218037635,336.0,1.211938532991016110545498218037635
30,360.818805194018793383539659267572441,359.6,1.218805194018793383539659267572441
31,385.225444631283373493931832010604913,384.0,1.225444631283373493931832010604913
32,410.431871431088906307308155105441324,409.2,1.231871431088906307308155105441324
33,436.438098817047097126093055335515694,435.2,1.238098817047097126093055335515694
34,463.244138814841854845567509603155708,462.0,1.244138814841854845567509603155708
35,490.850002392808093523562187303754430,489.6,1.250002392808093523562187303754430
36,519.255699582464941792435398671789933,518.0,1.255699582464941792435398671789933
37,548.461239582339529993542362778289389,547.2,1.261239582339529993542362778289389
38,578.466630847787106171354284307691514,577.2,1.266630847787106171354284307691514
39,609.271881169015383414943911344745411,608.0,1.271881169015383414943911344745411
40,640.876997739125200251071204435708844,639.6,1.276997739125200251071204435708844
41,673.281987213662825519432625503467600,672.0,1.281987213662825519432625503467600
42,706.486855762924246559173950285094266,705.2,1.286855762924246559173950285094266
43,740.491609118045293190884727724434544,739.2,1.291609118045293190884727724434544
44,775.296252611743355962817142249207829,774.0,1.296252611743355962817142249207829
45,810.900791214438887561099125935419654,809.6,1.300791214438887561099125935419654
46,847.305229566371740001138397948131724,846.0,1.305229566371740001138397948131724
47,884.509572006233913605099801474421704,883.2,1.309572006233913605099801474421704
48,922.513822596762707406104675822977806,921.2,1.313822596762707406104675822977806
49,961.317985147673598075916722741638814,960.0,1.317985147673598075916722741638814
50,1000.92206323625805175923588939105981,999.6,1.32206323625805175923588939105981
51,1041.32606022592600623525797797010330,1040.0,1.32606022592600623525797797010330
52,1082.52997928293441561286563982452971,1081.2,1.32997928293441561286563982452971
53,1124.53382339151079964727658139898838,1123.2,1.33382339151079964727658139898838
54,1167.33759536755317863452393035986600,1166.0,1.33759536755317863452393035986600
55,1210.94129787106429934763632157666042,1209.6,1.34129787106429934763632157666042
56,1255.34493341745798290826389659954803,1254.0,1.34493341745798290826389659954803
57,1300.54850438785822652238065460188045,1299.2,1.34850438785822652238065460188045
58,1346.55201303849689382240542982150508,1345.2,1.35201303849689382240542982150508
59,1393.35546150930307461081101404720367,1392.0,1.35546150930307461081101404720367
60,1440.95885183176617029259074335817071,1439.6,1.35885183176617029259074335817071
61,1489.36218593614519705644906518833560,1488.0,1.36218593614519705644906518833560
62,1538.56546565808849785947066991587459,1537.2,1.36546565808849785947066991587459
63,1588.56869274472081238100353268959702,1587.2,1.36869274472081238100353268959702
64,1639.37186886024834163157027909670100,1638.0,1.37186886024834163157027909670100
65,1690.97499559112690906265044901098703,1689.6,1.37499559112690906265044901098703
66,1743.37807445083347268412301856110014,1742.0,1.37807445083347268412301856110014
67,1796.58110688427698040483347346450054,1795.2,1.38110688427698040483347346450054
68,1850.58409427188080465094181979890403,1849.2,1.38409427188080465094181979890403
69,1905.38703793336567964598167041296149,1904.0,1.38703793336567964598167041296149
70,1960.98993913125913646829705339411823,1959.6,1.38993913125913646829705339411823
71,2017.39279907415483229779279584449561,2016.0,1.39279907415483229779279584449561
72,2074.59561891974287202155494990294564,2073.2,1.39561891974287202155494990294564
73,2132.59839977763016736149447780143217,2131.2,1.39839977763016736149447780143217
74,2191.40114271196805983861494858614787,2190.0,1.40114271196805983861494858614787
75,2251.00384874390280278740218953488041,2249.6,1.40384874390280278740218953488041
76,2311.40651885386304807707879707974070,2310.0,1.40651885386304807707879707974070
77,2372.60915398369718079804845144033202,2371.2,1.40915398369718079804845144033202
78,2434.61175503867217937367492212795365,2433.2,1.41175503867217937367492212795365
79,2497.41432288934463173754853007138922,2496.0,1.41432288934463173754853007138922
80,2561.01685837331360009074847878571598,2559.6,1.41685837331360009074847878571598
81,2625.41936229686417741213293108727743,2624.0,1.41936229686417741213293108727743
82,2690.62183543650981744413527044929245,2689.2,1.42183543650981744413527044929245
83,2756.62427854044083114275536487481045,2755.2,1.42427854044083114275536487481045
84,2823.42669232988581828871858665595099,2822.0,1.42669232988581828871858665595099
85,2891.02907750039224368060166774660036,2889.6,1.42907750039224368060166774660036
86,2959.43143472303185146533520211563987,2958.0,1.43143472303185146533520211563987
87,3028.63376464553615369069275236855326,3027.2,1.43376464553615369069275236855326
88,3098.63606789336680578664084027219099,3097.2,1.43606789336680578664084027219099
89,3169.43834507072529818026262569446166,3168.0,1.43834507072529818026262569446166
90,3241.04059676150605003223879352381182,3239.6,1.44059676150605003223879352381182
91,3313.44282353019666963081852008479371,3312.0,1.44282353019666963081852008479371
92,3386.64502592272885768167423348220101,3385.2,1.44502592272885768167423348220101
93,3460.64720446728316747697828854607007,3459.2,1.44720446728316747697828854607007
94,3535.44935967505059299830156651170914,3534.0,1.44935967505059299830156651170914
95,3611.05149204095373485390499778137435,3609.6,1.45149204095373485390499778137435
96,3687.45360204433009212887859427240113,3686.0,1.45360204433009212887859427240113
97,3764.65569014957984388447297190887847,3763.2,1.45569014957984388447297190887847
98,3842.65775680678031116867363011524733,3841.2,1.45775680678031116867363011524733
99,3921.45980245226913692787913817151022,3920.0,1.45980245226913692787913817151022
100,4001.06182750919807486912832071926175,3999.6,1.46182750919807486912832071926175
101,4081.46383238805914901816702461808823,4080.0,1.46383238805914901816702461808823
102,4162.66581748718482014392401391472019,4161.2,1.46581748718482014392401391472019
103,4244.66778319322368730635260985529878,4243.2,1.46778319322368730635260985529878
104,4327.46972988159314551988434072137998,4326.0,1.46972988159314551988434072137998
105,4411.07165791691032745098390325723441,4409.6,1.47165791691032745098390325723441
106,4495.47356765340256630405107692640401,4494.0,1.47356765340256630405107692640401
107,4580.67545943529853896795979562145368,4579.2,1.47545943529853896795979562145368
108,4666.67733359720116925597018615181078,4665.2,1.47733359720116925597018615181078
109,4753.47919046444330247821524671400898,4752.0,1.47919046444330247821524671400898
110,4841.08103035342710016583876094657442,4839.6,1.48103035342710016583876094657442
111,4929.48285357194803790466252026658035,4928.0,1.48285357194803790466252026658035
112,5018.68466041950433980262745881790455,5017.2,1.48466041950433980262745881790455
113,5108.68645118759262757945923752032738,5107.2,1.48645118759262757945923752032738
114,5199.48822615999051350925245189284666,5198.0,1.48822615999051350925245189284666
115,5291.08998561302682599816508864743282,5289.6,1.48998561302682599816508864743282
116,5383.49172981584010824776662084422658,5382.0,1.49172981584010824776662084422658
117,5476.69345903062599874157637332540481,5475.2,1.49345903062599874157637332540481
118,5570.69517351287406126122322022815804,5569.2,1.49517351287406126122322022815804
119,5665.49687351159459842494137543907021,5664.0,1.49687351159459842494137543907021
120,5761.09855926953595689888205805975819,5759.6,1.49855926953595689888205805975819
121,5857.50023102339279416447658986014166,5856.0,1.50023102339279416447658986014166
122,5954.70188900400575781195369238608723,5953.2,1.50188900400575781195369238608723
123,6052.70353343655299613718174707946703,6051.2,1.50353343655299613718174707946703
124,6151.50516454073390113919812642044643,6150.0,1.50516454073390113919812642044643
125,6251.10678253094545544952462330209684,6249.6,1.50678253094545544952462330209684
126,6351.50838761645153952707038490390961,6350.0,1.50838761645153952707038490390961
127,6452.70998000154553487453742647775908,6451.2,1.50998000154553487453742647775908
128,6554.71155988570653644505387101679301,6553.2,1.51155988570653644505387101679301
129,6657.51312746374947533452196800220420,6656.0,1.51312746374947533452196800220420
130,6761.11468292596943447330067473831032,6759.6,1.51468292596943447330067473831032
131,6865.51622645828042462672452245737447,6864.0,1.51622645828042462672452245737447
132,6970.71775824234887303675966314731643,6969.2,1.51775824234887303675966314731643
133,7076.71927845572206525551406371653992,7075.2,1.51927845572206525551406371653992
134,7183.52078727195176944535995170211644,7182.0,1.52078727195176944535995170211644
135,7291.12228486071325431208411514744768,7289.6,1.52228486071325431208411514744768
136,7399.52377138791990814995132014148105,7398.0,1.52377138791990814995132014148105
137,7508.72524701583365316962249865866853,7507.2,1.52524701583365316962249865866853
138,7618.72671190317133566787878691550968,7617.2,1.52671190317133566787878691550968
139,7729.52816620520727049219684013564638,7728.0,1.52816620520727049219684013564638
140,7841.12961007387210280725264303504532,7839.6,1.52961007387210280725264303504532
141,7953.53104365784814561294100434636557,7952.0,1.53104365784814561294100434636557
142,8066.73246710266134339023089832887306,8065.2,1.53246710266134339023089832887306
143,8180.73388055077000360100752911540896,8179.2,1.53388055077000360100752911540896
144,8295.53528414165043058841494801967614,8294.0,1.53528414165043058841494801967614
145,8411.13667801187959223645404523111560,8409.6,1.53667801187959223645404523111560
146,8527.53806229521494187883972763687515,8526.0,1.53806229521494187883972763687515
147,8644.73943712267150974415520275906693,8643.2,1.53943712267150974415520275906693
148,8762.74080262259637926630778243809389,8761.2,1.54080262259637926630778243809389
149,8881.54215892074065006121651594093425,8880.0,1.54215892074065006121651594093425
150,9001.14350614032899121058467452357885,8999.6,1.54350614032899121058467452357885
151,9121.54484440212688076698632638594949,9120.0,1.54484440212688076698632638594949
152,9242.74617382450562177941164747457913,9241.2,1.54617382450562177941164747457913
153,9364.74749452350522378893892026557749,9363.2,1.54749452350522378893892026557749
154,9487.54880661289523369374913494364457,9486.0,1.54880661289523369374913494364457
155,9611.15011020423359421944941168388792,9609.6,1.55011020423359421944941168388792
156,9735.55140540692360786104135053098624,9734.0,1.55140540692360786104135053098624
157,9860.75269232826907734311035980028414,9859.2,1.55269232826907734311035980028414
158,9986.75397107352769441630958923937766,9985.2,1.55397107352769441630958923937766
159,10113.5552417459627406629440676030948,10112.0,1.5552417459627406629440676030948
160,10241.1565044468931666491648999539877,10239.6,1.5565044468931666491648999539877
161,10369.5577592757421079198647181418654,10368.0,1.5577592757421079198647181418654
162,10498.7590063300838972973458818627245,10497.2,1.5590063300838972973458818627245
163,10628.7602457056896283370309047817588,10627.2,1.5602457056896283370309047817588
164,10759.5614774965713245767802931484097,10758.0,1.5614774965713245767802931484097
165,10891.1627017950247631800055542597852,10889.6,1.5627017950247631800055542597852
166,11023.5639186916710034881362420719616,11022.0,1.5639186916710034881362420719616
167,11156.7651282754966677147306751864701,11155.2,1.5651282754966677147306751864701
168,11290.7663306338930164701139308920126,11289.2,1.5663306338930164701139308920126
169,11425.5675258526938641786038410537739,11424.0,1.5675258526938641786038410537739
170,11561.1687140162123741314108134109712,11559.6,1.5687140162123741314108134109712
171,11697.5698952072767733696423622451194,11696.0,1.5698952072767733696423622451194
172,11834.7710695072650252640403625395120,11833.2,1.5710695072650252640403625395120
173,11972.7722369961384951937518448823917,11971.2,1.5722369961384951937518448823917
174,12111.5733977524746451676174083700395,12110.0,1.5733977524746451676174083700395
175,12251.1745518534987913728802781593165,12249.6,1.5745518534987913728802781593165
176,12391.5756993751149543576388533600293,12390.0,1.5756993751149543576388533600293
177,12532.7768403919358351075502334883705,12531.2,1.5768403919358351075502334883705
178,12674.7779749773119461711508775218351,12673.2,1.5779749773119461711508775218351
179,12817.5791032033599242787101785189485,12816.0,1.5791032033599242787101785189485
180,12961.1802251409900554009858032940221,12959.6,1.5802251409900554009858032940221
181,13105.5813408599330348964368143814529,13104.0,1.5813408599330348964368143814529
182,13250.7824504287659904422498417868675,13249.2,1.5824504287659904422498417868675
183,13396.7835539149377907984220766639390,13395.2,1.5835539149377907984220766639390
184,13543.5846513847936646464068344675332,13542.0,1.5846513847936646464068344675332
185,13691.1857429035991513104147441524550,13689.6,1.5857429035991513104147441524550
186,13839.5868285355634043299594876480555,13838.0,1.5868285355634043299594876480555
187,13988.7879083438618716841149688644859,13987.2,1.5879083438618716841149688644859
188,14138.7889823906583681037677557376475,14137.2,1.5889823906583681037677557376475
189,14289.5900507371265632029216615465171,14288.0,1.5900507371265632029216615465171
190,14441.1911134434709010800983553985116,14439.6,1.5911134434709010800983553985116
191,14593.5921705689469706123514952274240,14592.0,1.5921705689469706123514952274240
192,14746.7932221718813428240624754245387,14745.2,1.5932221718813428240624754245387
193,14900.7942683096908936343302156795745,14899.2,1.5942683096908936343302156795745
194,15055.5953090389016253237013930732770,15054.0,1.5953090389016253237013930732770
195,15211.1963444151670046525631646542826,15209.6,1.5963444151670046525631646542826
196,15367.5973744932858313230610247319915,15366.0,1.5973744932858313230610247319915
197,15524.7983993272196511598249374542340,15523.2,1.5983993272196511598249374542340
198,15682.7994189701097281714448603103461,15681.2,1.5994189701097281714448603103461
199,15841.6004334742935883265110801289654,15840.0,1.6004334742935883265110801289654
200,16001.2014428913211489843802652173507,15999.6,1.6014428913211489843802652173507
201,16161.6024472719704449570459892729370,16160.0,1.6024472719704449570459892729370
202,16322.8034466662629645782249431035571,16321.2,1.6034466662629645782249431035571
203,16484.8044411234786064343407972732010,16483.2,1.6044411234786064343407972732010
204,16647.6054306921702683722671845064959,16646.0,1.6054306921702683722671845064959
205,16811.2064154201780787491416787440223,16809.6,1.6064154201780787491416787440223
206,16975.6073953546432829429476842348765,16974.0,1.6073953546432829429476842348765
207,17140.8083705420217909944895805405454,17139.2,1.6083705420217909944895805405454
208,17306.8093410280974006021657133037135,17305.2,1.6093410280974006021657133037135
209,17473.6103068579947012123666857898215,17472.0,1.6103068579947012123666857898215
210,17641.2112680761916707010979632126275,17639.6,1.6112680761916707010979632126275
211,17809.6122247265319720057830583192565,17808.0,1.6122247265319720057830583192565
212,17978.8131768522369599343692980476278,17977.2,1.6131768522369599343692980476278
213,18148.8141244959174025296240707812695,18147.2,1.6141244959174025296240707812695
214,18319.6150676995849319643049327165402,18318.0,1.6150676995849319643049327165402
215,18491.2160065046632241734281814711636,18489.6,1.6160065046632241734281814711636
216,18663.6169409519989211780863169690872,18662.0,1.6169409519989211780863169690872
217,18836.8178710818723000598496757400706,18835.2,1.6178710818723000598496757400706
218,19010.8187969340076975581950165102894,19009.2,1.6187969340076975581950165102894
219,19185.6197185475836935638898740009259,19184.0,1.6197185475836935638898740009259
220,19361.2206359612430660164530850510313,19359.6,1.6206359612430660164530850510313
221,19537.6215492131025151079739873088584,19536.0,1.6215492131025151079739873088584
222,19714.8224583407621739906481817505043,19713.2,1.6224583407621739906481817505043
223,19892.8233633813148995488534959568525,19891.2,1.6233633813148995488534959568525
224,20071.6242643713553582950565425359075,20070.0,1.6242643713553582950565425359075
225,20251.2251613469889099460846196395300,20249.6,1.6251613469889099460846196395300
226,20431.6260543438402922176958847844676,20430.0,1.6260543438402922176958847844676
227,20612.8269433970621154802861972155894,20611.2,1.6269433970621154802861972155894
228,20794.8278285413431690859239634251196,20793.2,1.6278285413431690859239634251196
229,20977.6287098109165465188481415302869,20976.0,1.6287098109165465188481415302869
230,21161.2295872395675940556577144425218,21159.6,1.6295872395675940556577144425218
231,21345.6304608606416847244468885259328,21344.0,1.6304608606416847244468885259328
232,21530.8313307070518279717904567910803,21529.2,1.6313307070518279717904567910803
233,21716.8321968112861100230674531224753,21715.2,1.6321968112861100230674531224753
234,21903.6330592054149810821723036730335,21902.0,1.6330592054149810821723036730335
235,22091.2339179210983825416968438475549,22089.6,1.6339179210983825416968438475549
236,22279.6347729895927239023345296280024,22278.0,1.6347729895927239023345296280024
237,22468.8356244417577130216166908362249,22467.2,1.6356244417577130216166908362249
238,22658.8364723080630414229743055791629,22657.2,1.6364723080630414229743055791629
