Eigenstate,Energy,Kinetic Energy,Potential Energy
1,0.500000000015348850934190381713408164,0.0,0.500000000015348850934190381713408164
2,1.84623093775130389064577982768399274,1.2,0.64623093775130389064577982768399274
3,3.93633760999927324285815658052636170,3.2,0.73633760999927324285815658052636170
4,6.79966527842722643377385926896007495,6.0,0.79966527842722643377385926896007495
5,10.4480465763475044118202438433699811,9.6,0.8480465763475044118202438433699811
6,14.8870659985133242682272317095322989,14.0,0.8870659985133242682272317095322989
7,20.1197208263621773506055544783613525,19.2,0.9197208263621773506055544783613525
8,26.1477838462706559953474645489758842,25.2,0.9477838462706559953474645489758842
9,32.9723835572448375067198548973589808,32.0,0.9723835572448375067198548973589808
10,40.5942802134331682942561655969795543,39.6,0.9942802134331682942561655969795543
11,49.0140093849766030156897178306656608,48.0,1.0140093849766030156897178306656608
12,58.2319621671797107435890417434955076,57.2,1.0319621671797107435890417434955076
13,68.2484326901082529005210268219315124,67.2,1.0484326901082529005210268219315124
14,79.0636476514453368089483258943377074,78.0,1.0636476514453368089483258943377074
15,90.6777854323055957626925559733946050,89.6,1.0777854323055957626925559733946050
16,103.090988902105631135479477225740079,102.0,1.090988902105631135479477225740079
17,116.303374252025514892487919032171381,115.2,1.103374252025514892487919032171381
18,130.315037246014987917632796555631823,129.2,1.115037246014987917632796555631823
19,145.126057743897436916310759398722850,144.0,1.126057743897436916310759398722850
20,160.736503039003830399205641314411376,159.6,1.136503039003830399205641314411376
21,177.146430364254415559428580827529085,176.0,1.146430364254415559428580827529085
22,194.355888803317458203508784130042596,193.2,1.155888803317458203508784130042596
23,212.364920768545767268058396353744612,211.2,1.164920768545767268058396353744612
24,231.173563158377116882441715837713577,230.0,1.173563158377116882441715837713577
25,250.781848274130172692382053547898322,249.6,1.181848274130172692382053547898322
26,271.189804553812079562285449459702374,270.0,1.189804553812079562285449459702374
27,292.397457165081037376322182572575276,291.2,1.197457165081037376322182572575276
28,314.404828488605340851508597298875282,313.2,1.204828488605340851508597298875282
29,337.211938515265331456122331021513546,336.0,1.211938515265331456122331021513546
30,360.818805174995221958599020305381469,359.6,1.218805174995221958599020305381469
31,385.225444610915815632769324550444285,384.0,1.225444610915815632769324550444285
32,410.431871409331242561141657604872139,409.2,1.231871409331242561141657604872139
33,436.438098793853187674229796706168354,435.2,1.238098793853187674229796706168354
34,463.244138790165538898091477055354589,462.0,1.244138790165538898091477055354589
35,490.850002366603188716797740243842766,489.6,1.250002366603188716797740243842766
36,519.255699554685243578205734483424697,518.0,1.255699554685243578205734483424697
37,548.461239552938811023054058227989558,547.2,1.261239552938811023054058227989558
38,578.466630816719115674389960138552700,577.2,1.266630816719115674389960138552700
39,609.271881136233846574925502311445070,608.0,1.271881136233846574925502311445070
40,640.876997704583817576459824224378943,639.6,1.276997704583817576459824224378943
41,673.281987177315272211852694814664517,672.0,1.281987177315272211852694814664517
42,706.486855724724171878585266729849328,705.2,1.286855724724171878585266729849328
43,740.491609077946319818073605272018177,739.2,1.291609077946319818073605272018177
44,775.296252569699079359434364373990887,774.0,1.296252569699079359434364373990887
45,810.900791170402875327436440585738685,809.6,1.300791170402875327436440585738685
46,847.305229520297531231805254010210410,846.0,1.305229520297531231805254010210410
47,884.509571958075018242736876072515766,883.2,1.309571958075018242736876072515766
48,922.513822546472605593249565932419095,921.2,1.313822546472605593249565932419095
49,961.317985095205739505119300749565951,960.0,1.317985095205739505119300749565951
50,1000.92206318156585502150564935520095,999.6,1.32206318156585502150564935520095
51,1041.32606016896285816691277682636603,1040.0,1.32606016896285816691277682636603
52,1082.52997922365367064084019658372054,1081.2,1.32997922365367064084019658372054
53,1124.53382332986577913293963313203482,1123.2,1.33382332986577913293963313203482
54,1167.33759530349717021604478276052477,1166.0,1.33759530349717021604478276052477
55,1210.94129780455055628093449812092416,1209.6,1.34129780455055628093449812092416
56,1255.34493334843972340656949255156202,1254.0,1.34493334843972340656949255156202
57,1300.54850431628863309442770789905760,1299.2,1.34850431628863309442770789905760
58,1346.55201296432911260927598601258227,1345.2,1.35201296432911260927598601258227
59,1393.35546143249021472144354899060326,1392.0,1.35546143249021472144354899060326
60,1440.95885175226130313796305425798437,1439.6,1.35885175226130313796305425798437
61,1489.36218585390135568244263714736066,1488.0,1.36218585390135568244263714736066
62,1538.56546557305867627842077743524386,1537.2,1.36546557305867627842077743524386
63,1588.56869265685796490193691691996124,1587.2,1.36869265685796490193691691996124
64,1639.37186876950538218913010418517134,1638.0,1.37186876950538218913010418517134
65,1690.97499549745671054470631283361806,1689.6,1.37499549745671054470631283361806
66,1743.37807435418886625806211686053874,1742.0,1.37807435418886625806211686053874
67,1796.58110678461075484252748808632970,1795.2,1.38110678461075484252748808632970
68,1850.58409416914570565238275291553999,1849.2,1.38409416914570565238275291553999
69,1905.38703782751440916157861229433910,1904.0,1.38703782751440916157861229433910
70,1960.98993902224435201982480397345703,1959.6,1.38993902224435201982480397345703
71,2017.39279896192914629798224050133556,2016.0,1.39279896192914629798224050133556
72,2074.59561880425885109231422700344388,2073.2,1.39561880425885109231422700344388
73,2132.59839965884033165074914290193748,2131.2,1.39839965884033165074914290193748
74,2191.40114258982488233575462057750684,2190.0,1.40114258982488233575462057750684
75,2251.00384861835870863732048452227395,2249.6,1.40384861835870863732048452227395
76,2311.40651872487041389279274811616571,2310.0,1.40651872487041389279274811616571
77,2372.60915385120833397188305181766953,2371.2,1.40915385120833397188305181766953
78,2434.61175490263939738699792369608197,2433.2,1.41175490263939738699792369608197
79,2497.41432274972014146904013530464192,2496.0,1.41432274972014146904013530464192
80,2561.01685823004957712319015073393443,2559.6,1.41685823004957712319015073393443
81,2625.41936214991274533769912429558141,2624.0,1.41936214991274533769912429558141
82,2690.62183528582304716817152291650693,2689.2,1.42183528582304716817152291650693
83,2756.62427838597074018602583901097477,2755.2,1.42427838597074018602583901097477
84,2823.42669217158437008810581584730524,2822.0,1.42669217158437008810581584730524
85,2891.02907733821134688824096322227763,2889.6,1.42907733821134688824096322227763
86,2959.43143455692335924616590220680638,2958.0,1.43143455692335924616590220680638
87,3028.63376447545186301840820780260607,3027.2,1.43376447545186301840820780260607
88,3098.63606771925845673801878235776892,3097.2,1.43606771925845673801878235776892
89,3169.43834489254457322785732546102956,3168.0,1.43834489254457322785732546102956
90,3241.04059657920457333541620293045984,3239.6,1.44059657920457333541620293045984
91,3313.44282334372600632511534401998917,3312.0,1.44282334372600632511534401998917
92,3386.64502573204051316646169945592091,3385.2,1.44502573204051316646169945592091
93,3460.64720427232858670141117117798407,3459.2,1.44720427232858670141117117798407
94,3535.44935947578115974553283199383186,3534.0,1.44935947578115974553283199383186
95,3611.05149183732077102354625337228686,3609.6,1.45149183732077102354625337228686
96,3687.45360183628485701768636376513344,3686.0,1.45360183628485701768636376513344
97,3764.65568993707353346524061852852550,3763.2,1.45568993707353346524061852852550
98,3842.65775658976405736730861969746042,3841.2,1.45775658976405736730861969746042
99,3921.45980223069400689864514322963962,3920.0,1.45980223069400689864514322963962
100,4001.06182728301507026803152670870150,3999.6,1.46182728301507026803152670870150
101,4081.46383215721920527446584500233099,4080.0,1.46383215721920527446584500233099
102,4162.66581725163880572974126345218797,4161.2,1.46581725163880572974126345218797
103,4244.66778295292240300436906422935014,4243.2,1.46778295292240300436906422935014
104,4327.46972963648732368909241934502375,4326.0,1.46972963648732368909241934502375
105,4411.07165766695063129048012411160356,4409.6,1.47165766695063129048012411160356
106,4495.47356739853958911484576029501382,4494.0,1.47356739853958911484576029501382
107,4580.67545917548280341278235988099480,4579.2,1.47545917548280341278235988099480
108,4666.67733333238312661704825970408582,4665.2,1.47733333238312661704825970408582
109,4753.47919019457333191300566409565239,4752.0,1.47919019457333191300566409565239
110,4841.08103007845550796068839138940149,4839.6,1.48103007845550796068839138940149
111,4929.48285329182505672637674068942590,4928.0,1.48285329182505672637674068942590
112,5018.68466013418012794792395448197518,5017.2,1.48466013418012794792395448197518
113,5108.68645089701726822228467686078477,5107.2,1.48645089701726822228467686078477
114,5199.48822586411401394593945520918043,5198.0,1.48822586411401394593945520918043
115,5291.08998531179911689040677919659731,5289.6,1.48998531179911689040677919659731
116,5383.49172950921104286338592358012138,5382.0,1.49172950921104286338592358012138
117,5476.69345871854535219306708590172075,5475.2,1.49345871854535219306708590172075
118,5570.69517319529152974203975627492529,5569.2,1.49517319529152974203975627492529
119,5665.49687318845979844351395662191514,5664.0,1.49687318845979844351395662191514
120,5761.09855894079842451033398742843234,5759.6,1.49855894079842451033398742843234
121,5857.50023068900198420002012617978741,5856.0,1.50023068900198420002012617978741
122,5954.70188866391104310594089327685424,5953.2,1.50188866391104310594089327685424
123,6052.70353309070366675178654271367958,6051.2,1.50353309070366675178654271367958
124,6151.50516418907916358670574023244445,6150.0,1.50516418907916358670574023244445
125,6251.10678217343443191220431580249355,6249.6,1.50678217343443191220431580249355
126,6351.50838725303326707460738685469909,6350.0,1.50838725303326707460738685469909
127,6452.70997963216896467899977330486786,6451.2,1.50997963216896467899977330486786
128,6554.71155951032053299336972773913293,6553.2,1.51155951032053299336972773913293
129,6657.51312708230281563844289930858685,6656.0,1.51312708230281563844289930858685
130,6761.11468253841080727682617866209602,6759.6,1.51468253841080727682617866209602
131,6865.51622606455842961096300617194157,6864.0,1.51622606455842961096300617194157
132,6970.71775784241202002220088973377070,6969.2,1.51775784241202002220088973377070
133,7076.71927804951877340168801187999551,7075.2,1.51927804951877340168801187999551
134,7183.52078685943036644785682062430955,7182.0,1.52078685943036644785682062430955
135,7291.12228444182197559691010742412696,7289.6,1.52228444182197559691010742412696
136,7399.52377096260689606519471157394761,7398.0,1.52377096260689606519471157394761
137,7508.72524658404695617440431405752053,7507.2,1.52524658404695617440431405752053
138,7618.72671146485890751856228617544710,7617.2,1.52671146485890751856228617544710
139,7729.52816576031696942582988231842453,7728.0,1.52816576031696942582988231842453
140,7841.12960962235169072221682067443075,7839.6,1.52960962235169072221682067443075
141,7953.53104319964528724678133009173365,7952.0,1.53104319964528724678133009173365
142,8066.73246663772360549463965048000039,8065.2,1.53246663772360549463965048000039
143,8180.73388007904485411393572788997133,8179.2,1.53388007904485411393572788997133
144,8295.53528366308523780328476361056897,8294.0,1.53528366308523780328476361056897
145,8411.13667752642162396844532119954978,8409.6,1.53667752642162396844532119954978
146,8527.53806180281136462822363745144848,8526.0,1.53806180281136462822363745144848
147,8644.73943662326938785664784142724208,8643.2,1.53943662326938785664784142724208
148,8762.74080211614267409041647231220862,8761.2,1.54080211614267409041647231220862
149,8881.54215840718221910255131293808168,8880.0,1.54215840718221910255131293808168
150,9001.14350561961258728310749075769863,8999.6,1.54350561961258728310749075769863
151,9121.54484387419915114116988405550720,9120.0,1.54484387419915114116988405550720
152,9242.74617328931310732728032514553011,9241.2,1.54617328931310732728032514553011
153,9364.74749398099435812596337220978457,9363.2,1.54749398099435812596337220978457
154,9487.54880606301234231756647516231431,9486.0,1.54880606301234231756647516231431
155,9611.15010964692489364538048588503066,9609.6,1.55010964692489364538048588503066
156,9735.55140484213520475437649954653743,9734.0,1.55140484213520475437649954653743
157,9860.75269175594696764813493110791478,9859.2,1.55269175594696764813493110791478
158,9986.75397049361776248204023991416469,9985.2,1.55397049361776248204023991416469
159,10113.5552411584107583655467536749986,10112.0,1.5552411584107583655467536749986
160,10241.1565038516447925110252911544583,10239.6,1.5565038516447925110252911544583
161,10369.5577586727428862252815365079283,10368.0,1.5577586727428862252815365079283
162,10498.7590057192792572048175419900932,10497.2,1.5590057192792572048175419900932
163,10628.7602450870248829881056800957053,10627.2,1.5602450870248829881056800957053
164,10759.5614768699916702014399589203906,10758.0,1.5614768699916702014399589203906
165,10891.1627011604752781985523401820972,10889.6,1.5627011604752781985523401820972
166,11023.5639180490966476095527606436711,11022.0,1.5639180490966476095527606436711
167,11156.7651276248422810314822538722044,11155.2,1.5651276248422810314822538722044
168,11290.7663299751033185493626103133523,11289.2,1.5663299751033185493626103133523
169,11425.5675251857134531498031298460786,11424.0,1.5675251857134531498031298460786
170,11561.1687133409857257702500620929744,11559.6,1.5687133409857257702500620929744
171,11697.5698945237482401783094702907838,11696.0,1.5698945237482401783094702907838
172,11834.7710688153788355477712929126247,11833.2,1.5710688153788355477712929126247
173,11972.7722362958387521336352648018675,11971.2,1.5722362958387521336352648018675
174,12111.5733970437053258896225433341649,12110.0,1.5733970437053258896225433341649
175,12251.1745511362037460130758864335355,12249.6,1.5745511362037460130758864335355
176,12391.5756986492379051235710133134536,12390.0,1.5756986492379051235710133134536
177,12532.7768396574203753357464412790981,12531.2,1.5768396574203753357464412790981
178,12674.7779742341015393807177418525173,12673.2,1.5779742341015393807177418525173
179,12817.5791024513979032209917942782677,12816.0,1.5791024513979032209917942782677
180,12961.1802243802196211052496591226572,12959.6,1.5802243802196211052496591226572
181,13105.5813400902972557115539099972548,13104.0,1.5813400902972557115539099972548
182,13250.7824496502078010743354552582058,13249.2,1.5824496502078010743354552582058
183,13396.7835531273999913444033859409617,13395.2,1.5835531273999913444033859409617
184,13543.5846505882189196234834376027479,13542.0,1.5846505882189196234834376027479
185,13691.1857420979299886813778121350736,13689.6,1.5857420979299886813778121350736
186,13839.5868277207422145243351747697554,13838.0,1.5868277207422145243351747697554
187,13988.7879075198309066150973772719388,13987.2,1.5879075198309066150973772719388
188,14138.7889815573597401809065919721546,14137.2,1.5889815573597401809065919721546
189,14289.5900498945022443405294565261408,14288.0,1.5900498945022443405294565261408
190,14441.1911125914627217013418946186432,14439.6,1.5911125914627217013418946186432
191,14593.5921697074966186489919013687328,14592.0,1.5921697074966186489919013687328
192,14746.7932213009303627118081123144537,14745.2,1.5932213009303627118081123144537
193,14900.7942674291806853037663439256275,14899.2,1.5942674291806853037663439256275
194,15055.5953081487734431867603124235873,15054.0,1.5953081487734431867603124235873
195,15211.1963435153619565844983073540413,15209.6,1.5963435153619565844983073540413
196,15367.5973735837448776398881863541492,15366.0,1.5973735837448776398881863541492
197,15524.7983984078836035911936325103617,15523.2,1.5983984078836035911936325103617
198,15682.7994180409192488289025465223443,15681.2,1.5994180409192488289025465223443
199,15841.6004325351891886671226863565434,15840.0,1.6004325351891886671226863565434
200,16001.2014419422431887696652597327276,15999.6,1.6014419422431887696652597327276
201,16161.6024463128591312071949422372706,16160.0,1.6024463128591312071949422372706
202,16322.8034456970583505215572860235577,16321.2,1.6034456970583505215572860235577
203,16484.8044401441205904519652192541634,16483.2,1.6044401441205904519652192541634
204,16647.6054297025985929379058161622362,16646.0,1.6054297025985929379058161622362
205,16811.2064144203323293640790181065276,16809.6,1.6064144203323293640790181065276
206,16975.6073943444628870660648678256859,16974.0,1.6073943444628870660648678256859
207,17140.8083695214460169673443661434978,17139.2,1.6083695214460169673443661434978
208,17306.8093399970653565690782844458390,17305.2,1.6093399970653565690782844458390
209,17473.6103058164453340354710946787857,17472.0,1.6103058164453340354710946787857
210,17641.2112670240637648703187113477859,17639.6,1.6112670240637648703187113477859
211,17809.6122236637641485436961115169768,17808.0,1.6122236637641485436961115169768
212,17978.8131757787676752959065064961881,17977.2,1.6131757787676752959065064961881
213,18148.8141234116849474965796270451145,18147.2,1.6141234116849474965796270451145
214,18319.6150666045274305346023139548469,18318.0,1.6150666045274305346023139548469
215,18491.2160053987186324451056444279649,18489.6,1.6160053987186324451056444279649
216,18663.6169398351050262279587413591055,18662.0,1.6169398351050262279587413591055
217,18836.8178699539667188168042784533225,18835.2,1.6178699539667188168042784533225
218,19010.8187957950278756710781419637183,19009.2,1.6187957950278756710781419637183
219,19185.6197173974669042639417309098321,19184.0,1.6197173974669042639417309098321
220,19361.2206347999264089742470527279438,19359.6,1.6206347999264089742470527279438
221,19537.6215480405229152848167256842174,19536.0,1.6215480405229152848167256842174
222,19714.8224571568563804843965662488600,19713.2,1.6224571568563804843965662488600
223,19892.8233621860194844341039785463300,19891.2,1.6233621860194844341039785463300
224,20071.6242631646067154576623118992615,20070.0,1.6242631646067154576623118992615
225,20251.2251601287232539119555426949822,20249.6,1.6251601287232539119555426949822
226,20431.6260531139936569758358997811457,20430.0,1.6260531139936569758358997811457
227,20612.8269421555703533000225525898802,20611.2,1.6269421555703533000225525898802
228,20794.8278272881419493282822992827518,20793.2,1.6278272881419493282822992827518
229,20977.6287085459413544420271040976899,20976.0,1.6287085459413544420271040976899
230,21161.2295859627537296145564661879391,21159.6,1.6295859627537296145564661879391
231,21345.6304595719242613641984934441011,21344.0,1.6304595719242613641984934441011
232,21530.8313294063657714152538667775967,21529.2,1.6313294063657714152538667775967
233,21716.8321954985661570522303279021650,21715.2,1.6321954985661570522303279021650
234,21903.6330578805956783134167014214420,21902.0,1.6330578805956783134167014214420
235,22091.2339165841140851948793594061784,22089.6,1.6339165841140851948793594061784
236,22279.6347716403775945636321588954118,22278.0,1.6347716403775945636321588954118
237,22468.8356230802457204000892650016984,22467.2,1.6356230802457204000892650016984
238,22658.8364709341879591007941004228375,22657.2,1.6364709341879591007941004228375
