Eigenstate,Energy,Kinetic Energy,Potential Energy
1,0.500000000018733917964401114518192189,0.0,0.500000000018733917964401114518192189
2,1.84623093777339981635687279000017742,1.2,0.64623093777339981635687279000017742
3,3.93633761006417811503295366131638696,3.2,0.73633761006417811503295366131638696
4,6.79966527856241550994794573838863795,6.0,0.79966527856241550994794573838863795
5,10.4480465765816787586163177853251223,9.6,0.8480465765816787586163177853251223
6,14.8870659988756867488738102840707647,14.0,0.8870659988756867488738102840707647
7,20.1197208268821657275505442055512383,19.2,0.9197208268821657275505442055512383
8,26.1477838469778315004824075170733062,25.2,0.9477838469778315004824075170733062
9,32.9723835581688329138698492840021557,32.0,0.9723835581688329138698492840021557
10,40.5942802146036614599752955198261444,39.6,0.9942802146036614599752955198261444
11,49.0140093864233024093032730906325020,48.0,1.0140093864233024093032730906325020
12,58.2319621689323470867086410209704257,57.2,1.0319621689323470867086410209704257
13,68.2484326921965741325158209144683047,67.2,1.0484326921965741325158209144683047
14,79.0636476538991049664461127839880644,78.0,1.0636476538991049664461127839880644
15,90.6777854351545850137166648607100885,89.6,1.0777854351545850137166648607100885
16,103.090988905379626538809772042179049,102.0,1.090988905379626538809772042179049
17,116.303374255754311628710830231903353,115.2,1.103374255754311628710830231903353
18,130.315037250228390836458881837637604,129.2,1.115037250228390836458881837637604
19,145.126057748625260301697083540588449,144.0,1.126057748625260301697083540588449
20,160.736503044275897888067942572254067,159.6,1.136503044275897888067942572254067
21,177.146430370100560170970679964384409,176.0,1.146430370100560170970679964384409
22,194.355888809767522449742938741835152,193.2,1.155888809767522449742938741835152
23,212.364920775629603324946069781613491,211.2,1.164920775629603324946069781613491
24,231.173563166124586807004728116679455,230.0,1.173563166124586807004728116679455
25,250.781848282571148675173280811417356,249.6,1.181848282571148675173280811417356
26,271.189804562976444207415190606035051,270.0,1.189804562976444207415190606035051
27,292.397457174998684003220035848878250,291.2,1.197457174998684003220035848878250
28,314.404828499306173814024388225430441,313.2,1.204828499306173814024388225430441
29,337.211938526779266475605980931066553,336.0,1.211938526779266475605980931066553
30,360.818805187352186468363540745614224,359.6,1.218805187352186468363540745614224
31,385.225444624145749131911633994245235,384.0,1.225444624145749131911633994245235
32,410.431871423464096976126562795764314,409.2,1.231871423464096976126562795764314
33,436.438098808918927726970955578570113,435.2,1.238098808918927726970955578570113
34,463.244138806194142479516140155342500,462.0,1.244138806194142479516140155342500
35,490.850002383624647265078677564017553,489.6,1.250002383624647265078677564017553
36,519.255699572729562460997850556808558,518.0,1.255699572729562460997850556808558
37,548.461239572036009923194943071440483,547.2,1.261239572036009923194943071440483
38,578.466630836899228978620522576667687,577.2,1.266630836899228978620522576667687
39,609.271881157526923765264498135054572,608.0,1.271881157526923765264498135054572
40,640.876997727019923623928771221429608,639.6,1.276997727019923623928771221429608
41,673.281987200924487972298535627940796,672.0,1.281987200924487972298535627940796
42,706.486855749536594490389710887697599,705.2,1.286855749536594490389710887697599
43,740.491609103992063101572209286918723,739.2,1.291609103992063101572209286918723
44,775.296252597008274217896593772948747,774.0,1.296252597008274217896593772948747
45,810.900791199005670149481344810223878,809.6,1.300791199005670149481344810223878
46,847.305229550224092295146892070905325,846.0,1.305229550224092295146892070905325
47,884.509571989355530119169966307804405,883.2,1.309571989355530119169966307804405
48,922.513822579137271554799582001463145,921.2,1.313822579137271554799582001463145
49,961.317985129284781931292848073415504,960.0,1.317985129284781931292848073415504
50,1000.92206321708951580758680617043047,999.6,1.32206321708951580758680617043047
51,1041.32606020596139913325948054614038,1040.0,1.32606020596139913325948054614038
52,1082.52997926215737394314191698523007,1081.2,1.32997926215737394314191698523007
53,1124.53382336990494767340372846122391,1123.2,1.33382336990494767340372846122391
54,1167.33759534510212805548422533039076,1166.0,1.33759534510212805548422533039076
55,1210.94129784775164905173422803016991,1209.6,1.34129784775164905173422803016991
56,1255.34493339326731872651261153613669,1254.0,1.34493339326731872651261153613669
57,1300.54850436277312098136616442602649,1299.2,1.34850436277312098136616442602649
58,1346.55201301250090589663340658286935,1345.2,1.35201301250090589663340658286935
59,1393.35546148237974947454048069175496,1392.0,1.35546148237974947454048069175496
60,1440.95885180389903907115718043463671,1439.6,1.35885180389903907115718043463671
61,1489.36218590731777657707854768041113,1488.0,1.36218590731777657707854768041113
62,1538.56546562828429040158565284360004,1537.2,1.36546562828429040158565284360004
63,1588.56869271392330542602005289759750,1587.2,1.36869271392330542602005289759750
64,1639.37186882844100761218559127061560,1638.0,1.37186882844100761218559127061560
65,1690.97499555829320511161942921598180,1689.6,1.37499555829320511161942921598180
66,1743.37807441695684038252108638380834,1742.0,1.37807441695684038252108638380834
67,1796.58110684934084552980323395562857,1795.2,1.38110684934084552980323395562857
68,1850.58409423586857692292015638510008,1849.2,1.38409423586857692292015638510008
69,1905.38703789626075247540358608944249,1904.0,1.38703789626075247540358608944249
70,1960.98993909304488670177217077581533,1959.6,1.38993909304488670177217077581533
71,2017.39279903481461996375007320897249,2016.0,1.39279903481461996375007320897249
72,2074.59561887926004007535086061090710,2073.2,1.39561887926004007535086061090710
73,2132.59839973598804142997960521119673,2131.2,1.39839973598804142997960521119673
74,2191.40114266914994796415369122383815,2190.0,1.40114266914994796415369122383815
75,2251.00384869989199517134003287183179,2249.6,1.40384869989199517134003287183179
76,2311.40651880864281682265138493934293,2310.0,1.40651880864281682265138493934293
77,2372.60915393725077965272649394713841,2371.2,1.40915393725077965272649394713841
78,2434.61175499098284347093878880159796,2433.2,1.41175499098284347093878880159796
79,2497.41432284039557733808621321669980,2496.0,1.41432284039557733808621321669980
80,2561.01685832308802432307044795621413,2559.6,1.41685832308802432307044795621413
81,2625.41936224534525801259725263572771,2624.0,1.41936224534525801259725263572771
82,2690.62183538368071249637623456945543,2689.2,1.42183538368071249637623456945543
83,2756.62427848628467881650873815933187,2755.2,1.42427848628467881650873815933187
84,2823.42669227438573657803647918737338,2822.0,1.42669227438573657803647918737338
85,2891.02907744353133014144989485901793,2889.6,1.42907744353133014144989485901793
86,2959.43143466479318295256593056744924,2958.0,1.43143466479318295256593056744924
87,3028.63376458590278609438509816438587,3027.2,1.43376458590278609438509816438587
88,3098.63606783232177376780200673006603,3097.2,1.43606783232177376780200673006603
89,3169.43834500825161490588207466864428,3168.0,1.43834500825161490588207466864428
90,3241.04059669758670690968786464267392,3239.6,1.44059669758670690968786464267392
91,3313.44282346481463604158782321875189,3312.0,1.44282346481463604158782321875189
92,3386.64502585586708071444106236020942,3385.2,1.44502585586708071444106236020942
93,3460.64720439892457165999623678962302,3459.2,1.44720439892457165999623678962302
94,3535.44935960517808003110444549100361,3534.0,1.44935960517808003110444549100361
95,3611.05149196955018333831708831754035,3609.6,1.45149196955018333831708831754035
96,3687.45360197137835729932320483710928,3686.0,1.45360197137835729932320483710928
97,3764.65569007506275733757119660275621,3763.2,1.45569007506275733757119660275621
98,3842.65775673068068059212514644161547,3841.2,1.45775673068068059212514644161547
99,3921.45980237456974582861682285382127,3920.0,1.45980237456974582861682285382127
100,4001.06182742988168230073838768533836,3999.6,1.46182742988168230073838768533836
101,4081.46383230710848930756634756882022,4080.0,1.46383230710848930756634756882022
102,4162.66581740458260261728622019195307,4161.2,1.46581740458260261728622019195307
103,4244.66778310895259601427449516788809,4243.2,1.46778310895259601427449516788809
104,4327.46972979563583896178407557482529,4326.0,1.46972979563583896178407557482529
105,4411.07165782924943829872245946869163,4409.6,1.47165782924943829872245946869163
106,4495.47356756402070112476824581829720,4494.0,1.47356756402070112476824581829720
107,4580.67545934417827794611610426069998,4579.2,1.47545934417827794611610426069998
108,4666.67733350432506591458598477457014,4665.2,1.47733350432506591458598477457014
109,4753.47919036979388339929816470321980,4752.0,1.47919036979388339929816470321980
110,4841.08103025698686470999068395569960,4839.6,1.48103025698686470999068395569960
111,4929.48285347369945792985719062994924,4928.0,1.48285347369945792985719062994924
112,5018.68466031942985938214974775137184,5017.2,1.48466031942985938214974775137184
113,5108.68645108567466271899707148990410,5107.2,1.48645108567466271899707148990410
114,5199.48822605621145186313234748677408,5198.0,1.48822605621145186313234748677408
115,5291.08998550736902658472216858560727,5289.6,1.48998550736902658472216858560727
116,5383.49172970828590116383995565397704,5382.0,1.49172970828590116383995565397704
117,5476.69345892115768487612042329244720,5475.2,1.49345892115768487612042329244720
118,5570.69517340147391200802610920375872,5569.2,1.49517340147391200802610920375872
119,5665.49687339824485539444066559630698,5664.0,1.49687339824485539444066559630698
120,5761.09855915421883162906865198658934,5759.6,1.49855915421883162906865198658934
121,5857.50023090609046783087732888396915,5856.0,1.50023090609046783087732888396915
122,5954.70188888470038093668315249772652,5953.2,1.50188888470038093668315249772652
123,6052.70353331522668829705370402397461,6051.2,1.50353331522668829705370402397461
124,6151.50516441736875067288709674003836,6150.0,1.50516441736875067288709674003836
125,6251.10678240552351916376782111781508,6249.6,1.50678240552351916376782111781508
126,6351.50838748895484240190039825809253,6350.0,1.50838748895484240190039825809253
127,6452.70997987195606976753585114253806,6451.2,1.50997987195606976753585114253806
128,6554.71155975400626379461608812766019,6553.2,1.51155975400626379461608812766019
129,6657.51312732992032286212318969013352,6656.0,1.51312732992032286212318969013352
130,6761.11468278999329688475334184724201,6759.6,1.51468278999329688475334184724201
131,6865.51622632013916331241705768706874,6864.0,1.51622632013916331241705768706874
132,6970.71775810202431577086654093245190,6969.2,1.51775810202431577086654093245190
133,7076.71927831319600589416710783843582,7075.2,1.51927831319600589416710783843582
134,7183.52078712720596762377069315606419,7182.0,1.52078712720596762377069315606419
135,7291.12228471372943514060699528610645,7289.6,1.52228471372943514060699528610645
136,7399.52377123867976190907747510162156,7398.0,1.52377123867976190907747510162156
137,7508.72524686431883500389377931777055,7507.2,1.52524686431883500389377931777055
138,7618.72671174936346527871162908761145,7617.2,1.52671174936346527871162908761145
139,7729.52816604908793182960552874729957,7728.0,1.52816604908793182960552874729957
140,7841.12960991542284376046144541644934,7839.6,1.52960991542284376046144541644934
141,7953.53104349705047769987461386513500,7952.0,1.53104349705047769987461386513500
142,8066.73246693949674144587253573129982,8065.2,1.53246693949674144587253573129982
143,8180.73388038521990546461401132732254,8179.2,1.53388038521990546461401132732254
144,8295.53528397369623678957794285016797,8294.0,1.53528397369623678957794285016797
145,8411.13667784150266567999669705952796,8409.6,1.53667784150266567999669705952796
146,8527.53806212239660752853777829792525,8526.0,1.53806212239660752853777829792525
147,8644.73943694739305430527159271211943,8643.2,1.53943694739305430527159271211943
148,8762.74080244483905086692976981523943,8761.2,1.54080244483905086692976981523943
149,8881.54215874048565793238419724140486,8880.0,1.54215874048565793238419724140486
150,9001.14350595755750536519976560505774,8999.6,1.54350595755750536519976560505774
151,9121.54484421682003167748995251152199,9120.0,1.54484421682003167748995251152199
152,9242.74617363664450005421987285514521,9241.2,1.54617363664450005421987285514521
153,9364.74749433307087984762465013655415,9363.2,1.54749433307087984762465013655415
154,9487.54880641986867744095896767181905,9486.0,1.54880641986867744095896767181905
155,9611.15011000859579471754393117307832,9609.6,1.55011000859579471754393117307832
156,9735.55140520865549300144728461839074,9734.0,1.55140520865549300144728461839074
157,9860.75269212735153351637297862294861,9859.2,1.55269212735153351637297862294861
158,9986.75397086994156618083362440788051,9985.2,1.55397086994156618083362440788051
159,10113.5552415396888304124113506911821,10112.0,1.5552415396888304124113506911821
160,10241.1565042379122342786168861378772,10239.6,1.5565042379122342786168861378772
161,10369.5577590640348704904379401500454,10368.0,1.5577590640348704904379401500454
162,10498.7590061156310286996483175353173,10497.2,1.5590061156310286996483175353173
163,10628.7602454884717589531472118994321,10627.2,1.5602454884717589531472118994321
164,10759.5614772765690409408937142504028,10758.0,1.5614772765690409408937142504028
165,10891.1627015722186076376242502567492,10889.6,1.5627015722186076376242502567492
166,11023.5639184660414738539117719248404,11022.0,1.5639184660414738539117719248404
167,11156.7651280470242169288561982469421,11155.2,1.5651280470242169288561982469421
168,11290.7663304025580522532896686248145,11289.2,1.5663304025580522532896686248145
169,11425.5675256184767486855572326795943,11424.0,1.5675256184767486855572326795943
170,11561.1687137790934236029587554973734,11559.6,1.5687137790934236029587554973734
171,11697.5698949672362577832827767865640,11696.0,1.5698949672362577832827767865640
172,11834.7710692642831679830603291722352,11833.2,1.5710692642831679830603291722352
173,11972.7722367501954726148393916410469,11971.2,1.5722367501954726148393916410469
174,12111.5733975035505863669640001447803,12110.0,1.5733975035505863669640001447803
175,12251.1745516015737777507609573183869,12249.6,1.5745516015737777507609573183869
176,12391.5756991201690192814568885358880,12390.0,1.5756991201690192814568885358880
177,12532.7768401339489635533330427413301,12531.2,1.5768401339489635533330427413301
178,12674.7779747162640743634839334867816,12673.2,1.5779747162640743634839334867816
179,12817.5791029392309393290954718399522,12816.0,1.5791029392309393290954718399522
180,12961.1802248737597949446113849443968,12959.6,1.5802248737597949446113849443968
181,13105.5813405895812867273438427687005,13104.0,1.5813405895812867273438427687005
182,13250.7824501552724921468834597933506,13249.2,1.5824501552724921468834597933506
183,13396.7835536382822293875523422229245,13395.2,1.5835536382822293875523422229245
184,13543.5846511049556761854058680459921,13542.0,1.5846511049556761854058680459921
185,13691.1857426205583205478761245858236,13689.6,1.5857426205583205478761245858236
186,13839.5868282492992643246458570293907,13838.0,1.5868282492992643246458570293907
187,13988.7879080543539034302197277204854,13987.2,1.5879080543539034302197277204854
188,14138.7889820978860001544765778375458,14137.2,1.5889820978860001544765778375458
189,14289.5900504410691712922595246088888,14288.0,1.5900504410691712922595246088888
190,14441.1911131441078077430476235159540,14439.6,1.5911131441078077430476235159540
191,14593.5921702662574448032265511143533,14592.0,1.5921702662574448032265511143533
192,14746.7932218658445995331262631372370,14745.2,1.5932218658445995331262631372370
193,14900.7942680002860935026379275217866,14899.2,1.5942680002860935026379275217866
194,15055.5953087261078742561565127795120,15054.0,1.5953087261078742561565127795120
195,15211.1963440989633534291709236498569,15209.6,1.5963440989633534291709236498569
196,15367.5973741736512752083641647077605,15366.0,1.5973741736512752083641647077605
197,15524.7983990041331295105067126655481,15523.2,1.5983990041331295105067126655481
198,15682.7994186435501240420839783668992,15681.2,1.5994186435501240420839783668992
199,15841.6004331442397280734732180729646,15840.0,1.6004331442397280734732180729646
200,16001.2014425577518018678307131222782,15999.6,1.6014425577518018678307131222782
201,16161.6024469348643227410678122945529,16160.0,1.6024469348643227410678122945529
202,16322.8034463255987211290269882734262,16321.2,1.6034463255987211290269882734262
203,16484.8044407792348373165397471039453,16483.2,1.6044407792348373165397471039453
204,16647.6054303443255104432277165028822,16646.0,1.6054303443255104432277165028822
205,16811.2064150687108097513587355995097,16809.6,1.6064150687108097513587355995097
206,16975.6073949995319210944546745895253,16974.0,1.6073949995319210944546745895253
207,17140.8083701832446945772762762098075,17139.2,1.6083701832446945772762762098075
208,17306.8093406656328675485894444873312,17305.2,1.6093406656328675485894444873312
209,17473.6103064918209686895403570030016,17472.0,1.6103064918209686895403570030016
210,17641.2112677062869146932382530794108,17639.6,1.6112677062869146932382530794108
211,17809.6122243528743068945020750078608,17808.0,1.6122243528743068945020750078608
212,17978.8131764748044380768928482760513,17977.2,1.6131764748044380768928482760513
213,18148.8141241146880138349195318335172,18147.2,1.6141241146880138349195318335172
214,18319.6150673145366034671016297853561,18318.0,1.6150673145366034671016297853561
215,18491.2160061157738196061130613134353,18489.6,1.6160061157738196061130613134353
216,18663.6169405592462405404575295835693,18662.0,1.6169405592462405404575295835693
217,18836.8178706852340791867105749429185,18835.2,1.6178706852340791867105749429185
218,19010.8187965334616076847710007842087,19009.2,1.6187965334616076847710007842087
219,19185.6197181431073408890502840090812,19184.0,1.6197181431073408890502840090812
220,19361.2206355528139912637202989580877,19359.6,1.6206355528139912637202989580877
221,19537.6215488006981930843016790639148,19536.0,1.6215488006981930843016790639148
222,19714.8224579243600131429506429649335,19713.2,1.6224579243600131429506429649335
223,19892.8233629608922415182676825750498,19891.2,1.6233629608922415182676825750498
224,20071.6242639468894774689184753515307,20070.0,1.6242639468894774689184753515307
225,20251.2251609184570130076015604367693,20249.6,1.6251609184570130076015604367693
226,20431.6260539112195176932955856600654,20430.0,1.6260539112195176932955856600654
227,20612.8269429603295332846244000313350,20611.2,1.6269429603295332846244000313350
228,20794.8278281004757800645311496926627,20793.2,1.6278281004757800645311496926627
229,20977.6287093658912819883964620229660,20976.0,1.6287093658912819883964620229660
230,21161.2295867903613153418287505235385,21159.6,1.6295867903613153418287505235385
231,21345.6304604072311826973808641534858,21344.0,1.6304604072311826973808641534858
232,21530.8313302494138225790973846786571,21529.2,1.6313302494138225790973846786571
233,21716.8321963493972498203804156806043,21715.2,1.6321963493972498203804156806043
234,21903.6330587392518427612230772105328,21902.0,1.6330587392518427612230772105328
235,22091.2339174506374704558938052764722,22089.6,1.6339174506374704558938052764722
236,22279.6347725148104695898226831869721,22278.0,1.6347725148104695898226831869721
237,22468.8356239626304747257995166428396,22467.2,1.6356239626304747257995166428396
238,22658.8364718245671036104769159287857,22657.2,1.6364718245671036104769159287857
