Eigenstate,Energy,Kinetic Energy,Potential Energy
1,0.500000000021109077097591074787221065,0.0,0.500000000021109077097591074787221065
2,1.84623093778890360435650299820749140,1.2,0.64623093778890360435650299820749140
3,3.93633761010971918182185342388830225,3.2,0.73633761010971918182185342388830225
4,6.79966527865727218235282029225360858,6.0,0.79966527865727218235282029225360858
5,10.4480465767459895519464957848086211,9.6,0.8480465767459895519464957848086211
6,14.8870659991299423887398835450240759,14.0,0.8870659991299423887398835450240759
7,20.1197208272470219101407636083755086,19.2,0.9197208272470219101407636083755086
8,26.1477838474740307379466911992368210,25.2,0.9477838474740307379466911992368210
9,32.9723835588171681299641151329093718,32.0,0.9723835588171681299641151329093718
10,40.5942802154249574557663093761047655,39.6,0.9942802154249574557663093761047655
11,49.0140093874384057412446593760848457,48.0,1.0140093874384057412446593760848457
12,58.2319621701621202314979388792007698,57.2,1.0319621701621202314979388792007698
13,68.2484326936618919856563503094337997,67.2,1.0484326936618919856563503094337997
14,79.0636476556208526838252602049198765,78.0,1.0636476556208526838252602049198765
15,90.6777854371536566633667310008153012,89.6,1.0777854371536566633667310008153012
16,103.090988907676924261552537103352433,102.0,1.090988907676924261552537103352433
17,116.303374258370745129792300381500139,115.2,1.103374258370745129792300381500139
18,130.315037253184877099122950398680237,129.2,1.115037253184877099122950398680237
19,145.126057751942723453612492139891373,144.0,1.126057751942723453612492139891373
20,160.736503047975269175553129735292978,159.6,1.136503047975269175553129735292978
21,177.146430374202778010866102980565687,176.0,1.146430374202778010866102980565687
22,194.355888814293532538285313328453127,193.2,1.155888814293532538285313328453127
23,212.364920780600358789212714293605933,211.2,1.164920780600358789212714293605933
24,231.173563171561048388650380684818700,230.0,1.173563171561048388650380684818700
25,250.781848288494284939015909159467085,249.6,1.181848288494284939015909159467085
26,271.189804569407231769396846919550420,270.0,1.189804569407231769396846919550420
27,292.397457181958107773660715264426159,291.2,1.197457181958107773660715264426159
28,314.404828506815227253085808187587650,313.2,1.204828506815227253085808187587650
29,337.211938534858951858609368532991948,336.0,1.211938534858951858609368532991948
30,360.818805196023515159141797332976941,359.6,1.218805196023515159141797332976941
31,385.225444633429741862776556395231817,384.0,1.225444633429741862776556395231817
32,410.431871433381784133333972710877616,409.2,1.231871433381784133333972710877616
33,436.438098819491349640797072948702672,435.2,1.238098819491349640797072948702672
34,463.244138817442349718236045775660815,462.0,1.244138817442349718236045775660815
35,490.850002395569700932275670158078818,489.6,1.250002395569700932275670158078818
36,519.255699585392534495740630542558310,518.0,1.255699585392534495740630542558310
37,548.461239585437983402704983870132950,547.2,1.261239585437983402704983870132950
38,578.466630851061298423119988219713187,577.2,1.266630851061298423119988219713187
39,609.271881172470195444749563055996007,608.0,1.271881172470195444749563055996007
40,640.876997742765515866657181325413574,639.6,1.276997742765515866657181325413574
41,673.281987217493531474815954797297959,672.0,1.281987217493531474815954797297959
42,706.486855766950232628948562881862374,705.2,1.286855766950232628948562881862374
43,740.491609122271452244820682903904304,739.2,1.291609122271452244820682903904304
44,775.296252616174584040735253807157818,774.0,1.296252616174584040735253807157818
45,810.900791219080083948001214691206777,809.6,1.300791219080083948001214691206777
46,847.305229571227807302576561202810445,846.0,1.305229571227807302576561202810445
47,884.509572011309757822770743140721814,883.2,1.309572011309757822770743140721814
48,922.513822602063238013657371046466768,921.2,1.313822602063238013657371046466768
49,961.317985153203728094963577354942144,960.0,1.317985153203728094963577354942144
50,1000.92206324202269783555915322114826,999.6,1.32206324202269783555915322114826
51,1041.32606023193008871520453862083522,1040.0,1.32606023193008871520453862083522
52,1082.52997928918285861992448083242944,1081.2,1.32997928918285861992448083242944
53,1124.53382339800853115883419362192894,1123.2,1.33382339800853115883419362192894
54,1167.33759537430513055879382589394820,1166.0,1.33759537430513055879382589394820
55,1210.94129787807540760075953873648257,1209.6,1.34129787807540760075953873648257
56,1255.34493342473318749157803492454499,1254.0,1.34493342473318749157803492454499
57,1300.54850439540247159985553104725326,1299.2,1.34850439540247159985553104725326
58,1346.55201304631512779824394381343151,1345.2,1.35201304631512779824394381343151
59,1393.35546151740025020721422841576918,1392.0,1.35546151740025020721422841576918
60,1440.95885184014724462768656844852976,1439.6,1.35885184014724462768656844852976
61,1489.36218594481513172238425932961266,1488.0,1.36218594481513172238425932961266
62,1538.56546566705225900066616577062455,1537.2,1.36546566705225900066616577062455
63,1588.56869275398337077257334560125048,1587.2,1.36869275398337077257334560125048
64,1639.37186886981467275790449210971161,1638.0,1.37186886981467275790449210971161
65,1690.97499560100199319616296715193245,1689.6,1.37499560100199319616296715193245
66,1743.37807446102229496416496598096529,1742.0,1.37807446102229496416496598096529
67,1796.58110689478453091677326900526220,1795.2,1.38110689478453091677326900526220
68,1850.58409428271207850541311365734214,1849.2,1.38409428271207850541311365734214
69,1905.38703794452567705830045186140456,1904.0,1.38703794452567705830045186140456
70,1960.98993914275286283804935752439341,1959.6,1.38993914275286283804935752439341
71,2017.39279908598729828859454740406433,2016.0,1.39279908598729828859454740406433
72,2074.59561893191909364098557204887105,2073.2,1.39561893191909364098557204887105
73,2132.59839979015516604120598320402808,2131.2,1.39839979015516604120598320402808
74,2191.40114272484686251461831743282266,2190.0,1.40114272484686251461831743282266
75,2251.00384875714044198053290225121879,2249.6,1.40384875714044198053290225121879
76,2311.40651886746456197364345814376494,2310.0,1.40651886746456197364345814376494
77,2372.60915399766761333065450473453056,2371.2,1.40915399766761333065450473453056
78,2434.61175505301658030224551350045731,2433.2,1.41175505301658030224551350045731
79,2497.41432290406805673052463006373842,2496.0,1.41432290406805673052463006373842
80,2561.01685838842111080648041350739361,2559.6,1.41685838842111080648041350739361
81,2625.41936231236084158046352925735877,2624.0,1.41936231236084158046352925735877
82,2690.62183545240070894817686675475986,2689.2,1.42183545240070894817686675475986
83,2756.62427855673103010086294702818921,2755.2,1.42427855673103010086294702818921
84,2823.42669234658041113666140237589691,2822.0,1.42669234658041113666140237589691
85,2891.02907751749632325393564585426149,2889.6,1.42907751749632325393564585426149
86,2959.43143474055051708197857774289876,2958.0,1.43143474055051708197857774289876
87,3028.63376466347451123370731659290019,3027.2,1.43376466347451123370731659290019
88,3098.63606791172996778722125824608303,3097.2,1.43606791172996778722125824608303
89,3169.43834508951838390093629698260637,3168.0,1.43834508951838390093629698260637
90,3241.04059678073418555027876680636124,3239.6,1.44059678073418555027876680636124
91,3313.44282354986498792187198198719782,3312.0,1.44282354986498792187198198719782
92,3386.64502594284249870360913356990125,3385.2,1.44502594284249870360913356990125
93,3460.64720448784727825395067136357016,3459.2,1.44720448784727825395067136357016
94,3535.44935969607032770504620991287046,3534.0,1.44935969607032770504620991287046
95,3611.05149206243425490025198679542585,3609.6,1.45149206243425490025198679542585
96,3687.45360206627656624449846970717566,3686.0,1.45360206627656624449846970717566
97,3764.65569017199744820385312257641806,3763.2,1.45569017199744820385312257641806
98,3842.65775682967422931632861019880442,3841.2,1.45775682967422931632861019880442
99,3921.45980247564456010379762276973111,3920.0,1.45980247564456010379762276973111
100,4001.06182753306020193445941942421263,3999.6,1.46182753306020193445941942421263
101,4081.46383241241318658114870446402209,4080.0,1.46383241241318658114870446402209
102,4162.66581751203598264605638455718351,4161.2,1.46581751203598264605638455718351
103,4244.66778321857719710881887001051847,4243.2,1.46778321857719710881887001051847
104,4327.46972990745423299022217686305569,4326.0,1.46972990745423299022217686305569
105,4411.07165794328423105001016649116693,4409.6,1.47165794328423105001016649116693
106,4495.47356768029453267304257245204538,4494.0,1.47356768029453267304257245204538
107,4580.67545946271382301609304432093241,4579.2,1.47545946271382301609304432093241
108,4666.67733362514503424802302957276456,4665.2,1.47733362514503424802302957276456
109,4753.47919049292102012253319323300579,4752.0,1.47919049292102012253319323300579
110,4841.08103038244395070256897628747496,4839.6,1.48103038244395070256897628747496
111,4929.48285360150931019425839506698785,4928.0,1.48285360150931019425839506698785
112,5018.68466044961533141462670277152802,5017.2,1.48466044961533141462670277152802
113,5108.68645121825864488153845259210498,5107.2,1.48645121825864488153845259210498
114,5199.48822619121687175656117308627731,5198.0,1.48822619121687175656117308627731
115,5291.08998564481884942294228891293968,5289.6,1.48998564481884942294228891293968
116,5383.49172984820313014924269811958733,5382.0,1.49172984820313014924269811958733
117,5476.69345906356536157616365162325155,5475.2,1.49345906356536157616365162325155
118,5570.69517354639511673299801987637187,5569.2,1.49517354639511673299801987637187
119,5665.49687354570270757642071864183811,5664.0,1.49687354570270757642071864183811
120,5761.09855930423649020209809728291367,5759.6,1.49855930423649020209809728291367
121,5857.50023105869113161235186974820211,5856.0,1.50023105869113161235186974820211
122,5954.70188903990728900998036317120511,5953.2,1.50188903990728900998036317120511
123,6052.70353347306312039540787309569247,6051.2,1.50353347306312039540787309569247
124,6151.50516457785802756452425825406042,6150.0,1.50516457785802756452425825406042
125,6251.10678256868900303831379363069552,6249.6,1.50678256868900303831379363069552
126,6351.50838765481993725807474667044323,6350.0,1.50838765481993725807474667044323
127,6452.70998004054422180214473022105939,6451.2,1.50998004054422180214473022105939
128,6554.71155992534096179285703162687052,6553.2,1.51155992534096179285703162687052
129,6657.51312750402509858921496257246884,6656.0,1.51312750402509858921496257246884
130,6761.11468296689172547890405494853719,6759.6,1.51468296689172547890405494853719
131,6865.51622649985486367914382155291324,6864.0,1.51622649985486367914382155291324
132,6970.71775828458095097868001844592347,6969.2,1.51775828458095097868001844592347
133,7076.71927849861728357163437701841462,7075.2,1.51927849861728357163437701841462
134,7183.52078731551564035796994401900280,7182.0,1.52078731551564035796994401900280
135,7291.12228490495130087698764756522099,7289.6,1.52228490495130087698764756522099
136,7399.52377143283766435273936027651341,7398.0,1.52377143283766435273936027651341
137,7508.72524706143666402229915837170140,7507.2,1.52524706143666402229915837170140
138,7618.72671194946515730584384487162638,7617.2,1.52671194946515730584384487162638
139,7729.52816625219747027158821505018907,7728.0,1.52816625219747027158821505018907
140,7841.12961012156425940265227789963489,7839.6,1.52961012156425940265227789963489
141,7953.53104370624784911544766305957725,7952.0,1.53104370624784911544766305957725
142,8066.73246715177419540590338704701741,8065.2,1.53246715177419540590338704701741
143,8180.73388060060161734968186871504483,8179.2,1.53388060060161734968186871504483
144,8295.53528419220643100289907150083349,8294.0,1.53528419220643100289907150083349
145,8411.13667806316561606210358216929426,8409.6,1.53667806316561606210358216929426
146,8527.53806234723663777351848514912495,8526.0,1.53806234723663777351848514912495
147,8644.73943717543453837858395392842930,8643.2,1.53943717543453837858395392842930
148,8762.74080267610641342480502167465642,8761.2,1.54080267610641342480502167465642
149,8881.54215897500337474283485039595353,8880.0,1.54215897500337474283485039595353
150,9001.14350619535010373064651588373876,8999.6,1.54350619535010373064651588373876
151,9121.54484445791209085902261932094649,9120.0,1.54484445791209085902261932094649
152,9242.74617388106065169750737840718379,9241.2,1.54617388106065169750737840718379
153,9364.74749458083580841048913174387404,9363.2,1.54749458083580841048913174387404
154,9487.54880667100712062262926358688870,9486.0,1.54880667100712062262926358688870
155,9611.15011026313254388960373884100852,9609.6,1.55011026313254388960373884100852
156,9735.55140546661539364049339414830022,9734.0,1.55140546661539364049339414830022
157,9860.75269238875948563839907850934565,9859.2,1.55269238875948563839907850934565
158,9986.75397113482252477735527440184481,9985.2,1.55397113482252477735527440184481
159,10113.5552418080678058883478052644728,10112.0,1.5552418080678058883478052644728
160,10241.1565045098142928919455768438860,10239.6,1.5565045098142928919455768438860
161,10369.5577593394851347936374858409085,10368.0,1.5577593394851347936374858409085
162,10498.7590063946546779829460703056714,10497.2,1.5590063946546779829460703056714
163,10628.7602457710940296895874169114228,10627.2,1.5602457710940296895874169114228
164,10759.5614775628152272332424832362318,10758.0,1.5614775628152272332424832362318
165,10891.1627018621140616671276607775216,10889.6,1.5627018621140616671276607775216
166,11023.5639187596116063309234669604265,11022.0,1.5639187596116063309234669604265
167,11156.7651283442944975453510142910511,11155.2,1.5651283442944975453510142910511
168,11290.7663307035540101372798945179053,11289.2,1.5663307035540101372798945179053
169,11425.5675259232239728574282382747972,11424.0,1.5675259232239728574282382747972
170,11561.1687140876175634337407986437115,11559.6,1.5687140876175634337407986437115
171,11697.5698952795630234548759524305886,11696.0,1.5698952795630234548759524305886
172,11834.7710695804383309504296866369976,11833.2,1.5710695804383309504296866369976
173,11972.7722370702048660701974126247711,11971.2,1.5722370702048660701974126247711
174,12111.5733978274401057059576835738771,12110.0,1.5733978274401057059576835738771
175,12251.1745519293693810406809232814281,12249.6,1.5745519293693810406809232814281
176,12391.5756994518967277314859982977743,12390.0,1.5756994518967277314859982977743
177,12532.7768404696348619868521579463897,12531.2,1.5768404696348619868521579463897
178,12674.7779750559343116924525567167649,12673.2,1.5779750559343116924525567167649
179,12817.5791032829117290305251157032537,12816.0,1.5791032829117290305251157032537
180,12961.1802252214774155391496682913465,12959.6,1.5802252214774155391496682913465
181,13105.5813409413620822599873964900387,13104.0,1.5813409413620822599873964900387
182,13250.7824505111428726698378623359945,13249.2,1.5824505111428726698378623359945
183,13396.7835539982686714452574506431566,13395.2,1.5835539982686714452574506431566
184,13543.5846514690847233017449903260582,13542.0,1.5846514690847233017449903260582
185,13691.1857429888565837155876316477331,13689.6,1.5857429888565837155876316477331
186,13839.5868286217934224969559851258751,13838.0,1.5868286217934224969559851258751
187,13988.7879084310707040147153756558074,13987.2,1.5879084310707040147153756558074
188,14138.7889824788522595092371221534773,14137.2,1.5889824788522595092371221534773
189,14289.5900508263117752242667401489994,14288.0,1.5900508263117752242667401489994
190,14441.1911135336537120088929549125014,14439.6,1.5911135336537120088929549125014
191,14593.5921706601336756121351372749605,14592.0,1.5921706601336756121351372749605
192,14746.7932222640782540523171855121139,14745.2,1.5932222640782540523171855121139
193,14900.7942684029043403650403596241940,14899.2,1.5942684029043403650403596241940
194,15055.5953091331379540705015607680418,15054.0,1.5953091331379540705015607680418
195,15211.1963445104325792924790461212251,15209.6,1.5963445104325792924790461212251
196,15367.5973745895870332208482898328645,15366.0,1.5973745895870332208482898328645
197,15524.7983994245628792929112147525247,15523.2,1.5983994245628792929112147525247
198,15682.7994190685013992554798740101954,15681.2,1.5994190685013992554798740101954
199,15841.6004335737401369415300912021834,15840.0,1.6004335737401369415300912021834
200,16001.2014429918290277015860077567199,15999.6,1.6014429918290277015860077567199
201,16161.6024473735461244662142485179605,16160.0,1.6024473735461244662142485179605
202,16322.8034467689129338157390744541131,16321.2,1.6034467689129338157390744541131
203,16484.8044412272093727118604590948916,16483.2,1.6044412272093727118604590948916
204,16647.6054307969883575060365772923911,16646.0,1.6054307969883575060365772923911
205,16811.2064155260900351899426776316235,16809.6,1.6064155260900351899426776316235
206,16975.6073954616556699067032644931404,16974.0,1.6073954616556699067032644931404
207,17140.8083706501411905935229677281330,17139.2,1.6083706501411905935229677281330
208,17306.8093411373304139771207198586685,17305.2,1.6093411373304139771207198586685
209,17473.6103069683479486647948103613704,17472.0,1.6103069683479486647948103613704
210,17641.2112681876717918267177484178124,17639.6,1.6112681876717918267177484178124
211,17809.6122248391456258284173643161954,17808.0,1.6122248391456258284173643161954
212,17978.8131769659908250405661032999836,17977.2,1.6131769659908250405661032999836
213,18148.8141246108181772039665162659790,18147.2,1.6141246108181772039665162659790
214,18319.6150678156393343254163184520749,18318.0,1.6150678156393343254163184520749
215,18491.2160066218779923106776897195664,18489.6,1.6160066218779923106776897195664
216,18663.6169410703808132890013128113568,18662.0,1.6169410703808132890013128113568
217,18836.8178712014280945882404014535429,18835.2,1.6178712014280945882404014535429
218,19010.8187970547441933329976334918643,19009.2,1.6187970547441933329976334918643
219,19185.6197186695077099387337528742520,19184.0,1.6197186695077099387337528742520
220,19361.2206360843614430099583957811069,19359.6,1.6206360843614430099583957811069
221,19537.6215493374221135447855997974132,19536.0,1.6215493374221135447855997974132
222,19714.8224584662898756432119648905167,19713.2,1.6224584662898756432119648905167
223,19892.8233635080576072799411752779827,19891.2,1.6233635080576072799411752779827
224,20071.6242644993199962010452750325417,20070.0,1.6242644993199962010452750325417
225,20251.2251614761824235009975534813394,20249.6,1.6251614761824235009975534813394
226,20431.6260544742696484180099341442975,20430.0,1.6260544742696484180099341442975
227,20612.8269435287343029905134057456426,20611.2,1.6269435287343029905134057456426
228,20794.8278286742651983849728006971841,20793.2,1.6278286742651983849728006971841
229,20977.6287099450954500471712179174167,20976.0,1.6287099450954500471712179174167
230,21161.2295873750104263631923120818153,21159.6,1.6295873750104263631923120818153
231,21345.6304609973555226193548854215662,21344.0,1.6304609973555226193548854215662
232,21530.8313308450437706700042442933837,21529.2,1.6313308450437706700042442933837
233,21716.8321969505632792986484229819549,21715.2,1.6321969505632792986484229819549
234,21903.6330593459845214184886443668176,21902.0,1.6330593459845214184886443668176
235,22091.2339180629674612834273420139125,22089.6,1.6339180629674612834273420139125
236,22279.6347731327685314083051933534273,22278.0,1.6347731327685314083051933534273
237,22468.8356245862474628184770193955883,22467.2,1.6356245862474628184770193955883
238,22658.8364724538739703597201361098377,22657.2,1.6364724538739703597201361098377
