Eigenstate,Energy,Kinetic Energy,Potential Energy
1,0.500000000055465315742682328593534936,0.0,0.500000000055465315742682328593534936
2,1.84623093801316354041985237041653684,1.2,0.64623093801316354041985237041653684
3,3.93633761076846608289566169995039632,3.2,0.73633761076846608289566169995039632
4,6.79966528002937085232686559765767514,6.0,0.79966528002937085232686559765767514
5,10.4480465791227542654953208202289063,9.6,0.8480465791227542654953208202289063
6,14.8870660028077914918235042950901697,14.0,0.8870660028077914918235042950901697
7,20.1197208325247718453298212245775843,19.2,0.9197208325247718453298212245775843
8,26.1477838546517679679599691029115313,25.2,0.9477838546517679679599691029115313
9,32.9723835681957249731954761677235398,32.0,0.9723835681957249731954761677235398
10,40.5942802273056464110402989711605819,39.6,0.9942802273056464110402989711605819
11,49.0140094021228754980557963638223572,48.0,1.0140094021228754980557963638223572
12,58.2319621879522736898791540371633022,57.2,1.0319621879522736898791540371633022
13,68.2484327148598380348776894726481128,67.2,1.0484327148598380348776894726481128
14,79.0636476805288774099164447403141320,78.0,1.0636476805288774099164447403141320
15,90.6777854660742062782589524048839162,89.6,1.0777854660742062782589524048839162
16,103.090988940912595395760233642053380,102.0,1.090988940912595395760233642053380
17,116.303374296224279915600612134666850,115.2,1.103374296224279915600612134666850
18,130.315037295959161467044409109099213,129.2,1.115037295959161467044409109099213
19,145.126057799940787642977520742139008,144.0,1.126057799940787642977520742139008
20,160.736503101500289807695312901824803,159.6,1.136503101500289807695312901824803
21,177.146430433558081288964258329711216,176.0,1.146430433558081288964258329711216
22,194.355888879782598275412838868158928,193.2,1.155888879782598275412838868158928
23,212.364920852526825056027237350733240,211.2,1.164920852526825056027237350733240
24,231.173563250228716632247827362077047,230.0,1.173563250228716632247827362077047
25,250.781848374207125465469952644782652,249.6,1.181848374207125465469952644782652
26,271.189804662469389510994808966304174,270.0,1.189804662469389510994808966304174
27,292.397457282673908281981724830853890,291.2,1.197457282673908281981724830853890
28,314.404828615489182873517741694977697,313.2,1.204828615489182873517741694977697
29,337.211938651795768052420368706264377,336.0,1.211938651795768052420368706264377
30,360.818805321528096946980238576512843,359.6,1.218805321528096946980238576512843
31,385.225444767807200369264544267655705,384.0,1.225444767807200369264544267655705
32,410.431871576937443216791120962663733,409.2,1.231871576937443216791120962663733
33,436.438098972530752595465977091201154,435.2,1.238098972530752595465977091201154
34,463.244138980271266038949284758716683,462.0,1.244138980271266038949284758716683
35,490.850002568494133133500483630667729,489.6,1.250002568494133133500483630667729
36,519.255699768718724978502218921467661,518.0,1.255699768718724978502218921467661
37,548.461239779472421364125875541274901,547.2,1.261239779472421364125875541274901
38,578.466631056110726804297197198203941,577.2,1.266631056110726804297197198203941
39,609.271881388841617913480420614221919,608.0,1.271881388841617913480420614221919
40,640.876997970766203832161685370316366,639.6,1.276997970766203832161685370316366
41,673.281987457431031132120746667365032,672.0,1.281987457431031132120746667365032
42,706.486856019132372031020355509175929,705.2,1.286856019132372031020355509175929
43,740.491609387006348400884336405943109,739.2,1.291609387006348400884336405943109
44,775.296252893770650039498624821726255,774.0,1.296252893770650039498624821726255
45,810.900791509846036104747258919495855,809.6,1.300791509846036104747258919495855
46,847.305229875472672329282124755834827,846.0,1.305229875472672329282124755834827
47,884.509572329342880020578233775064705,883.2,1.309572329342880020578233775064705
48,922.513822934194286487166089478758725,921.2,1.313822934194286487166089478758725
49,961.317985499742703987926365466477880,960.0,1.317985499742703987926365466477880
50,1000.92206360327994158767104914590703,999.6,1.32206360327994158767104914590703
51,1041.32606060821628733975639745122385,1040.0,1.32606060821628733975639745122385
52,1082.52997968080905300216836870501352,1081.2,1.32997968080905300216836870501352
53,1124.53382380528612337497087498666720,1123.2,1.33382380528612337497087498666720
54,1167.33759579754589121554756087387184,1166.0,1.33759579754589121554756087387184
55,1210.94129831759148319555295678532370,1209.6,1.34129831759148319555295678532370
56,1255.34493388083710779336119921474472,1254.0,1.34493388083710779336119921474472
57,1300.54850486840715705067940906760651,1299.2,1.34850486840715705067940906760651
58,1346.55201353653389693570025350538651,1345.2,1.35201353653389693570025350538651
59,1393.35546202514682710789136473608758,1392.0,1.35546202514682710789136473608758
60,1440.95885236573576637181597807773012,1439.6,1.35885236573576637181597807773012
61,1489.36218648856015587987337980481366,1488.0,1.36218648856015587987337980481366
62,1538.56546622926877113873350687290732,1537.2,1.36546622926877113873350687290732
63,1588.56869333498679198521853171393842,1587.2,1.36869333498679198521853171393842
64,1639.37186946992086721746159154966916,1638.0,1.37186946992086721746159154966916
65,1690.97499622052727572719947955004048,1689.6,1.37499622052727572719947955004048
66,1743.37807510028343864000138472814184,1742.0,1.37807510028343864000138472814184
67,1796.58110755409877467890957785288780,1795.2,1.38110755409877467890957785288780
68,1850.58409496239713480615900683781276,1849.2,1.38409496239713480615900683781276
69,1905.38703864489973952691567856201991,1904.0,1.38703864489973952691567856201991
70,1960.98993986413461397070912112831145,1959.6,1.38993986413461397070912112831145
71,2017.39279982869591716250325111955740,2016.0,1.39279982869591716250325111955740
72,2074.59561969627426365296937094194940,2073.2,1.39561969627426365296937094194940
73,2132.59840057647708267112179560953300,2131.2,1.39840057647708267112179560953300
74,2191.40114353345624111392327499092033,2190.0,1.40114353345624111392327499092033
75,2251.00384958835852558636441413061124,2249.6,1.40384958835852558636441413061124
76,2311.40651972161312914876567241666771,2310.0,1.40651972161312914876567241666771
77,2372.60915487506898602963244893550039,2371.2,1.40915487506898602963244893550039
78,2434.61175595399363176421335342509957,2433.2,1.41175595399363176421335342509957
79,2497.41432382894421939891935313227502,2496.0,1.41432382894421939891935313227502
80,2561.01685933752038427611689057743840,2559.6,1.41685933752038427611689057743840
81,2625.41936328600780057233151988388025,2624.0,1.41936328600780057233151988388025
82,2690.62183645092051131234482070352348,2689.2,1.42183645092051131234482070352348
83,2756.62427958044942484787764801038342,2755.2,1.42427958044942484787764801038342
84,2823.42669339582374649783661326046466,2822.0,1.42669339582374649783661326046466
85,2891.02907859259155477092689165939504,2889.6,1.42907859259155477092689165939504
86,2959.43143584182521572604502929652602,2958.0,1.43143584182521572604502929652602
87,3028.63376579125687155506564860854244,3027.2,1.43376579125687155506564860854244
88,3098.63606906634881609490000440987945,3097.2,1.43606906634881609490000440987945
89,3169.43834627130318647354293389491480,3168.0,1.43834627130318647354293389491480
90,3241.04059799001505687809537728218214,3239.6,1.44059799001505687809537728218214
91,3313.44282478697269898069897222319382,3312.0,1.44282478697269898069897222319382
92,3386.64502720810848526078002296602323,3385.2,1.44502720810848526078002296602323
93,3460.64720578160364920694448552561567,3459.2,1.44720578160364920694448552561567
94,3535.44936101864987345312756027167382,3534.0,1.44936101864987345312756027167382
95,3611.05149341417045574957245040069429,3609.6,1.45149341417045574957245040069429
96,3687.45360344750360084709624106496182,3686.0,1.45360344750360084709624106496182
97,3764.65569158305020203099164904317064,3763.2,1.45569158305020203099164904317064
98,3842.65775827088830316661810747713609,3841.2,1.45775827088830316661810747713609
99,3921.45980394735627864654718255568494,3920.0,1.45980394735627864654718255568494
100,4001.06182903560662228871066738911629,3999.6,1.46182903560662228871066738911629
101,4081.46383394613210693084567425730373,4080.0,1.46383394613210693084567425730373
102,4162.66581907726595089180972887830871,4161.2,1.46581907726595089180972887830871
103,4244.66778481565751955672598049544025,4243.2,1.46778481565751955672598049544025
104,4327.46973153672498307820865002368067,4326.0,1.46973153672498307820865002368067
105,4411.07165960508625811216132433324901,4409.6,1.47165960508625811216132433324901
106,4495.47356937496947074239761941183818,4494.0,1.47356937496947074239761941183818
107,4580.67546119060409966637787525671990,4579.2,1.47546119060409966637787525671990
108,4666.67733538659387947480160339226839,4665.2,1.47733538659387947480160339226839
109,4753.47919228827247526426092067483028,4752.0,1.47919228827247526426092067483028
110,4841.08103221204287740203546264979609,4839.6,1.48103221204287740203546264979609
111,4929.48285546570139940091048532850790,4928.0,1.48285546570139940091048532850790
112,5018.68466234874711242826674247959814,5017.2,1.48466234874711242826674247959814
113,5108.68645315267749443789649330477237,5107.2,1.48645315267749443789649330477237
114,5199.48822816127102315524367767507818,5198.0,1.48822816127102315524367767507818
115,5291.08998765085740169826391265507997,5289.6,1.48998765085740169826391265507997
116,5383.49173189057605728445159614142903,5382.0,1.49173189057605728445159614142903
117,5476.69346114262352176157496062896154,5475.2,1.49346114262352176157496062896154
118,5570.69517566249026166855396283779803,5569.2,1.49517566249026166855396283779803
119,5665.49687569918749181920007083792072,5664.0,1.49687569918749181920007083792072
120,5761.09856149546448055930195811397676,5759.6,1.49856149546448055930195811397676
121,5857.50023328801681658029666795547945,5856.0,1.50023328801681658029666795547945
122,5954.70189130768608825963346927904778,5953.2,1.50189130768608825963346927904778
123,6052.70353577965139430500540476685946,6051.2,1.50353577965139430500540476685946
124,6151.50516692361308679981500296508727,6150.0,1.50516692361308679981500296508727
125,6251.10678495396911818097760796045526,6249.6,1.50678495396911818097760796045526
126,6351.50839007998434848286828067779570,6350.0,1.50839007998434848286828067779570
127,6452.70998250595314860333173166942515,6451.2,1.50998250595314860333173166942515
128,6554.71156243135561276048515022193895,6553.2,1.51156243135561276048515022193895
129,6657.51313005100768123580555700134555,6656.0,1.51313005100768123580555700134555
130,6761.11468555520545611712613721300699,6759.6,1.51468555520545611712613721300699
131,6865.51622912986397735104795984467002,6864.0,1.51622912986397735104795984467002
132,6970.71776095665071143707317815605403,6969.2,1.51776095665071143707317815605403
133,7076.71928121311399331418086566066788,7075.2,1.51928121311399331418086566066788
134,7183.52079007280665071460910121871553,7182.0,1.52079007280665071460910121871553
135,7291.12228770540502215126382178528814,7289.6,1.52228770540502215126382178528814
136,7399.52377427682357601764431414741042,7398.0,1.52377427682357601764431414741042
137,7508.72524994932532497123271245943917,7507.2,1.52524994932532497123271245943917
138,7618.72671488162821615930329408723706,7617.2,1.52671488162821615930329408723706
139,7729.52816922900767574020254853783153,7728.0,1.52816922900767574020254853783153
140,7841.12961314339547070718241146694469,7839.6,1.52961314339547070718241146694469
141,7953.53104677347504646437911327094228,7952.0,1.53104677347504646437911327094228
142,8066.73247026477349053126351697246620,8065.2,1.53247026477349053126351697246620
143,8180.73388375975026410171911064722290,8179.2,1.53388375975026410171911064722290
144,8295.53528739788283600426722762232832,8294.0,1.53528739788283600426722762232832
145,8411.13668131574934942219974668815362,8409.6,1.53668131574934942219974668815362
146,8527.53806564710844386362906295131824,8526.0,1.53806564710844386362906295131824
147,8644.73944052297634666849887530113337,8643.2,1.53944052297634666849887530113337
148,8762.74080607170134938156601894835486,8761.2,1.54080607170134938156601894835486
149,8881.54216241903577079228994325220601,8880.0,1.54216241903577079228994325220601
150,9001.14350968820551028248818871779037,8999.6,1.54350968820551028248818871779037
151,9121.54484799997728739599411040585158,9120.0,1.54484799997728739599411040585158
152,9242.74617747272365792946680240638839,9241.2,1.54617747272365792946680240638839
153,9364.74749822248589549402799875052620,9363.2,1.54749822248589549402799875052620
154,9487.54881036303482244694782570283861,9486.0,1.54881036303482244694782570283861
155,9611.15011400592966842935218803864507,9609.6,1.55011400592966842935218803864507
156,9735.55140926057503437629462572676275,9734.0,1.55140926057503437629462572676275
157,9860.75269623427603304577467792610463,9859.2,1.55269623427603304577467792610463
158,9986.75397503229167788478355186273738,9985.2,1.55397503229167788478355186273738
159,10113.5552457578865839051891611497922,10112.0,1.5552457578865839051891611497922
160,10241.1565085123810469069773213010552,10239.6,1.5565085123810469069773213010552
161,10369.5577633951995595449471988699519,10368.0,1.5577633951995595449471988699519
162,10498.7590105039178236999394549298562,10497.2,1.5590105039178236999394549298562
163,10628.7602499343083140078735434006889,10627.2,1.5602499343083140078735434006889
164,10759.5614817803844471831667979474538,10758.0,1.5614817803844471831667979474538
165,10891.1627061344434057367301948289487,10889.6,1.5627061344434057367301948289487
166,11023.5639230871076666041068345855988,11022.0,1.5639230871076666041068345855988
167,11156.7651327273652819160504062134576,11155.2,1.5651327273652819160504062134576
168,11290.7663351426089546004349397346512,11289.2,1.5663351426089546004349397346512
169,11425.5675304186739538775637375432333,11424.0,1.5675304186739538775637375432333
170,11561.1687186398749103919716465201729,11559.6,1.5687186398749103919716465201729
171,11697.5698998890415311751588266880561,11696.0,1.5698998890415311751588266880561
172,11834.7710742475532723058923820797053,11833.2,1.5710742475532723058923820797053
173,11972.7722417953730046703843836996290,11971.2,1.5722417953730046703843836996290
174,12111.5734026110797086658387759066551,12110.0,1.5734026110797086658387759066551
175,12251.1745567719002318322782771722784,12249.6,1.5745567719002318322782771722784
176,12391.5757043537401391189825220109629,12390.0,1.5757043537401391189825220109629
177,12532.7768454312136890460532875321808,12531.2,1.5768454312136890460532875321808
178,12674.7779800776729649154816688291038,12673.2,1.5779800776729649154816688291038
179,12817.5791083652361875166415280081028,12816.0,1.5791083652361875166415280081028
180,12961.1802303648152402725868866507637,12959.6,1.5802303648152402725868866507637
181,13105.5813461461424294757182637354064,13104.0,1.5813461461424294757182637354064
182,13250.7824557777965073081820050576515,13249.2,1.5824557777965073081820050576515
183,13396.7835593272279806962557912503679,13395.2,1.5835593272279806962557912503679
184,13543.5846568607837302402349553759334,13542.0,1.5846568607837302402349553759334
185,13691.1857484437309610279225132254646,13689.6,1.5857484437309610279225132254646
186,13839.5868341402805063003206400385056,13838.0,1.5868341402805063003206400385056
187,13988.7879140136095077700007144566156,13987.2,1.5879140136095077700007144566156
188,14138.7889881258834880284450681988092,14137.2,1.5889881258834880284450681988092
189,14289.5900565382778387734273643565399,14288.0,1.5900565382778387734273643565399
190,14441.1911193109987405074853683133332,14439.6,1.5911193109987405074853683133332
191,14593.5921765033035329300136762231217,14592.0,1.5921765033035329300136762231217
192,14746.7932281735205524051548791020051,14745.2,1.5932281735205524051548791020051
193,14900.7942743790684548093116417837959,14899.2,1.5942743790684548093116417837959
194,15055.5953151764750370990370297550728,15054.0,1.5953151764750370990370297550728
195,15211.1963506213955755316352961203315,15209.6,1.5963506213955755316352961203315
196,15367.5973807686306942303467967063661,15366.0,1.5973807686306942303467967063661
197,15524.7984056721437784694111853544592,15523.2,1.5984056721437784694111853544592
198,15682.7994253850779468409605459640950,15681.2,1.5994253850779468409605459640950
199,15841.6004399597725951375697878010440,15840.0,1.6004399597725951375697878010440
200,16001.2014494477795258906359668592930,15999.6,1.6014494477795258906359668592930
201,16161.6024538998786745409767359678952,16160.0,1.6024538998786745409767359678952
202,16322.8034533660934456177714879334993,16321.2,1.6034533660934456177714879334993
203,16484.8044478957056695805379516849508,16483.2,1.6044478957056695805379516849508
204,16647.6054375372701919390184646489196,16646.0,1.6054375372701919390184646489196
205,16811.2064223386291046162991373012701,16809.6,1.6064223386291046162991373012701
206,16975.6074023469256325738717274803044,16974.0,1.6074023469256325738717274803044
207,17140.8083776086176815692755910417846,17139.2,1.6083776086176815692755910417846
208,17306.8093481694910612677369977576934,17305.2,1.6093481694910612677369977576934
209,17473.6103140746723894506458154435430,17472.0,1.6103140746723894506458154435430
210,17641.2112753686416888164818619792620,17639.6,1.6112753686416888164818619792620
211,17809.6122320952446837331595642595810,17808.0,1.6122320952446837331595642595810
212,17978.8131842977048071689268030029725,17977.2,1.6131842977048071689268030029725
213,18148.8141320186349221797190787487293,18147.2,1.6141320186349221797190787487293
214,18319.6150753000487729286657091477003,18318.0,1.6150753000487729286657091477003
215,18491.2160141833721644439866589879765,18489.6,1.6160141833721644439866589879765
216,18663.6169487094538850697442704428421,18662.0,1.6169487094538850697442704428421
217,18836.8178789185763755684991390241444,18835.2,1.6178789185763755684991390241444
218,19010.8188048504661538483276751576739,19009.2,1.6188048504661538483276751576739
219,19185.6197265443039985871442177410359,19184.0,1.6197265443039985871442177410359
220,19361.2206440387349042624627618035877,19359.6,1.6206440387349042624627618035877
221,19537.6215573718778054888961632571893,19536.0,1.6215573718778054888961632571893
222,19714.8224665813350878607651670548583,19713.2,1.6224665813350878607651670548583
223,19892.8233717042018788606564984275137,19891.2,1.6233717042018788606564984275137
224,20071.6242727770751338932360528367531,20070.0,1.6242727770751338932360528367531
225,20251.2251698360625200008670790937166,20249.6,1.6251698360625200008670790937166
226,20431.6260629167911007989827138247624,20430.0,1.6260629167911007989827138247624
227,20612.8269520544158312740669557394680,20611.2,1.6269520544158312740669557394680
228,20794.8278372836278642544519454843925,20793.2,1.6278372836278642544519454843925
229,20977.6287186386626757060832929813499,20976.0,1.6287186386626757060832929813499
230,21161.2295961533080135394981066907603,21159.6,1.6295961533080135394981066907603
231,21345.6304698609116717172876019303734,21344.0,1.6304698609116717172876019303734
232,21530.8313397943891000709651282425180,21529.2,1.6313397943891000709651282425180
233,21716.8322059862308448127458474709554,21715.2,1.6322059862308448127458474709554
234,21903.6330684685098358883047504100709,21902.0,1.6330684685098358883047504100709
235,22091.2339272728885143416138434086719,22089.6,1.6339272728885143416138434086719
236,22279.6347824306258093906286543520024,22278.0,1.6347824306258093906286543520024
237,22468.8356339725839688339517250385059,22467.2,1.6356339725839688339517250385059
238,22658.8364819292352445194855951247663,22657.2,1.6364819292352445194855951247663
