Eigenstate,Energy,Kinetic Energy,Potential Energy
1,0.500000000042247981038416946079893433,0.0,0.500000000042247981038416946079893433
2,1.84623093792688744378826654493189137,1.2,0.64623093792688744378826654493189137
3,3.93633761051503599027126260076380421,3.2,0.73633761051503599027126260076380421
4,6.79966527950150199524293121154482784,6.0,0.79966527950150199524293121154482784
5,10.4480465782083709565305974376802221,9.6,0.8480465782083709565305974376802221
6,14.8870660013928525120708252157237529,14.0,0.8870660013928525120708252157237529
7,20.1197208304943109785284669271127779,19.2,0.9197208304943109785284669271127779
8,26.1477838518903274942005574472857220,25.2,0.9477838518903274942005574472857220
9,32.9723835645875568285897808424543838,32.0,0.9723835645875568285897808424543838
10,40.5942802227348139024244779015601417,39.6,0.9942802227348139024244779015601417
11,49.0140093964733082030737205699707281,48.0,1.0140093964733082030737205699707281
12,58.2319621811077985005817276880691801,57.2,1.0319621811077985005817276880691801
13,68.2484327067041972132983927745153860,67.2,1.0484327067041972132983927745153860
14,79.0636476709457391685499348551585343,78.0,1.0636476709457391685499348551585343
15,90.6777854549471708504791247445284794,89.6,1.0777854549471708504791247445284794
16,103.090988928125198272754976922244123,102.0,1.090988928125198272754976922244123
17,116.303374281659993239666209780378934,115.2,1.103374281659993239666209780378934
18,130.315037279501394187983432258620303,129.2,1.115037279501394187983432258620303
19,145.126057781472884821939266310338504,144.0,1.126057781472884821939266310338504
20,160.736503080905531319071726223862479,159.6,1.136503080905531319071726223862479
21,177.146430410719680088008836237222994,176.0,1.146430410719680088008836237222994
22,194.355888854583698346355723518275049,193.2,1.155888854583698346355723518275049
23,212.364920824850499120880195612106716,211.2,1.164920824850499120880195612106716
24,231.173563219957963677374550109519644,230.0,1.173563219957963677374550109519644
25,250.781848341224868127224730914736695,249.6,1.181848341224868127224730914736695
26,271.189804626658471350771815628785629,270.0,1.189804626658471350771815628785629
27,292.397457243917090973270762420346596,291.2,1.197457243917090973270762420346596
28,314.404828573669143318002687011726969,313.2,1.204828573669143318002687011726969
29,337.211938606795095438109412046510516,336.0,1.211938606795095438109412046510516
30,360.818805273229289758372161588589821,359.6,1.218805273229289758372161588589821
31,385.225444716092663357327116548523032,384.0,1.225444716092663357327116548523032
32,410.431871521689484334845649944795823,409.2,1.231871521689484334845649944795823
33,436.438098913631579905788952166525649,435.2,1.238098913631579905788952166525649
34,463.244138917602984593913751695023924,462.0,1.244138917602984593913751695023924
35,490.850002501938741834311572838445654,489.6,1.250002501938741834311572838445654
36,519.255699698158113413979049629651448,518.0,1.255699698158113413979049629651448
37,548.461239704788366631506151899063631,547.2,1.261239704788366631506151899063631
38,578.466630977184890313661947705207777,577.2,1.266630977184890313661947705207777
39,609.271881305555542177092505144573211,608.0,1.271881305555542177092505144573211
40,640.876997883001309239766442734966656,639.6,1.276997883001309239766442734966656
41,673.281987365068612713057934487915728,672.0,1.281987365068612713057934487915728
42,706.486855922053596203833680234030561,705.2,1.286855922053596203833680234030561
43,740.491609285092249710981008396797652,739.2,1.291609285092249710981008396797652
44,775.296252786902127885300750425534195,774.0,1.296252786902127885300750425534195
45,810.900791397903851452684948626952796,809.6,1.300791397903851452684948626952796
46,847.305229758337444417901399789677431,846.0,1.305229758337444417901399789677431
47,884.509572206895083053972422494278245,883.2,1.309572206895083053972422494278245
48,922.513822806314246317885055229739516,921.2,1.313822806314246317885055229739516
49,961.317985366310594789471909053330406,960.0,1.317985366310594789471909053330406
50,1000.92206346417578251664769946517786,999.6,1.32206346417578251664769946517786
51,1041.32606046331993918771334007695741,1040.0,1.32606046331993918771334007695741
52,1082.52997953000021483713956297250544,1081.2,1.32997953000021483713956297250544
53,1124.53382364844432917269570083233564,1123.2,1.33382364844432917269570083233564
54,1167.33759563455050648033291849925825,1166.0,1.33759563455050648033291849925825
55,1210.94129814832170157071914695259374,1209.6,1.34129814832170157071914695259374
56,1255.34493370517194766119771372122087,1254.0,1.34493370517194766119771372122087
57,1300.54850468622545812182253923307192,1299.2,1.34850468622545812182253923307192
58,1346.55201334771431682783190704849461,1345.2,1.35201334771431682783190704849461
59,1393.35546182956783791364748555956841,1392.0,1.35546182956783791364748555956841
60,1440.95885216327565121578312635336320,1439.6,1.35885216327565121578312635336320
61,1489.36218627909700546454334575517308,1488.0,1.36218627909700546454334575517308
62,1538.56546601268048027927798451851953,1537.2,1.36546601268048027927798451851953
63,1588.56869311115105613293890258348239,1587.2,1.36869311115105613293890258348239
64,1639.37186923871517897176253842350213,1638.0,1.37186923871517897176253842350213
65,1690.97499598182892133592937451497603,1689.6,1.37499598182892133592937451497603
66,1743.37807485396949448799720991465522,1742.0,1.37807485396949448799720991465522
67,1796.58110730004610376457934813576621,1795.2,1.38110730004610376457934813576621
68,1850.58409470048238320593025518185736,1849.2,1.38409470048238320593025518185736
69,1905.38703837499933284737448181313539,1904.0,1.38703837499933284737448181313539
70,1960.98993958612475378825045288711760,1959.6,1.38993958612475378825045288711760
71,2017.39279954245257745030983226578977,2016.0,1.39279954245257745030983226578977
72,2074.59561940167318719513299029548223,2073.2,1.39561940167318719513299029548223
73,2132.59840027339377746371791683865199,2131.2,1.39840027339377746371791683865199
74,2191.40114322176597675284683477112015,2190.0,1.40114322176597675284683477112015
75,2251.00384926793632964173192580672163,2249.6,1.40384926793632964173192580672163
76,2311.40651939233378352568612883821874,2310.0,1.40651939233378352568612883821874
77,2372.60915453680702331514695488494787,2371.2,1.40915453680702331514695488494787
78,2434.61175560662333156020094199435152,2433.2,1.41175560662333156020094199435152
79,2497.41432347233960464076414082497731,2496.0,1.41432347233960464076414082497731
80,2561.01685897155521753692940505482235,2559.6,1.41685897155521753692940505482235
81,2625.41936291055558035251482377033656,2624.0,1.41936291055558035251482377033656
82,2690.62183606585446831429385419707798,2689.2,1.42183606585446831429385419707798
83,2756.62427918564251823559813597293742,2755.2,1.42427918564251823559813597293742
84,2823.42669299114866014126775477992191,2822.0,1.42669299114866014126775477992191
85,2891.02907817792069347475002898210910,2889.6,1.42907817792069347475002898210910
86,2959.43143541703070144275845069971215,2958.0,1.43143541703070144275845069971215
87,3028.63376535621053958210365756696613,3027.2,1.43376535621053958210365756696613
88,3098.63606862092221125557243685727959,3097.2,1.43606862092221125557243685727959
89,3169.43834581536755928156929828085572,3168.0,1.43834581536755928156929828085572
90,3241.04059752344135968550584715151857,3239.6,1.44059752344135968550584715151857
91,3313.44282430963158210887250185922035,3312.0,1.44282430963158210887250185922035
92,3386.64502671987029311438786144044313,3385.2,1.44502671987029311438786144044313
93,3460.64720528233841637056547019356752,3459.2,1.44720528233841637056547019356752
94,3535.44936050822732077029957171655089,3534.0,1.44936050822732077029957171655089
95,3611.05149289245998638404242185179330,3609.6,1.45149289245998638404242185179330
96,3687.45360291437429632602924264973230,3686.0,1.45360291437429632602924264973230
97,3764.65569103837081826989743307430798,3763.2,1.45569103837081826989743307430798
98,3842.65775771452726647575169771136291,3841.2,1.45775771452726647575169771136291
99,3921.45980337918168171853791464420534,3920.0,1.45980337918168171853791464420534
100,4001.06182845548622016717219714311713,3999.6,1.46182845548622016717219714311713
101,4081.46383335393331295971736126998890,4080.0,1.46383335393331295971736126998890
102,4162.66581847285583264517778612377321,4161.2,1.46581847285583264517778612377321
103,4244.66778419890279474887077085223942,4243.2,1.46778419890279474887077085223942
104,4327.46973090749201545362229538509632,4326.0,1.46973090749201545362229538509632
105,4411.07165896324105331527783265729399,4409.6,1.47165896324105331527783265729399
106,4495.47356872037767216677548498110841,4494.0,1.47356872037767216677548498110841
107,4580.67546052313098428307312848035073,4579.2,1.47546052313098428307312848035073
108,4666.67733470610435363966688699502624,4665.2,1.47733470610435363966688699502624
109,4753.47919159463107050390423627793469,4752.0,1.47919159463107050390423627793469
110,4841.08103150511374617816975154001808,4839.6,1.48103150511374617816975154001808
111,4929.48285474534831085282322907911520,4928.0,1.48285474534831085282322907911520
112,5018.68466161483344809313633148087117,5017.2,1.48466161483344809313633148087117
113,5108.68645240506624394867981124318914,5107.2,1.48645240506624394867981124318914
114,5199.48822739982477991585718972876022,5198.0,1.48822739982477991585718972876022
115,5291.08998687543835853577798856259931,5289.6,1.48998687543835853577798856259931
116,5383.49173110104600207801563741419293,5382.0,1.49173110104600207801563741419293
117,5476.69346033884383304778826807577295,5475.2,1.49346033884383304778826807577295
118,5570.69517484432190422299504533773740,5569.2,1.49517484432190422299504533773740
119,5665.49687486649101221382455469150985,5664.0,1.49687486649101221382455469150985
120,5761.09856064810000269541670771881814,5759.6,1.49856064810000269541670771881814
121,5857.50023242584403719681529188385852,5856.0,1.50023242584403719681529188385852
122,5954.70189043056427241631574446568670,5953.2,1.50189043056427241631574446568670
123,6052.70353488743937084038065367613211,6051.2,1.50353488743937084038065367613211
124,6151.50516601616924376348674118647689,6150.0,1.50516601616924376348674118647689
125,6251.10678403115139824000417919790558,6249.6,1.50678403115139824000417919790558
126,6351.50838914165024430191146115146244,6350.0,1.50838914165024430191146115146244
127,6452.70998155195969819826260208275020,6451.2,1.50998155195969819826260208275020
128,6554.71156146155939482513375146380212,6553.2,1.51156146155939482513375146380212
129,6657.51312906526481044153800804066405,6656.0,1.51312906526481044153800804066405
130,6761.11468455337157838493013439166445,6759.6,1.51468455337157838493013439166445
131,6865.51622811179426509580466887913584,6864.0,1.51622811179426509580466887913584
132,6970.71775992219985878369050744762053,6969.2,1.51775992219985878369050744762053
133,7076.71928016213621128526041811271351,7075.2,1.51928016213621128526041811271351
134,7183.52078900515566238931588608023758,7182.0,1.52078900515566238931588608023758
135,7291.12228662093405779506479150262181,7289.6,1.52228662093405779506479150262181
136,7399.52377317538536818257893006806345,7398.0,1.52377317538536818257893006806345
137,7508.72524883077210356637537414560012,7507.2,1.52524883077210356637537414560012
138,7618.72671374581170349107451320431748,7617.2,1.52671374581170349107451320431748
139,7729.52816807577908152218245364654376,7728.0,1.52816807577908152218245364654376
140,7841.12961197260548703907693906829765,7839.6,1.52961197260548703907693906829765
141,7953.53104558497384277978610265578856,7952.0,1.53104558497384277978610265578856
142,8066.73246905841070851388240250080005,8065.2,1.53246905841070851388240250080005
143,8180.73388253537501256964467176822722,8179.2,1.53388253537501256964467176822722
144,8295.53528615534368576200442981532995,8294.0,1.53528615534368576200442981532995
145,8411.13668005489432808003328478747814,8409.6,1.53668005489432808003328478747814
146,8527.53806436778503062397761486167363,8526.0,1.53806436778503062397761486167363
147,8644.73943922503146707888062747780025,8643.2,1.53943922503146707888062747780025
148,8762.74080475498137005379851959007569,8761.2,1.54080475498137005379851959007569
149,8881.54216108338649408754337094606174,8880.0,1.54216108338649408754337094606174
150,9001.14350833347216896180791819295947,8999.6,1.54350833347216896180791819295947
151,9121.54484662600453923590422513929456,9120.0,1.54484662600453923590422513929456
152,9242.74617607935558030226285487332261,9241.2,1.54617607935558030226285487332261
153,9364.74749680956597991236312893088330,9363.2,1.54749680956597991236312893088330
154,9487.54880893040596907231277900188105,9486.0,1.54880893040596907231277900188105
155,9611.15011255343418054404559887719588,9609.6,1.55011255343418054404559887719588
156,9735.55140778805461281847597510957853,9734.0,1.55140778805461281847597510957853
157,9860.75269474157177060718846859081801,9859.2,1.55269474157177060718846859081801
158,9986.75397351924405367073896527510676,9985.2,1.55397351924405367073896527510676
159,10113.5552442243354576563753440411346,10112.0,1.5552442243354576563753440411346
160,10241.1565069581656532826903458514557,10239.6,1.5565069581656532826903458514557
161,10369.5577618201585023673003294830523,10368.0,1.5577618201585023673003294830523
162,10498.7590089078890701586241760704967,10497.2,1.5590089078890701586241760704967
163,10628.7602483171291888250343580823633,10627.2,1.5602483171291888250343580823633
164,10759.5614801418916267379483574287299,10758.0,1.5614801418916267379483574287299
165,10891.1627044744729121490508509978797,10889.6,1.5627044744729121490508509978797
166,11023.5639214054948617772081937231399,11022.0,1.5639214054948617772081937231399
167,11156.7651310239448615373678565993363,11155.2,1.5651310239448615373678565993363
168,11290.7663334172149421003292824133344,11289.2,1.5663334172149421003292824133344
169,11425.5675286711396943454495728850230,11424.0,1.5675286711396943454495728850230
170,11561.1687168700330644493731817774888,11559.6,1.5687168700330644493731817774888
171,11697.5698980967240688052189793885899,11696.0,1.5698980967240688052189793885899
172,11834.7710724325914666388561277830746,11833.2,1.5710724325914666388561277830746
173,11972.7722399575974257245722983641319,11971.2,1.5722399575974257245722983641319
174,12111.5734007503202170436216234467188,12110.0,1.5734007503202170436216234467188
175,12251.1745548879859723705584720023011,12249.6,1.5745548879859723705584720023011
176,12391.5757024464995344936828922269613,12390.0,1.5757024464995344936828922269613
177,12532.7768435004744333301086101214828,12531.2,1.5768435004744333301086101214828
178,12674.7779781232620170898228043116118,12673.2,1.5779781232620170898228043116118
179,12817.5791063869797649336568133212307,12816.0,1.5791063869797649336568133212307
180,12961.1802283625388120715398047216892,12959.6,1.5802283625388120715398047216892
181,13105.5813441196707099495948971558317,13104.0,1.5813441196707099495948971558317
182,13250.7824537269534492214362880914863,13249.2,1.5824537269534492214362880914863
183,13396.7835572518367685529145602838477,13395.2,1.5835572518367685529145602838477
184,13543.5846547606667735018194709105913,13542.0,1.5846547606667735018194709105913
185,13691.1857463187098872806367549569674,13689.6,1.5857463187098872806367549569674
186,13839.5868319901761543709512256035430,13838.0,1.5868319901761543709512256035430
187,13988.7879118382419207899669132265499,13987.2,1.5879118382419207899669132265499
188,14138.7889859250719064454315296879025,14137.2,1.5889859250719064454315296879025
189,14289.5900543118406933100258270672920,14288.0,1.5900543118406933100258270672920
190,14441.1911170587536450662654591269650,14439.6,1.5911170587536450662654591269650
191,14593.5921742250672774444365666443857,14592.0,1.5921742250672774444365666443857
192,14746.7932258691090956357370363991800,14745.2,1.5932258691090956357370363991800
193,14900.7942720482969170844396010566634,14899.2,1.5942720482969170844396010566634
194,15055.5953128191576929998271923484283,15054.0,1.5953128191576929998271923484283
195,15211.1963482373458465202263825213250,15209.6,1.5963482373458465202263825213250
196,15367.5973783576611412210056622071562,15366.0,1.5973783576611412210056622071562
197,15524.7984032340660943418256473219690,15523.2,1.5984032340660943418256473219690
198,15682.7994229197029488950863992695947,15681.2,1.5994229197029488950863992695947
199,15841.6004374669102174893914693329947,15840.0,1.6004374669102174893914693329947
200,16001.2014469272388118081936990268167,15999.6,1.6014469272388118081936990268167
201,16161.6024513514677687200055896126736,16160.0,1.6024513514677687200055896126736
202,16322.8034507896195863962901510433230,16321.2,1.6034507896195863962901510433230
203,16484.8044452909751810917179706305836,16483.2,1.6044452909751810917179706305836
204,16647.6054349040884762016567713906859,16646.0,1.6054349040884762016567713906859
205,16811.2064196768006335622095087109815,16809.6,1.6064196768006335622095087109815
206,16975.6073996562539400115024787864852,16974.0,1.6073996562539400115024787864852
207,17140.8083748889053550828532961333914,17139.2,1.6083748889053550828532961333914
208,17306.8093454205397340512279305295785,17305.2,1.6093454205397340512279305295785
209,17473.6103112962827320758189256897220,17472.0,1.6103112962827320758189256897220
210,17641.2112725606134009343483415775137,17639.6,1.6112725606134009343483415775137
211,17809.6122292573764857080566322550278,17808.0,1.6122292573764857080566322550278
212,17978.8131814297944316445039985982291,17977.2,1.6131814297944316445039985982291
213,18148.8141291204791055760774266743408,18147.2,1.6141291204791055760774266743408
214,18319.6150723714432468698911151767431,18318.0,1.6150723714432468698911151767431
215,18491.2160112241116471153103624149430,18489.6,1.6160112241116471153103624149430
216,18663.6169457193320725035541050468907,18662.0,1.6169457193320725035541050468907
217,18836.8178758973859328584165683919859,18835.2,1.6178758973859328584165683919859
218,19010.8188017979987062905559308398528,19009.2,1.6188017979987062905559308398528
219,19185.6197234603501227482840329580249,19184.0,1.6197234603501227482840329580249
220,19361.2206409230841189729828810856354,19359.6,1.6206409230841189729828810856354
221,19537.6215542243185627614356669696513,19536.0,1.6215542243185627614356669696513
222,19714.8224634016547637324357245567314,19713.2,1.6224634016547637324357245567314
223,19892.8233684921867641585023999150444,19891.2,1.6233684921867641585023999150444
224,20071.6242695325104249219998226275537,20070.0,1.6242695325104249219998226275537
225,20251.2251665587323091521990412195261,20249.6,1.6251665587323091521990412195261
226,20431.6260596064783670812218203549719,20430.0,1.6260596064783670812218203549719
227,20612.8269487109024307617105506554630,20611.2,1.6269487109024307617105506554630
228,20794.8278339066945204564211486018203,20793.2,1.6278339066945204564211486018203
229,20977.6287152280889698518803392221088,20976.0,1.6287152280889698518803392221088
230,21161.2295927088723747823409734863053,21159.6,1.6295927088723747823409734863053
231,21345.6304663823913672532963834278827,21344.0,1.6304663823913672532963834278827
232,21530.8313362815602251734636141359575,21529.2,1.6313362815602251734636141359575
233,21716.8322024388683127807302732461119,21715.2,1.6322024388683127807302732461119
234,21903.6330648863873679081204127929095,21902.0,1.6330648863873679081204127929095
235,22091.2339236557786292608687610457143,22089.6,1.6339236557786292608687610457143
236,22279.6347787782998134033615003802001,22278.0,1.6347787782998134033615003802001
237,22468.8356302848119450760594786547766,22467.2,1.6356302848119450760594786547766
238,22658.8364782057860425734042395124669,22657.2,1.6364782057860425734042395124669
