Eigenstate,Energy,Kinetic Energy,Potential Energy
1,0.500000000166548255504246150696649912,0.0,0.500000000166548255504246150696649912
2,1.84623093873826090703232729669366364,1.2,0.64623093873826090703232729669366364
3,3.93633761289840765782023008982857548,3.2,0.73633761289840765782023008982857548
4,6.79966528446587176510237411215347026,6.0,0.79966528446587176510237411215347026
5,10.4480465868078490687037570610979939,9.6,0.8480465868078490687037570610979939
6,14.8870660147001075690650616992504253,14.0,0.8870660147001075690650616992504253
7,20.1197208495908033518627738185874038,19.2,0.9197208495908033518627738185874038
8,26.1477838778622515687814132085518047,25.2,0.9477838778622515687814132085518047
9,32.9723835985239682204322972588232744,32.0,0.9723835985239682204322972588232744
10,40.5942802657266919169178626895502571,39.6,0.9942802657266919169178626895502571
11,49.0140094496130585815809780719806617,48.0,1.0140094496130585815809780719806617
12,58.2319622454889805511074394794316932,57.2,1.0319622454889805511074394794316932
13,68.2484327834213731166891015743585836,67.2,1.0484327834213731166891015743585836
14,79.0636477610943936171728315578970599,78.0,1.0636477610943936171728315578970599
15,90.6777855596236731377110170927172270,89.6,1.0777855596236731377110170927172270
16,103.090989048426791068834310310598798,102.0,1.090989048426791068834310310598798
17,116.303374418684798747825466177651879,115.2,1.103374418684798747825466177651879
18,130.315037434348431977634697339833712,129.2,1.115037434348431977634697339833712
19,145.126057955242097727303280911305921,144.0,1.126057955242097727303280911305921
20,160.736503274697817049284331359621308,159.6,1.136503274697817049284331359621308
21,177.146430625636926974817143608281639,176.0,1.146430625636926974817143608281639
22,194.355889091728824152978960142896188,193.2,1.155889091728824152978960142896188
23,212.364921085327492160831428428560564,211.2,1.164921085327492160831428428560564
24,231.173563504871925709473117643780690,230.0,1.173563504871925709473117643780690
25,250.781848651682058641378248080000873,249.6,1.181848651682058641378248080000873
26,271.189804963766352962205328080039389,270.0,1.189804963766352962205328080039389
27,292.397457608784375715748909782139318,291.2,1.197457608784375715748909782139318
28,314.404828967405839678893965739351323,313.2,1.204828967405839678893965739351323
29,337.211939030512556016220741515988712,336.0,1.211939030512556016220741515988712
30,360.818805728040259453571119155257756,359.6,1.218805728040259453571119155257756
31,385.225445203111328021942484496960518,384.0,1.225445203111328021942484496960518
32,410.431872042031519832674547633571296,409.2,1.231872042031519832674547633571296
33,436.438099468414201536624955842544084,435.2,1.238099468414201536624955842544084
34,463.244139507944996850824772776783574,462.0,1.244139507944996850824772776783574
35,490.850003128960588468141183436102159,489.6,1.250003128960588468141183436102159
36,519.255700362981927785229253888628748,518.0,1.255700362981927785229253888628748
37,548.461240408538022334256656840992175,547.2,1.261240408538022334256656840992175
38,578.466631720986052059766156710008253,577.2,1.266631720986052059766156710008253
39,609.271882090535716931770408382984880,608.0,1.271882090535716931770408382984880
40,640.876998710289897602044328464596910,639.6,1.276998710289897602044328464596910
41,673.281988235796960536402518907375515,672.0,1.281988235796960536402518907375515
42,706.486856837355046453884356890381467,705.2,1.286856837355046453884356890381467
43,740.491610246102194558568175897851905,739.2,1.291610246102194558568175897851905
44,775.296253794758061034004571303894140,774.0,1.296253794758061034004571303894140
45,810.900792453745420701080299682600005,809.6,1.300792453745420701080299682600005
46,847.305230863306504457384352342884104,846.0,1.305230863306504457384352342884104
47,884.509573362135748503697453158227360,883.2,1.309573362135748503697453158227360
48,922.513824012972944998882240814591942,921.2,1.313824012972944998882240814591942
49,961.317986625536121240475664020103606,960.0,1.317986625536121240475664020103606
50,1000.92206477711935175456710761036281,999.6,1.32206477711935175456710761036281
51,1041.32606183113524071602015934192672,1040.0,1.32606183113524071602015934192672
52,1082.52998095384346690575180745425586,1081.2,1.32998095384346690575180745425586
53,1124.53382512947433329320008006671371,1123.2,1.33382512947433329320008006671371
54,1167.33759717392870220062448751648745,1166.0,1.33759717392870220062448751648745
55,1210.94129974721222151334580275905529,1209.6,1.34129974721222151334580275905529
56,1255.34493536474167282988506352531023,1254.0,1.34493536474167282988506352531023
57,1300.54850640764407348082429808761787,1299.2,1.34850640764407348082429808761787
58,1346.55201513215436715890611454441954,1345.2,1.35201513215436715890611454441954
59,1393.35546367820478395559991000929946,1392.0,1.35546367820478395559991000929946
60,1440.95885407728792609165054979966370,1439.6,1.35885407728792609165054979966370
61,1489.36218825966607140161101004114749,1488.0,1.36218825966607140161101004114749
62,1538.56546806099088562723965264446501,1537.2,1.36546806099088562723965264446501
63,1588.56869522839049268561529865891954,1587.2,1.36869522839049268561529865891954
64,1639.37187142607453959789586199319945,1638.0,1.37187142607453959789586199319945
65,1690.97499824050235792466935237276946,1689.6,1.37499824050235792466935237276946
66,1743.37807718515447621478729259584272,1742.0,1.37807718515447621478729259584272
67,1796.58110970494347568324218033971017,1795.2,1.38110970494347568324218033971017
68,1850.58409718029642517283916599977334,1849.2,1.38409718029642517283916599977334
69,1905.38704093093781878368364157734675,1904.0,1.38704093093781878368364157734675
70,1960.98994221939901128623946059122092,1959.6,1.38994221939901128623946059122092
71,2017.39280225427754772998187403929502,2016.0,1.39280225427754772998187403929502
72,2074.59562219326748541728624570731673,2073.2,1.39562219326748541728624570731673
73,2132.59840314597975340579136150243908,2131.2,1.39840314597975340579136150243908
74,2191.40114617656977585392106115976421,2190.0,1.40114617656977585392106115976421
75,2251.00385230618795442314630823189834,2249.6,1.40385230618795442314630823189834
76,2311.40652251526715539381252768722315,2310.0,1.40652251526715539381252768722315
77,2372.60915774566004475294073890919641,2371.2,1.40915774566004475294073890919641
78,2434.61175890263794871422998830023628,2433.2,1.41175890263794871422998830023628
79,2497.41432685676187031049718736029672,2496.0,1.41432685676187031049718736029672
80,2561.01686244563535457314566513658282,2559.6,1.41686244563535457314566513658282
81,2625.41936647554804547177905631886117,2624.0,1.41936647554804547177905631886117
82,2690.62183972301801633652294153466419,2689.2,1.42183972301801633652294153466419
83,2756.62428293624026675182871998534086,2755.2,1.42428293624026675182871998534086
84,2823.42669683644815461881840335079327,2822.0,1.42669683644815461881840335079327
85,2891.02908211919397280705663795885231,2889.6,1.42908211919397280705663795885231
86,2959.43143945555436395124752012627475,2958.0,1.43143945555436395124752012627475
87,3028.63376949326580947755572809998645,3027.2,1.43376949326580947755572809998645
88,3098.63607285779500556651615384609994,3097.2,1.43607285779500556651615384609994
89,3169.43835015334855525733630641509928,3168.0,1.43835015334855525733630641509928
90,3241.04060196382606268166795304967670,3239.6,1.44060196382606268166795304967670
91,3313.44282885372039396287498698406337,3312.0,1.44282885372039396287498698406337
92,3386.64503136896858101928642156107213,3385.2,1.44503136896858101928642156107213
93,3460.64721003775658225487000309094247,3459.2,1.44721003775658225487000309094247
94,3535.44936537128087119202451971185743,3534.0,1.44936537128087119202451971185743
95,3611.05149786446960294716214749160713,3609.6,1.45149786446960294716214749160713
96,3687.45360799666590662763657675676676,3686.0,1.45360799666590662763657675676676
97,3764.65569623227566738646598422890254,3763.2,1.45569623227566738646598422890254
98,3842.65776302138198899700486975307609,3841.2,1.45776302138198899700486975307609
99,3921.45980880032837433753405458121949,3920.0,1.45980880032837433753405458121949
100,4001.06183399227251483532121912497621,3999.6,1.46183399227251483532121912497621
101,4081.46383900771245061555375460056453,4080.0,1.46383900771245061555375460056453
102,4162.66582424498673752582524246818304,4161.2,1.46582424498673752582524246818304
103,4244.66779009075014929324627511050592,4243.2,1.46779009075014929324627511050592
104,4327.46973692042633580654289897707038,4326.0,1.46973692042633580654289897707038
105,4411.07166509863876544174889983109359,4409.6,1.47166509863876544174889983109359
106,4495.47357497962118858585866082264287,4494.0,1.47357497962118858585866082264287
107,4580.67546690760878143085293327087749,4579.2,1.47546690760878143085293327087749
108,4666.67734121721104987095746872508421,4665.2,1.47734121721104987095746872508421
109,4753.47919823376750474246353614286385,4752.0,1.47919823376750474246353614286385
110,4841.08103827368705722531516868229155,4839.6,1.48103827368705722531516868229155
111,4929.48286164477201736447265834713794,4928.0,1.48286164477201736447265834713794
112,5018.68466864652752923543085484468509,5017.2,1.48466864652752923543085484468509
113,5108.68645957045722074247786250118477,5107.2,1.48645957045722074247786250118477
114,5199.48823470034579728052744379435567,5198.0,1.48823470034579728052744379435567
115,5291.08999431252926804285720356480671,5289.6,1.48999431252926804285720356480671
116,5383.49173867615344542543947379420164,5382.0,1.49173867615344542543947379420164
117,5476.69346805342132626554700672592938,5475.2,1.49346805342132626554700672592938
118,5570.69518269982992262121381012786848,5569.2,1.49518269982992262121381012786848
119,5665.49688286439707608441633179239043,5664.0,1.49688286439707608441633179239043
120,5761.09856878987876377860922513476719,5759.6,1.49856878987876377860922513476719
121,5857.50024071297736592400795857891159,5856.0,1.50024071297736592400795857891159
122,5954.70189886454134594088024212705036,5953.2,1.50189886454134594088024212705036
123,6052.70354346975676186817994152009561,6051.2,1.50354346975676186817994152009561
124,6151.50517474833101019505017669473022,6150.0,1.50517474833101019505017669473022
125,6251.10679291466917363646415731339390,6249.6,1.50679291466917363646415731339390
126,6351.50839817804332918697577411322746,6350.0,1.50839817804332918697577411322746
127,6452.70999074275515220866954832276792,6451.2,1.50999074275515220866954832276792
128,6554.71157080829212972221353219580081,6553.2,1.51157080829212972221353219580081
129,6657.51313856947768399668248228656717,6656.0,1.51313856947768399668248228656717
130,6761.11469421661548915195542062264019,6759.6,1.51469421661548915195542062264019
131,6865.51623793562824808337741128469322,6864.0,1.51623793562824808337741128469322
132,6970.71776990819118204117757044087076,6969.2,1.51776990819118204117757044087076
133,7076.71929031186047341555354822804311,7075.2,1.51929031186047341555354822804311
134,7183.52079932019689100238079201351217,7182.0,1.52079932019689100238079201351217
135,7291.12229710288480891616245399919323,7289.6,1.52229710288480891616245399919323
136,7399.52378382584682662931087200218838,7398.0,1.52378382584682662931087200218838
137,7508.72525965135418430891224961387140,7507.2,1.52525965135418430891224961387140
138,7618.72672473813315401013816109488896,7617.2,1.52672473813315401013816109488896
139,7729.52817924146758517956634798144148,7728.0,1.52817924146758517956634798144148
140,7841.12962331329776747570975879712755,7839.6,1.52962331329776747570975879712755
141,7953.53105710231576935656490300857910,7952.0,1.53105710231576935656490300857910
142,8066.73248075405740281073028132618702,8065.2,1.53248075405740281073028132618702
143,8180.73389441099095595847877464941307,8179.2,1.53389441099095595847877464941307
144,8295.53529821260282806953594091935740,8294.0,1.53529821260282806953594091935740
145,8411.13669229548019735656065472953759,8409.6,1.53669229548019735656065472953759
146,8527.53807679339084403458011956822147,8526.0,1.53807679339084403458011956822147
147,8644.73945183736024293366744425507990,8643.2,1.53945183736024293366744425507990
148,8762.74081755574604099412258736810607,8761.2,1.54081755574604099412258736810607
149,8881.54217407431002144534879962953620,8880.0,1.54217407431002144534879962953620
150,9001.14352151628765830954184527083416,8999.6,1.54352151628765830954184527083416
151,9121.54486000245535714469375750417877,9120.0,1.54486000245535714469375750417877
152,9242.74618965119547232633023609137753,9241.2,1.54618965119547232633023609137753
153,9364.74751057855918981793206220037702,9363.2,1.54751057855918981793206220037702
154,9487.54882289832735932954174529477601,9486.0,1.54882289832735932954174529477601
155,9611.15012672206935410081398957537660,9609.6,1.55012672206935410081398957537660
156,9735.55142215920003617514357478551159,9734.0,1.55142215920003617514357478551159
157,9860.75270931703489821174933512250210,9859.2,1.55270931703489821174933512250210
158,9986.75398830084345365409684165484659,9985.2,1.55398830084345365409684165484659
159,10113.5552592139009389277795314377496,10112.0,1.5552592139009389277795314377496
160,10241.1565221575383940056896559351163,10239.6,1.5565221575383940056896559351163
161,10369.5577772311911798368959963355766,10368.0,1.5577772311911798368959963355766
162,10498.7590245324459921006336152625169,10497.2,1.5590245324459921006336152625169
163,10628.7602641570864261390134184197183,10627.2,1.5602641570864261390134184197183
164,10759.5614961991371477053635664814378,10758.0,1.5614961991371477053635664814378
165,10891.1627207509067181287432503345595,10889.6,1.5627207509067181287432503345595
166,11023.5639379030291244105458007501508,11022.0,1.5639379030291244105458007501508
167,11156.7651477445040614858471733569696,11155.2,1.5651477445040614858471733569696
168,11290.7663503627360093387583023809406,11289.2,1.5663503627360093387583023809406
169,11425.5675458435721500342203141480670,11424.0,1.5675458435721500342203141480670
170,11561.1687342713391644097185851710530,11559.6,1.5687342713391644097185851710530
171,11697.5699157288789486217400819508152,11696.0,1.5699157288789486217400819508152
172,11834.7710902975832884140067741960419,11833.2,1.5710902975832884140067741960419
173,11972.7722580574275265101951925005288,11971.2,1.5722580574275265101951925005288
174,12111.5734190870032589750476758823975,12110.0,1.5734190870032589750476758823975
175,12251.1745734635500945292035696059699,12249.6,1.5745734635500945292035696059699
176,12391.5757212629865065245102574576527,12390.0,1.5757212629865065245102574576527
177,12532.7768625599398108407649834733626,12531.2,1.5768625599398108407649834733626
178,12674.7779974277752988587071361968503,12673.2,1.5779974277752988587071361968503
179,12817.5791259386245519546387461350551,12816.0,1.5791259386245519546387461350551
180,12961.1802481634129684635136498183348,12959.6,1.5802481634129684635136498183348
181,13105.5813641718865257595309428636411,13104.0,1.5813641718865257595309428636411
182,13250.7824740326378051500787927373537,13249.2,1.5824740326378051500787927373537
183,13396.7835778131313026327721646630411,13395.2,1.5835778131313026327721646630411
184,13543.5846755797280497576000911979253,13542.0,1.5846755797280497576000911979253
185,13691.1857673977095664027963178953533,13689.6,1.5857673977095664027963178953533
186,13839.5868533313011664335506674807684,13838.0,1.5868533313011664335506674807684
187,13988.7879334436946400445721854255365,13987.2,1.5879334436946400445721854255365
188,14138.7890077970703282233375645017206,14137.2,1.5890077970703282233375645017206
189,14289.5900764526186130656469358420562,14288.0,1.5900764526186130656469358420562
190,14441.1911394705608395951039361256192,14439.6,1.5911394705608395951039361256192
191,14593.5921969101696883096254365633325,14592.0,1.5921969101696883096254365633325
192,14746.7932488297890148377466008065093,14745.2,1.5932488297890148377466008065093
193,14900.7942952868531750091444320510050,14899.2,1.5942952868531750091444320510050
194,15055.5953363379058486807491588593318,15054.0,1.5953363379058486807491588593318
195,15211.1963720386183802514017769071765,15209.6,1.5963720386183802514017769071765
196,15367.5974024438076495575685380958219,15366.0,1.5974024438076495575685380958219
197,15524.7984276074534875260587132192907,15523.2,1.5984276074534875260587132192907
198,15682.7994475827156507463616858823983,15681.2,1.5994475827156507463616858823983
199,15841.6004624219503677971101463659807,15840.0,1.6004624219503677971101463659807
200,16001.2014721767264712675332425333314,15999.6,1.6014721767264712675332425333314
201,16161.6024768978411264509969348283045,16160.0,1.6024768978411264509969348283045
202,16322.8034766353351700874798961243971,16321.2,1.6034766353351700874798961243971
203,16484.8044714385080698104118045344065,16483.2,1.6044714385080698104118045344065
204,16647.6054613559325159135038227065747,16646.0,1.6054613559325159135038227065747
205,16811.2064464354686554036619999782993,16809.6,1.6064464354686554036619999782993
206,16975.6074267242779813594800030321232,16974.0,1.6074267242779813594800030321232
207,17140.8084022688368834667491784885492,17139.2,1.6084022688368834667491784885492
208,17306.8093731149498739532227466670530,17305.2,1.6093731149498739532227466670530
209,17473.6103393077624946663118497941194,17472.0,1.6103393077624946663118497941194
210,17641.2113008917739167901778063291754,17639.6,1.6113008917739167901778063291754
211,17809.6122579108492405620642776251307,17808.0,1.6122579108492405620642776251307
212,17978.8132104082315052158946884322054,17977.2,1.6132104082315052158946884322054
213,18148.8141584265534135319493900706338,18147.2,1.6141584265534135319493900706338
214,18319.6151020078487859692473094784050,18318.0,1.6151020078487859692473094784050
215,18491.2160411935637435878224499969513,18489.6,1.6160411935637435878224499969513
216,18663.6169760245676337163315357616329,18662.0,1.6169760245676337163315357616329
217,18836.8179065411637023250332576678253,18835.2,1.6179065411637023250332576678253
218,19010.8188327830995220776107848557387,19009.2,1.6188327830995220776107848557387
219,19185.6197547895771793358190758349993,19184.0,1.6197547895771793358190758349993
220,19361.2206725992632326261481706295929,19359.6,1.6206725992632326261481706295929
221,19537.6215862502984404718850510087327,19536.0,1.6215862502984404718850510087327
222,19714.8224957803072757890524797340497,19713.2,1.6224957803072757890524797340497
223,19892.8234012264072204081939802777515,19891.2,1.6234012264072204081939802777515
224,20071.6243026252178547824679303849263,20070.0,1.6243026252178547824679303849263
225,20251.2252000128697454397830748223309,20249.6,1.6252000128697454397830748223309
226,20431.6260934250131337181321521799973,20430.0,1.6260934250131337181321521799973
227,20612.8269828968264344282120906059813,20611.2,1.6269828968264344282120906059813
228,20794.8278684630245462548042621918904,20793.2,1.6278684630245462548042621918904
229,20977.6287501578669810503553831765834,20976.0,1.6287501578669810503553831765834
230,21161.2296280151658167083256357795295,21159.6,1.6296280151658167083256357795295
231,21345.6305020682934754069260103034128,21344.0,1.6305020682934754069260103034128
232,21530.8313723501903376335474377424278,21529.2,1.6313723501903376335474377424278
233,21716.8322388933721869767991176164856,21715.2,1.6322388933721869767991176164856
234,21903.6331017299375018336693401204466,21902.0,1.6331017299375018336693401204466
235,22091.2339608915745872043861616507758,22089.6,1.6339608915745872043861616507758
236,22279.6348164095685562752600657206652,22278.0,1.6348164095685562752600657206652
237,22468.8356683148081654111841978818076,22467.2,1.6356683148081654111841978818076
238,22658.8365166377925042903853345183014,22657.2,1.6365166377925042903853345183014
