Eigenstate,Energy,Kinetic Energy,Potential Energy
1,0.500000000038535115053749402387549386,0.0,0.500000000038535115053749402387549386
2,1.84623093790265174864936606581212707,1.2,0.64623093790265174864936606581212707
3,3.93633761044384540482224632020381798,3.2,0.73633761044384540482224632020381798
4,6.79966527935321960220910440743270221,6.0,0.79966527935321960220910440743270221
5,10.4480465779515143326817727802676949,9.6,0.8480465779515143326817727802676949
6,14.8870660009953875096851823409299045,14.0,0.8870660009953875096851823409299045
7,20.1197208299239441259060879083628014,19.2,0.9197208299239441259060879083628014
8,26.1477838511146278732735274838665620,25.2,0.9477838511146278732735274838665620
9,32.9723835635740126879608837030981496,32.0,0.9723835635740126879608837030981496
10,40.5942802214508613355459275531069830,39.6,0.9942802214508613355459275531069830
11,49.0140093948863466758967432820310203,48.0,1.0140093948863466758967432820310203
12,58.2319621791851996778244510158809580,57.2,1.0319621791851996778244510158809580
13,68.2484327044133101363847806304111992,67.2,1.0484327044133101363847806304111992
14,79.0636476682538933338572120948846893,78.0,1.0636476682538933338572120948846893
15,90.6777854518216780208071195604750011,89.6,1.0777854518216780208071195604750011
16,103.090988924533353492991879008653150,102.0,1.090988924533353492991879008653150
17,116.303374277569075334715960351179264,115.2,1.103374277569075334715960351179264
18,130.315037274878665913404361127690949,129.2,1.115037274878665913404361127690949
19,145.126057776285592775268358030506553,144.0,1.126057776285592775268358030506553
20,160.736503075120905682244233359707718,159.6,1.136503075120905682244233359707718
21,177.146430404304934247982989057563608,176.0,1.146430404304934247982989057563608
22,194.355888847506028426193933065921321,193.2,1.155888847506028426193933065921321
23,212.364920817077083443824546435909254,211.2,1.164920817077083443824546435909254
24,231.173563211455962179960339191907849,230.0,1.173563211455962179960339191907849
25,250.781848331961421733045279839124821,249.6,1.181848331961421733045279839124821
26,271.189804616600701313428853856830838,270.0,1.189804616600701313428853856830838
27,292.397457233032098194868715852052372,291.2,1.197457233032098194868715852052372
28,314.404828561924007647983511486853184,313.2,1.204828561924007647983511486853184
29,337.211938594156874956087789549210281,336.0,1.211938594156874956087789549210281
30,360.818805259665020043792458297937369,359.6,1.218805259665020043792458297937369
31,385.225444701569356748137637665616134,384.0,1.225444701569356748137637665616134
32,410.431871506174129176913278141223385,409.2,1.231871506174129176913278141223385
33,436.438098897091139794416872490251890,435.2,1.238098897091139794416872490251890
34,463.244138900004397608547391977960935,462.0,1.244138900004397608547391977960935
35,490.850002483248919767302143697403310,489.6,1.250002483248919767302143697403310
36,519.255699678343940994104953250154289,518.0,1.255699678343940994104953250154289
37,548.461239683816700742818896377484809,547.2,1.261239683816700742818896377484809
38,578.466630955022559210116826383488880,577.2,1.266630955022559210116826383488880
39,609.271881282169344693339012452480761,608.0,1.271881282169344693339012452480761
40,640.876997858358013998404559179316505,639.6,1.276997858358013998404559179316505
41,673.281987339134957328610497142233048,672.0,1.281987339134957328610497142233048
42,706.486855894796286483639384495671123,705.2,1.286855894796286483639384495671123
43,740.491609256477958853175018161487167,739.2,1.291609256477958853175018161487167
44,775.296252756897495674018901985927934,774.0,1.296252756897495674018901985927934
45,810.900791366475483450601754462143570,809.6,1.300791366475483450601754462143570
46,847.305229725451911156190561527262153,846.0,1.305229725451911156190561527262153
47,884.509572172518919219760526172294624,883.2,1.309572172518919219760526172294624
48,922.513822770413949939253927419342072,921.2,1.313822770413949939253927419342072
49,961.317985328852626418052263528323195,960.0,1.317985328852626418052263528323195
50,1000.92206342512656440783577270279613,999.6,1.32206342512656440783577270279613
51,1041.32606042264585447853288539630228,1040.0,1.32606042264585447853288539630228
52,1082.52997948766760672176359070810939,1081.2,1.32997948766760672176359070810939
53,1124.53382360441950007563547900944765,1123.2,1.33382360441950007563547900944765
54,1167.33759558879971722729581059204802,1166.0,1.33759558879971722729581059204802
55,1210.94129810081117055713171542071253,1209.6,1.34129810081117055713171542071253
56,1255.34493365586785001838604406466817,1254.0,1.34493365586785001838604406466817
57,1300.54850463509392488083783119525908,1299.2,1.34850463509392488083783119525908
58,1346.55201329472143408090595085044278,1345.2,1.35201329472143408090595085044278
59,1393.35546177467964597325961036113825,1392.0,1.35546177467964597325961036113825
60,1440.95885210645814377131757411207060,1439.6,1.35885210645814377131757411207060
61,1489.36218622031612873651362128365819,1488.0,1.36218622031612873651362128365819
62,1538.56546595190213217109266495123255,1537.2,1.36546595190213217109266495123255
63,1588.56869304834108538018149059502753,1587.2,1.36869304834108538018149059502753
64,1639.37186917383938428895626842632832,1638.0,1.37186917383938428895626842632832
65,1690.97499591485305056075636181569381,1689.6,1.37499591485305056075636181569381
66,1743.37807478485924372293995960045376,1742.0,1.37807478485924372293995960045376
67,1796.58110722876711651595139773321700,1795.2,1.38110722876711651595139773321700
68,1850.58409462700024952026159227298239,1849.2,1.38409462700024952026159227298239
69,1905.38703829927958844511634076625403,1904.0,1.38703829927958844511634076625403
70,1960.98993950813287919476313895885795,1959.6,1.38993950813287919476313895885795
71,2017.39279946215399712409633111492131,2016.0,1.39279946215399712409633111492131
72,2074.59561931903326865328034178587424,2073.2,1.39561931903326865328034178587424
73,2132.59840018837783040450752054163213,2131.2,1.39840018837783040450752054163213
74,2191.40114313433925217549418576184884,2190.0,1.40114313433925217549418576184884
75,2251.00384917806401896321558932920255,2249.6,1.40384917806401896321558932920255
76,2311.40651929998101769462515430926039,2310.0,1.40651929998101769462515430926039
77,2372.60915444193887192268531498232655,2371.2,1.40915444193887192268531498232655
78,2434.61175550920480194785703418374432,2433.2,1.41175550920480194785703418374432
79,2497.41432337233564100520283277872918,2496.0,1.41432337233564100520283277872918
80,2561.01685886893070003161361240721753,2559.6,1.41685886893070003161361240721753
81,2625.41936280527532418619308119108500,2624.0,1.41936280527532418619308119108500
82,2690.62183595788322284627988504244614,2689.2,1.42183595788322284627988504244614
83,2756.62427907494496606779795841526389,2755.2,1.42427907494496606779795841526389
84,2823.42669287768941620690939589823326,2822.0,1.42669287768941620690939589823326
85,2891.02907806166430412377050008093890,2889.6,1.42907806166430412377050008093890
86,2959.43143529794164352380218475691656,2958.0,1.43143529794164352380218475691656
87,3028.63376523425321952108621072995275,3027.2,1.43376523425321952108621072995275
88,3098.63606849606096413076281786276466,3097.2,1.43606849606096413076281786276466
89,3169.43834568756664789514390533246882,3168.0,1.43834568756664789514390533246882
90,3241.04059739266497363152657337427308,3239.6,1.44059739266497363152657337427308
91,3313.44282417584383683764116594284995,3312.0,1.44282417584383683764116594284995
92,3386.64502658303522899312874376371184,3385.2,1.44502658303522899312874376371184
93,3460.64720514241999774038733305609622,3459.2,1.44720514241999774038733305609622
94,3535.44936036518943499938813375997234,3534.0,1.44936036518943499938813375997234
95,3611.05149274626644291703389491095181,3609.6,1.45149274626644291703389491095181
96,3687.45360276498882572951513247903405,3686.0,1.45360276498882572951513247903405
97,3764.65569088575707127401041733182387,3763.2,1.45569088575707127401041733182387
98,3842.65775755864881301178201812712811,3841.2,1.45775755864881301178201812712811
99,3921.45980322000200995252930526495234,3920.0,1.45980322000200995252930526495234
100,4001.06182829296873552944600364714269,3999.6,1.46182829296873552944600364714269
101,4081.46383318804133717027310130202607,4080.0,1.46383318804133717027310130202607
102,4162.66581830355260273491801328530836,4161.2,1.46581830355260273491801328530836
103,4244.66778402615146207659770337269242,4243.2,1.46778402615146207659770337269242
104,4327.46973073125564471875326966811504,4326.0,1.46973073125564471875326966811504
105,4411.07165878348262156622624980720661,4409.6,1.47165878348262156622624980720661
106,4495.47356853706006780494349472690929,4494.0,1.47356853706006780494349472690929
107,4580.67546033621700606240192503925475,4579.2,1.47546033621700606240192503925475
108,4666.67733451555670966169003250380093,4665.2,1.47733451555670966169003250380093
109,4753.47919140041237720824905288721421,4752.0,1.47919140041237720824905288721421
110,4841.08103130718652732845138544358994,4839.6,1.48103130718652732845138544358994
111,4929.48285454367499651787557886339141,4928.0,1.48285454367499651787557886339141
112,5018.68466140937637362352359021285953,5017.2,1.48466140937637362352359021285953
113,5108.68645219578764894843197090716083,5107.2,1.48645219578764894843197090716083
114,5199.48822718668680720937237185307877,5198.0,1.48822718668680720937237185307877
115,5291.08998665840305312983411329066615,5289.6,1.48998665840305312983411329066615
116,5383.49173088007531011883340216678685,5382.0,1.49173088007531011883340216678685
117,5476.69346011389960077308700246718132,5475.2,1.49346011389960077308700246718132
118,5570.69517461536587690898259035866737,5569.2,1.49517461536587690898259035866737
119,5665.49687463348483311706180280141317,5664.0,1.49687463348483311706180280141317
120,5761.09856041100521198949698195729219,5759.6,1.49856041100521198949698195729219
121,5857.50023218462207090379831722229813,5856.0,1.50023218462207090379831722229813
122,5954.70189018517646133285544920209531,5953.2,1.50189018517646133285544920209531
123,6052.70353463784693945848556570165230,6051.2,1.50353463784693945848556570165230
124,6151.50516576233330918585127918489148,6150.0,1.50516576233330918585127918489148
125,6251.10678377303296908984863342133922,6249.6,1.50678377303296908984863342133922
126,6351.50838887921021962726795861576207,6350.0,1.50838887921021962726795861576207
127,6452.70998128515886637064387105523204,6451.2,1.50998128515886637064387105523204
128,6554.71156119035843243252094186298462,6553.2,1.51156119035843243252094186298462
129,6657.51312878962428117562339538579385,6656.0,1.51312878962428117562339538579385
130,6761.11468427325193192254990535459708,6759.6,1.51468427325193192254990535459708
131,6865.51622782715583597449657810494296,6864.0,1.51622782715583597449657810494296
132,6970.71775963300286527131054987476128,6969.2,1.51775963300286527131054987476128
133,7076.71927986834075424359221020959913,7075.2,1.51927986834075424359221020959913
134,7183.52078870672172413160585750587114,7182.0,1.52078870672172413160585750587114
135,7291.12228631782150093741572476551118,7289.6,1.52228631782150093741572476551118
136,7399.52377286755393448913388153613284,7398.0,1.52377286755393448913388153613284
137,7508.72524851818141278822339845432340,7507.2,1.52524851818141278822339845432340
138,7618.72671342842125219880903533239622,7617.2,1.52671342842125219880903533239622
139,7729.52816775354824193204258474350912,7728.0,1.52816775354824193204258474350912
140,7841.12961164549350583260142479745814,7839.6,1.52961164549350583260142479745814
141,7953.53104525293983991690898928657711,7952.0,1.53104525293983991690898928657711
142,8066.73246872141367603939895213284646,8065.2,1.53246872141367603939895213284646
143,8180.73388219337381341297536174552020,8179.2,1.53388219337381341297536174552020
144,8295.53528580829705253018434890185597,8294.0,1.53528580829705253018434890185597
145,8411.13667970276086184385354436504538,8409.6,1.53667970276086184385354436504538
146,8527.53806401052319969720481198792414,8526.0,1.53806401052319969720481198792414
147,8644.73943886259960579047970250779819,8643.2,1.53943886259960579047970250779819
148,8762.74080438733767751308377476500740,8761.2,1.54080438733767751308377476500740
149,8881.54216071048903294218164621581829,8880.0,1.54216071048903294218164621581829
150,9001.14350795527886414859741999580899,8999.6,1.54350795527886414859741999580899
151,9121.54484624247317672425168260741517,9120.0,1.54484624247317672425168260741517
152,9242.74617569044380583028105276960983,9241.2,1.54617569044380583028105276960983
153,9364.74749641523129771551021406658584,9363.2,1.54749641523129771551021406658584
154,9487.54880853060574060449396047084220,9486.0,1.54880853060574060449396047084220
155,9611.15011214812562319109726852169382,9609.6,1.55011214812562319109726852169382
156,9735.55140737719479860395140315213033,9734.0,1.55140737719479860395140315213033
157,9860.75269432511762489036366007815826,9859.2,1.55269432511762489036366007815826
158,9986.75397309715235383675642846513557,9985.2,1.55397309715235383675642846513557
159,10113.5552437965628317984428543588697,10112.0,1.5552437965628317984428543588697
160,10241.1565065246685788762509650047551,10239.6,1.5565065246685788762509650047551
161,10369.5577613808933049360891942065577,10368.0,1.5577613808933049360891942065577
162,10498.7590084628119219325268611161691,10497.2,1.5590084628119219325268611161691
163,10628.7602478661961073896608086441281,10627.2,1.5602478661961073896608086441281
164,10759.5614796850584736758355321560592,10758.0,1.5614796850584736758355321560592
165,10891.1627040116953916724064939713890,10889.6,1.5627040116953916724064939713890
166,11023.5639209367285193521073450019098,11022.0,1.5639209367285193521073450019098
167,11156.7651305491450824993128069081786,11155.2,1.5651305491450824993128069081786
168,11290.7663329363369502610830046738182,11289.2,1.5663329363369502610830046738182
169,11425.5675281841385505910516669705290,11424.0,1.5675281841385505910516669705290
170,11561.1687163768636653292465522338963,11559.6,1.5687163768636653292465522338963
171,11697.5698975973411451122747162607504,11696.0,1.5698975973411451122747162607504
172,11834.7710719269495819805030203637360,11833.2,1.5710719269495819805030203637360
173,11972.7722394456509750845367281336826,11971.2,1.5722394456509750845367281336826
174,12111.5734002320234253344824738361418,12110.0,1.5734002320234253344824738361418
175,12251.1745543632928929769009053661875,12249.6,1.5745543632928929769009053661875
176,12391.5757019153640478057740204351013,12390.0,1.5757019153640478057740204351013
177,12532.7768429628502452679969447178477,12531.2,1.5768429628502452679969447178477
178,12674.7779775791026576177625892647004,12673.2,1.5779775791026576177625892647004
179,12817.5791058362385865647573366980974,12816.0,1.5791058362385865647573366980974
180,12961.1802278051689883625388800719476,12959.6,1.5802278051689883625388800719476
181,13105.5813435556252339856546141256743,13104.0,1.5813435556252339856546141256743
182,13250.7824531561851320908583026545294,13249.2,1.5824531561851320908583026545294
183,13396.7835566742982378116710499708414,13395.2,1.5835566742982378116710499708414
184,13543.5846541763104716277949724027133,13542.0,1.5846541763104716277949724027133
185,13691.1857457274880701174750348604643,13689.6,1.5857457274880701174750348604643
186,13839.5868313920408895614003209444341,13838.0,1.5868313920408895614003209444341
187,13988.7879112331450861986143887024516,13987.2,1.5879112331450861986143887024516
188,14138.7889853129651885707209582284361,14137.2,1.5889853129651885707209582284361
189,14289.5900536926755856854444764642914,14288.0,1.5900536926755856854444764642914
190,14441.1911164324814466505919995435086,14439.6,1.5911164324814466505919995435086
191,14593.5921735916390910009365291208789,14592.0,1.5921735916390910009365291208789
192,14746.7932252284758261001927098833242,14745.2,1.5932252284758261001927098833242
193,14900.7942714004092699218998206828599,14899.2,1.5942714004092699218998206828599
194,15055.5953121639661725499613778615041,15054.0,1.5953121639661725499613778615041
195,15211.1963475748007543311660821284891,15209.6,1.5963475748007543311660821284891
196,15367.5973776877125743715555315345845,15366.0,1.5973776877125743715555315345845
197,15524.7984025566639437519248020248506,15523.2,1.5984025566639437519248020248506
198,15682.7994222347968976243997074429645,15681.2,1.5994222347968976243997074429645
199,15841.6004367744497390239092669822616,15840.0,1.6004367744497390239092669822616
200,16001.2014462271731683347170545411122,15999.6,1.6014462271731683347170545411122
201,16161.6024506437460093883930844482345,16160.0,1.6024506437460093883930844482345
202,16322.8034500741905455693408330737982,16321.2,1.6034500741905455693408330737982
203,16484.8044445677874765825639530742056,16483.2,1.6044445677874765825639530742056
204,16647.6054341730905074985374346656126,16646.0,1.6054341730905074985374346656126
205,16811.2064189379405800404982065105914,16809.6,1.6064189379405800404982065105914
206,16975.6073989094797591328551722443863,16974.0,1.6073989094797591328551722443863
207,17140.8083741341647805813472744742849,17139.2,1.6083741341647805813472744742849
208,17306.8093446577802741063572814616179,17305.2,1.6093446577802741063572814616179
209,17473.6103105254516674722121424597813,17472.0,1.6103105254516674722121424597813
210,17641.2112717816577832080721374273029,17639.6,1.6112717816577832080721374273029
211,17809.6122284702431352793683701429681,17808.0,1.6122284702431352793683701429681
212,17978.8131806344299359369140800558061,17977.2,1.6131806344299359369140800558061
213,18148.8141283168298171215810175484611,18147.2,1.6141283168298171215810175484611
214,18319.6150715594552814002276903587901,18318.0,1.6150715594552814002276903587901
215,18491.2160104037308816391075945315538,18489.6,1.6160104037308816391075945315538
216,18663.6169448905041433692114611309086,18662.0,1.6169448905041433692114611309086
217,18836.8178750600562338025821640565355,18835.2,1.6178750600562338025821640565355
218,19010.8188009521123864720488508716082,19009.2,1.6188009521123864720488508716082
219,19185.6197226058520847673127382424718,19184.0,1.6197226058520847673127382424718
220,19361.2206400599190168755085668700174,19359.6,1.6206400599190168755085668700174
221,19537.6215533524308000285280637104528,19536.0,1.6215533524308000285280637104528
222,19714.8224625209884912544670505757617,19713.2,1.6224625209884912544670505757617
223,19892.8233676026858781940235628352530,19891.2,1.6233676026858781940235628352530
224,20071.6242686341185650411413702805823,20070.0,1.6242686341185650411413702805823
225,20251.2251656513928561644375329407392,20249.6,1.6251656513928561644375329407392
226,20431.6260586901344409473507834042669,20430.0,1.6260586901344409473507834042669
227,20612.8269477854968884898531709987895,20611.2,1.6269477854968884898531709987895
228,20794.8278329721699539819204632633345,20793.2,1.6278329721699539819204632633345
229,20977.6287142843877039009003952507663,20976.0,1.6287142843877039009003952507663
230,21161.2295917559364647190113101732708,21159.6,1.6295917559364647190113101732708
231,21345.6304654201625969102296504766947,21344.0,1.6304654201625969102296504766947
232,21530.8313353099801046654748542304575,21529.2,1.6313353099801046654748542304575
233,21716.8322014578780763015842744202500,21715.2,1.6322014578780763015842744202500
234,21903.6330638959279715101314860916552,21902.0,1.6330638959279715101314860916552
235,22091.2339226557907486171758051892841,22089.6,1.6339226557907486171758051892841
236,22279.6347777687238415526988335183670,22278.0,1.6347777687238415526988335183670
237,22468.8356292655879901498423705526365,22467.2,1.6356292655879901498423705526365
238,22658.8364771768539255049455939246827,22657.2,1.6364771768539255049455939246827
