Eigenstate,Energy,Kinetic Energy,Potential Energy
1,0.500000000026293736663957066476300165,0.0,0.500000000026293736663957066476300165
2,1.84623093782274634903290336833933619,1.2,0.64623093782274634903290336833933619
3,3.93633761020912946313168244592622223,3.2,0.73633761020912946313168244592622223
4,6.79966527886433230345165213167928697,6.0,0.79966527886433230345165213167928697
5,10.4480465771046597364454641754277795,9.6,0.8480465771046597364454641754277795
6,14.8870659996849520146532946480942379,14.0,0.8870659996849520146532946480942379
7,20.1197208280434608737150940693655444,19.2,0.9197208280434608737150940693655444
8,26.1477838485571789359838399833965712,25.2,0.9477838485571789359838399833965712
9,32.9723835602324160775315518696557267,32.0,0.9723835602324160775315518696557267
10,40.5942802172177659119591278368395370,39.6,0.9942802172177659119591278368395370
11,49.0140093896542836981075244390458418,48.0,1.0140093896542836981075244390458418
12,58.2319621728466122604873137791612312,57.2,1.0319621728466122604873137791612312
13,68.2484326968605706783365549435064045,67.2,1.0484326968605706783365549435064045
14,79.0636476593793140242588556114669738,78.0,1.0636476593793140242588556114669738
15,90.6777854415175171690965732474816608,89.6,1.0777854415175171690965732474816608
16,103.090988912691819235483768677698355,102.0,1.090988912691819235483768677698355
17,116.303374264082327634660421832525589,115.2,1.103374264082327634660421832525589
18,130.315037259638817416507965925975100,129.2,1.115037259638817416507965925975100
19,145.126057759184708876699055845763513,144.0,1.126057759184708876699055845763513
20,160.736503056051004037291515914555214,159.6,1.136503056051004037291515914555214
21,177.146430383157983881724572732816565,176.0,1.146430383157983881724572732816565
22,194.355888824173948548532385162907346,193.2,1.155888824173948548532385162907346
23,212.364920791451742044231686285260502,211.2,1.164920791451742044231686285260502
24,231.173563183429174454856535188675014,230.0,1.173563183429174454856535188675014
25,250.781848301424948384133452524030775,249.6,1.181848301424948384133452524030775
26,271.189804583446246745151900542650593,270.0,1.189804583446246745151900542650593
27,292.397457197151308631985054830955573,291.2,1.197457197151308631985054830955573
28,314.404828523208469189106669226873971,313.2,1.204828523208469189106669226873971
29,337.211938552498111575287977170380424,336.0,1.211938552498111575287977170380424
30,360.818805214954491549593941328996931,359.6,1.218805214954491549593941328996931
31,385.225444653698456707182355371819132,384.0,1.225444653698456707182355371819132
32,410.431871455034182808003631948001450,409.2,1.231871455034182808003631948001450
33,436.438098842573401837462534127918038,435.2,1.238098842573401837462534127918038
34,463.244138842000050172025954760579471,462.0,1.244138842000050172025954760579471
35,490.850002421649070157132240056191225,489.6,1.250002421649070157132240056191225
36,519.255699613039619526273029689025900,518.0,1.255699613039619526273029689025900
37,548.461239614698858541660374956213135,547.2,1.261239614698858541660374956213135
38,578.466630881982065993801782445128592,577.2,1.266630881982065993801782445128592
39,609.271881205096986547831448131548203,608.0,1.271881205096986547831448131548203
40,640.876997777144491140937496495559765,639.6,1.276997777144491140937496495559765
41,673.281987253670881861534949204633742,672.0,1.281987253670881861534949204633742
42,706.486855804972180139354754633406672,705.2,1.286855804972180139354754633406672
43,740.491609162184250730724849371528206,739.2,1.291609162184250730724849371528206
44,775.296252658024519967833779448847690,774.0,1.296252658024519967833779448847690
45,810.900791262913477171786371333773343,809.6,1.300791262913477171786371333773343
46,847.305229617091011846681213300262409,846.0,1.305229617091011846681213300262409
47,884.509572059249162659620010768187721,883.2,1.309572059249162659620010768187721
48,922.513822652125267847320885890396160,921.2,1.313822652125267847320885890396160
49,961.317985205434844146119779701982031,960.0,1.317985205434844146119779701982031
50,1000.92206329646939862849819924363432,999.6,1.32206329646939862849819924363432
51,1041.32606028863891086680928096632677,1040.0,1.32606028863891086680928096632677
52,1082.52997934820037763057999598047302,1081.2,1.32997934820037763057999598047302
53,1124.53382345938136220522578242304398,1123.2,1.33382345938136220522578242304398
54,1167.33759543807992928856156182333434,1166.0,1.33759543807992928856156182333434
55,1210.94129794429887092898447012546850,1209.6,1.34129794429887092898447012546850
56,1255.34493349345205439908125099781801,1254.0,1.34493349345205439908125099781801
57,1300.54850446666352393329660053609861,1299.2,1.34850446666352393329660053609861
58,1346.55201312016519107200987902386133,1345.2,1.35201312016519107200987902386133
59,1393.35546159388619440709416196045426,1392.0,1.35546159388619440709416196045426
60,1440.95885191931598501633089692326016,1439.6,1.35885191931598501633089692326016
61,1489.36218602671362964655013438347421,1488.0,1.36218602671362964655013438347421
62,1538.56546575172752270025398354127310,1537.2,1.36546575172752270025398354127310
63,1588.56869284148245619146133282223277,1587.2,1.36869284148245619146133282223277
64,1639.37186896018468435659064838789996,1638.0,1.37186896018468435659064838789996
65,1690.97499569429008476622558467711464,1689.6,1.37499569429008476622558467711464
66,1743.37807455727567044455465725354364,1742.0,1.37807455727567044455465725354364
67,1796.58110699405044521195098667120348,1795.2,1.38110699405044521195098667120348
68,1850.58409438503783830535004409678695,1849.2,1.38409438503783830535004409678695
69,1905.38703804995864166035693012266701,1904.0,1.38703804995864166035693012266701
70,1960.98993925134044497075103019456778,1959.6,1.38993925134044497075103019456778
71,2017.39279919777696493732512627354225,2016.0,1.39279919777696493732512627354225
72,2074.59561904695836687561636436286948,2073.2,1.39561904695836687561636436286948
73,2132.59839990849162384568329967332512,2131.2,1.39839990849162384568329967332512
74,2191.40114284652813961853059684632162,2190.0,1.40114284652813961853059684632162
75,2251.00384888221423069268013711838449,2249.6,1.40384888221423069268013711838449
76,2311.40651899597861301763213376080696,2310.0,1.40651899597861301763213376080696
77,2372.60915412966973668254188321398322,2371.2,1.40915412966973668254188321398322
78,2434.61175518855464603025766177813885,2433.2,1.41175518855464603025766177813885
79,2497.41432304318999583687309874798769,2496.0,1.41432304318999583687309874798769
80,2561.01685853117491607130296395417692,2559.6,1.41685853117491607130296395417692
81,2625.41936245879456840791476176019083,2624.0,1.41936245879456840791476176019083
82,2690.62183560256247621469503166524057,2689.2,1.42183560256247621469503166524057
83,2756.62427871066902100563961139231595,2755.2,1.42427871066902100563961139231595
84,2823.42669250434287405434102998727472,2822.0,1.42669250434287405434102998727472
85,2891.02907767913157258957251023432979,2889.6,1.42907767913157258957251023432979
86,2959.43143490610693412827874973381078,2958.0,1.43143490610693412827874973381078
87,3028.63376483300054503058382141817775,3027.2,1.43376483300054503058382141817775
88,3098.63606808527413598369078244870445,3097.2,1.43606808527413598369078244870445
89,3169.43834526712927361938613638330301,3168.0,1.43834526712927361938613638330301
90,3241.04059696246045425313298590676873,3239.6,1.44059696246045425313298590676873
91,3313.44282373575536428068603132223025,3312.0,1.44282373575536428068603132223025
92,3386.64502613294578347062244332898212,3385.2,1.44502613294578347062244332898212
93,3460.64720468221234513612699700575044,3459.2,1.44720468221234513612699700575044
94,3535.44935989474612424063175679464216,3534.0,1.44935989474612424063175679464216
95,3611.05149226546980333788158842399204,3609.6,1.45149226546980333788158842399204
96,3687.45360227372096442488032220852434,3686.0,1.45360227372096442488032220852434
97,3764.65569038389987044406283843393728,3763.2,1.45569038389987044406283843393728
98,3842.65775704608392729674355315003293,3841.2,1.45775704608392729674355315003293
99,3921.45980269661086375770274398129126,3920.0,1.45980269661086375770274398129126
100,4001.06182775863252034035601810321373,3999.6,1.46182775863252034035601810321373
101,4081.46383264264100885779776103887878,4080.0,1.46383264264100885779776103887878
102,4162.66581774696887885028834943132867,4161.2,1.46581774696887885028834943132867
103,4244.66778345826481913614196706197731,4243.2,1.46778345826481913614196706197731
104,4327.46973015194631547826155462257727,4326.0,1.46973015194631547826155462257727
105,4411.07165819263059228481038904803061,4409.6,1.47165819263059228481038904803061
106,4495.47356793454507549826619157191666,4494.0,1.47356793454507549826619157191666
107,4580.67545972191853574514818442563781,4579.2,1.47545972191853574514818442563781
108,4666.67733388935399157915313501381604,4665.2,1.47733388935399157915313501381604
109,4753.47919076218438405690230716258461,4752.0,1.47919076218438405690230716258461
110,4841.08103065681197146537611718189057,4839.6,1.48103065681197146537611718189057
111,4929.48285388103232715891481892238353,4928.0,1.48285388103232715891481892238353
112,5018.68466073434377403003004107249052,5017.2,1.48466073434377403003004107249052
113,5108.68645150824303360247793043983814,5107.2,1.48645150824303360247793043983814
114,5199.48822648650781897728833236502089,5198.0,1.48822648650781897728833236502089
115,5291.08998594546706041394184301722569,5289.6,1.48998594546706041394184301722569
116,5383.49173015425940399723836320592015,5382.0,1.49173015425940399723836320592015
117,5476.69345937508059212739401025631273,5475.2,1.49345937508059212739401025631273
118,5570.69517386342029353979769959146024,5569.2,1.49517386342029353979769959146024
119,5665.49687386828891684714236272063944,5664.0,1.49687386828891684714236272063944
120,5761.09855963243491575441085539050764,5759.6,1.49855963243491575441085539050764
121,5857.50023139255305582995231969337105,5856.0,1.50023139255305582995231969337105
122,5954.70188937948409380275202259783411,5953.2,1.50188937948409380275202259783411
123,6052.70353381840628816306567528101538,6051.2,1.50353381840628816306567528101538
124,6151.50516492901914216378057304940113,6150.0,1.50516492901914216378057304940113
125,6251.10678292571975075360283766239175,6249.6,1.50678292571975075360283766239175
126,6351.50838801777210777587241181280318,6350.0,1.50838801777210777587241181280318
127,6452.70998040946970918892112041074218,6451.2,1.50998040946970918892112041074218
128,6554.71156030029176547669921168949096,6553.2,1.51156030029176547669921168949096
129,6657.51312788505332434515766955302285,6656.0,1.51312788505332434515766955302285
130,6761.11468335404958641800632821233547,6759.6,1.51468335404958641800632821233547
131,6865.51622689319468124134979437884202,6864.0,1.51622689319468124134979437884202
132,6970.71775868415515592950232129433281,6969.2,1.51775868415515592950232129433281
133,7076.71927890447841700269881317225272,7075.2,1.51927890447841700269881317225272
134,7183.52078772771635469146042549599728,7182.0,1.52078772771635469146042549599728
135,7291.12228532354436087403055538403583,7289.6,1.52228532354436087403055538403583
136,7399.52377185787594812576675798847289,7398.0,1.52377185787594812576675798847289
137,7508.72524749297316405143055470141188,7507.2,1.52524749297316405143055470141188
138,7618.72671238755298145932641816029339,7617.2,1.52671238755298145932641816029339
139,7729.52816669688984283033574555760814,7728.0,1.52816669688984283033574555760814
140,7841.12961057291452208892319048257503,7839.6,1.52961057291452208892319048257503
141,7953.53104416430946212570289444008697,7952.0,1.53104416430946212570289444008697
142,8066.73246761660073844788509410460880,8065.2,1.53246761660073844788509410460880
143,8180.73388107224679068375415685420229,8179.2,1.53388107224679068375415685420229
144,8295.53528467072405648769232849280120,8294.0,1.53528467072405648769232849280120
145,8411.13667854860963820450412219272153,8409.6,1.53667854860963820450412219272153
146,8527.53806283966112478304563987541981,8526.0,1.53806283966112478304563987541981
147,8644.73943767489368322619686383523967,8643.2,1.53943767489368322619686383523967
148,8762.74080318265453490618178445050339,8761.2,1.54080318265453490618178445050339
149,8881.54215948869491854616689861870042,8880.0,1.54215948869491854616689861870042
150,9001.14350671623964350899142617849756,8999.6,1.54350671623964350899142617849756
151,9121.54484498605432930725881498649024,9120.0,1.54484498605432930725881498649024
152,9242.74617441651042163393445689469591,9241.2,1.54617441651042163393445689469591
153,9364.74749512364807386311792369862477,9363.2,1.54749512364807386311792369862477
154,9487.54880722123697792020591081181776,9486.0,1.54880722123697792020591081181776
155,9611.15011082083522275741246790390168,9609.6,1.55011082083522275741246790390168
156,9735.55140603184625830098298626100258,9734.0,1.55140603184625830098298626100258
157,9860.75269296157403591667822923602944,9859.2,1.55269296157403591667822923602944
158,9986.75397171527639721160242459222066,9985.2,1.55397171527639721160242459222066
159,10113.5552423962167748451813711684883,10112.0,1.5552423962167748451813711684883
160,10241.1565051057142716868007209449404,10239.6,1.5565051057142716868007209449404
161,10369.5577599431921768161960032021518,10368.0,1.5577599431921768161960032021518
162,10498.7590070062249778276662075491044,10497.2,1.5590070062249778276662075491044
163,10628.7602463905839242913807683547472,10627.2,1.5602463905839242913807683547472
164,10759.5614781902811970083454940398978,10758.0,1.5614781902811970083454940398978
165,10891.1627024976127316592155770530891,10889.6,1.5627024976127316592155770530891
166,11023.5639194031997473625148699298236,11022.0,1.5639194031997473625148699298236
167,11156.7651289960290273745514597350672,11155.2,1.5651289960290273745514597350672
168,11290.7663313634919946199135230451871,11289.2,1.5663313634919946199135230451871
169,11425.5675265914226271146065066608585,11424.0,1.5675265914226271146065066608585
170,11561.1687147641342530249179683562559,11559.6,1.5687147641342530249179683562559
171,11697.5698959644552655564411451365161,11696.0,1.5698959644552655564411451365161
172,11834.7710702737637955398858506555235,11833.2,1.5710702737637955398858506555235
173,11972.7722377720213771159777519842280,11971.2,1.5722377720213771159777519842280
174,12111.5733985378056423629305930677335,12110.0,1.5733985378056423629305930677335
175,12251.1745526483420788513947630134826,12249.6,1.5745526483420788513947630134826
176,12391.5757001795348798332054562650576,12390.0,1.5757001795348798332054562650576
177,12532.7768412059969203244383013009909,12531.2,1.5768412059969203244383013009909
178,12674.7779758010788882371390457076429,12673.2,1.5779758010788882371390457076429
179,12817.5791040368975970046435056761395,12816.0,1.5791040368975970046435056761395
180,12961.1802259843635106468570027429556,12959.6,1.5802259843635106468570027429556
181,13105.5813417132075039240498148708958,13104.0,1.5813417132075039240498148708958
182,13250.7824512920068852745242209559442,13249.2,1.5824512920068852745242209559442
183,13396.7835547882107055853974519275401,13395.2,1.5835547882107055853974519275401
184,13543.5846522681643770380066638102944,13542.0,1.5846522681643770380066638102944
185,13691.1857437971336238360294897017591,13689.6,1.5857437971336238360294897017591
186,13839.5868294393277857849094497953637,13838.0,1.5868294393277857849094497953637
187,13988.7879092579224985230536587228031,13987.2,1.5879092579224985230536587228031
188,14138.7889833150817658410870536011541,14137.2,1.5889833150817658410870536011541
189,14289.5900516719794478202205315996448,14288.0,1.5900516719794478202205315996448
190,14441.1911143888201804407772557709491,14439.6,1.5911143888201804407772557709491
191,14593.5921715248597458833951909342829,14592.0,1.5921715248597458833951909342829
192,14746.7932231384249099050744276380683,14745.2,1.5932231384249099050744276380683
193,14900.7942692869327445938820993009486,14899.2,1.5942692869327445938820993009486
194,15055.5953100269094498430619245224796,15054.0,1.5953100269094498430619245224796
195,15211.1963454140086914768708064510607,15209.6,1.5963454140086914768708064510607
196,15367.5973755030294697200056590228046,15366.0,1.5973755030294697200056590228046
197,15524.7984003479335323859041178925132,15523.2,1.5984003479335323859041178925132
198,15682.7994200018623469458607360548382,15681.2,1.5994200018623469458607360548382
199,15841.6004345171536443127746323369592,15840.0,1.6004345171536443127746323369592
200,16001.2014439453575482796899677825176,15999.6,1.6014439453575482796899677825176
201,16161.6024483372523015895084852305410,16160.0,1.6024483372523015895084852305410
202,16322.8034477428596020119860441567917,16321.2,1.6034477428596020119860441567917
203,16484.8044422114595590826954056771232,16483.2,1.6044422114595590826954056771232
204,16647.6054317916052831188174449220834,16646.0,1.6054317916052831188174449220834
205,16811.2064165311371164770731309820450,16809.6,1.6064165311371164770731309820450
206,16975.6073964771965200724937630345212,16974.0,1.6073964771965200724937630345212
207,17140.8083716762396210286553662025164,17139.2,1.6083716762396210286553662025164
208,17306.8093421740504356807823571983804,17305.2,1.6093421740504356807823571983804
209,17473.6103080157537736745486003760000,17472.0,1.6103080157537736745486003760000
210,17641.2112692458278346561753242965230,17639.6,1.6112692458278346561753242965230
211,17809.6122259081165049127827979133985,17808.0,1.6122259081165049127827979133985
212,17978.8131780458413641901183571666480,17977.2,1.6131780458413641901183571666480
213,18148.8141257016134070655492783626010,18147.2,1.6141257016134070655492783626010
214,18319.6150689174444938520044349781107,18318.0,1.6150689174444938520044349781107
215,18491.2160077347585302390899801538748,18489.6,1.6160077347585302390899801538748
216,18663.6169421944023896258300696528719,18662.0,1.6169421944023896258300696528719
217,18836.8178723366565821040685515559946,18835.2,1.6178723366565821040685515559946
218,19010.8187982012456790649749932041966,19009.2,1.6187982012456790649749932041966
219,19185.6197198273484967015844845976138,19184.0,1.6197198273484967015844845976138
220,19361.2206372536080509154923251109598,19359.6,1.6206372536080509154923251109598
221,19537.6215505181412815299865976520714,19536.0,1.6215505181412815299865976520714
222,19714.8224596585485630069773680323689,19713.2,1.6224596585485630069773680323689
223,19892.8233647119229952285465992832767,19891.2,1.6233647119229952285465992832767
224,20071.6242657148594894024099483614626,20070.0,1.6242657148594894024099483614626
225,20251.2251627034636516478259247677290,20249.6,1.6251627034636516478259247677290
226,20431.6260557133604677998857849368952,20430.0,1.6260557133604677998857849368952
227,20612.8269447797027980750235035609135,20611.2,1.6269447797027980750235035609135
228,20794.8278299371796834079377120592420,20793.2,1.6278299371796834079377120592420
229,20977.6287112200244706120614418468000,20976.0,1.6287112200244706120614418468000
230,21161.2295886620227610498087795102683,21159.6,1.6295886620227610498087795102683
231,21345.6304622965201846018532640281031,21344.0,1.6304622965201846018532640281031
232,21530.8313321564300093443433772384955,21529.2,1.6313321564300093443433772384955
233,21716.8321982742405819195437444430314,21715.2,1.6321982742405819195437444430314
234,21903.6330606820226147459522307746499,21902.0,1.6330606820226147459522307746499
235,22091.2339194114363132389768388855698,22089.6,1.6339194114363132389768388855698
236,22279.6347744937383527409246017759099,22278.0,1.6347744937383527409246017759099
237,22468.8356259597887087804130631539041,22467.2,1.6356259597887087804130631539041
238,22658.8364738400573423921985716790533,22657.2,1.6364738400573423921985716790533
