Eigenstate,Energy,Kinetic Energy,Potential Energy
1,0.500000000025343671654673266463713916,0.0,0.500000000025343671654673266463713916
2,1.84623093781654482006237335585898461,1.2,0.64623093781654482006237335585898461
3,3.93633761019091297353005270929029163,3.2,0.73633761019091297353005270929029163
4,6.79966527882638943948417588487711165,6.0,0.79966527882638943948417588487711165
5,10.4480465770389349400178252744076106,9.6,0.8480465770389349400178252744076106
6,14.8870659995832487512996632551949953,14.0,0.8870659995832487512996632551949953
7,20.1197208278975165049997296153021875,19.2,0.9197208278975165049997296153021875
8,26.1477838483586959577770051009781808,25.2,0.9477838483586959577770051009781808
9,32.9723835599730766581382166456425956,32.0,0.9723835599730766581382166456425956
10,40.5942802168892392821951061239174489,39.6,0.9942802168892392821951061239174489
11,49.0140093892482301764046517179843428,48.0,1.0140093892482301764046517179843428
12,58.2319621723546855632659634241927939,57.2,1.0319621723546855632659634241927939
13,68.2484326962744192968765746409812540,67.2,1.0484326962744192968765746409812540
14,79.0636476586905820643440272728964522,78.0,1.0636476586905820643440272728964522
15,90.6777854407178448665654258727202587,89.6,1.0777854407178448665654258727202587
16,103.090988911772843268205298585588212,102.0,1.090988911772843268205298585588212
17,116.303374263035681302090985249805317,115.2,1.103374263035681302090985249805317
18,130.315037258456130730448592671569036,129.2,1.115037258456130730448592671569036
19,145.126057757857608590886098753756931,144.0,1.126057757857608590886098753756931
20,160.736503054571113633841419272551795,159.6,1.136503054571113633841419272551795
21,177.146430381516923526491505880854334,176.0,1.146430381516923526491505880854334
22,194.355888822363335023635517482630702,193.2,1.155888822363335023635517482630702
23,212.364920789463188663523359964283305,211.2,1.164920789463188663523359964283305
24,231.173563181254290966440904768340420,230.0,1.173563181254290966440904768340420
25,250.781848299055340862911484046339605,249.6,1.181848299055340862911484046339605
26,271.189804580873517477580800801319704,270.0,1.189804580873517477580800801319704
27,292.397457194367055994683427413057035,291.2,1.197457194367055994683427413057035
28,314.404828520204287522537103653166774,313.2,1.204828520204287522537103653166774
29,337.211938549265591053457900718742717,336.0,1.211938549265591053457900718742717
30,360.818805211485218046501044602563362,359.6,1.218805211485218046501044602563362
31,385.225444649984011660570771211552587,384.0,1.225444649984011660570771211552587
32,410.431871451066143080876173509382997,409.2,1.231871451066143080876173509382997
33,436.438098838343339577702098185111107,435.2,1.238098838343339577702098185111107
34,463.244138837499532670408186365655210,462.0,1.244138837499532670408186365655210
35,490.850002416869659703956366950895820,489.6,1.250002416869659703956366950895820
36,519.255699607972873266794516596297463,518.0,1.255699607972873266794516596297463
37,548.461239609336328330474872363868866,547.2,1.261239609336328330474872363868866
38,578.466630876315298248302642388745225,577.2,1.266630876315298248302642388745225
39,609.271881199117522100841270025951328,608.0,1.271881199117522100841270025951328
40,640.876997770843865092596572909377785,639.6,1.276997770843865092596572909377785
41,673.281987247040623430515189771100942,672.0,1.281987247040623430515189771100942
42,706.486855798003812513455998451491581,705.2,1.286855798003812513455998451491581
43,740.491609154869290916900885424416008,739.2,1.291609154869290916900885424416008
44,775.296252650354478641687477664427835,774.0,1.296252650354478641687477664427835
45,810.900791254879858526566757188621164,809.6,1.300791254879858526566757188621164
46,847.305229608685313441809832263006333,846.0,1.305229608685313441809832263006333
47,884.509572050462875268769339560393360,883.2,1.309572050462875268769339560393360
48,922.513822642949875306063676617328091,921.2,1.313822642949875306063676617328091
49,961.317985195861823199164959437885226,960.0,1.317985195861823199164959437885226
50,1000.92206328649021877652617230526042,999.6,1.32206328649021877652617230526042
51,1041.32606027824503421291711573035943,1040.0,1.32606027824503421291711573035943
52,1082.52997933738325872634495941977502,1081.2,1.32997933738325872634495941977502
53,1124.53382344813244789639394918473832,1123.2,1.33382344813244789639394918473832
54,1167.33759542639065856036673145514384,1166.0,1.33759542639065856036673145514384
55,1210.94129793216067475110133125257410,1209.6,1.34129793216067475110133125257410
56,1255.34493348085635557021561525434814,1254.0,1.34493348085635557021561525434814
57,1300.54850445360173692541454990370301,1299.2,1.34850445360173692541454990370301
58,1346.55201310662872187420681958224974,1345.2,1.35201310662872187420681958224974
59,1393.35546157986644036910403538286397,1392.0,1.35546157986644036910403538286397
60,1440.95885190480433469167514158413507,1439.6,1.35885190480433469167514158413507
61,1489.36218601170146263532541646693307,1488.0,1.36218601170146263532541646693307
62,1538.56546573620620949155720382096866,1537.2,1.36546573620620949155720382096866
63,1588.56869282544335800544996532279482,1587.2,1.36869282544335800544996532279482
64,1639.37186894361915298617606736198031,1638.0,1.37186894361915298617606736198031
65,1690.97499567718946241839667509104643,1689.6,1.37499567718946241839667509104643
66,1743.37807453963128958132868559468744,1742.0,1.37807453963128958132868559468744
67,1796.58110697585362839094842477444526,1795.2,1.38110697585362839094842477444526
68,1850.58409436627989801998976685191812,1849.2,1.38409436627989801998976685191812
69,1905.38703803063088017966799431152900,1904.0,1.38703803063088017966799431152900
70,1960.98993923143415417879702271480837,1959.6,1.38993923143415417879702271480837
71,2017.39279917728342617223686560640856,2016.0,1.39279917728342617223686560640856
72,2074.59561902586885076822858609828790,2073.2,1.39561902586885076822858609828790
73,2132.59839988679739015777078035150954,2131.2,1.39839988679739015777078035150954
74,2191.40114282422043708063903589422605,2190.0,1.40114282422043708063903589422605
75,2251.00384885928429684154697297948227,2249.6,1.40384885928429684154697297948227
76,2311.40651897241767403319235118363194,2310.0,1.40651897241767403319235118363194
77,2372.60915410546900722451375730525876,2371.2,1.40915410546900722451375730525876
78,2434.61175516370532907430326330544641,2433.2,1.41175516370532907430326330544641
79,2497.41432301768328251032830780802782,2496.0,1.41432301768328251032830780802782
80,2561.01685850500198548847162254499197,2559.6,1.41685850500198548847162254499197
81,2625.41936243194658750492152930848850,2624.0,1.41936243194658750492152930848850
82,2690.62183557503059958389141116051938,2689.2,1.42183557503059958389141116051938
83,2756.62427868244439072955753961541855,2755.2,1.42427868244439072955753961541855
84,2823.42669247541661953918835739972623,2822.0,1.42669247541661953918835739972623
85,2891.02907764949481039826461809888870,2889.6,1.42907764949481039826461809888870
86,2959.43143487575076781300049182791884,2958.0,1.43143487575076781300049182791884
87,3028.63376480191606496487590604528376,3027.2,1.43376480191606496487590604528376
88,3098.63606805345241919405466058705326,3097.2,1.43606805345241919405466058705326
89,3169.43834523456138361640139058900620,3168.0,1.43834523456138361640139058900620
90,3241.04059692913744086208115783534896,3239.6,1.44059692913744086208115783534896
91,3313.44282370166826347167479123669558,3312.0,1.44282370166826347167479123669558
92,3386.64502609808561718820391722028974,3385.2,1.44502609808561718820391722028974
93,3460.64720464657012112840404558612466,3459.2,1.44720464657012112840404558612466
94,3535.44935985831283588784592783798298,3534.0,1.44935985831283588784592783798298
95,3611.05149222823642948047642479102809,3609.6,1.45149222823642948047642479102809
96,3687.45360223567846919103365649681680,3686.0,1.45360223567846919103365649681680
97,3764.65569034503920307668165895411482,3763.2,1.45569034503920307668165895411482
98,3842.65775700639602197991497258228746,3841.2,1.45775700639602197991497258228746
99,3921.45980265608663944259455800558177,3920.0,1.45980265608663944259455800558177
100,4001.06182771726288057056029634739015,3999.6,1.46182771726288057056029634739015
101,4081.46383260041684159411086702254254,4080.0,1.46383260041684159411086702254254
102,4162.66581770388105629492073400962312,4161.2,1.46581770388105629492073400962312
103,4244.66778341430419755635105127474362,4243.2,1.46778341430419755635105127474362
104,4327.46973010710373502940094254365128,4326.0,1.46973010710373502940094254365128
105,4411.07165814689687683278864001078127,4409.6,1.47165814689687683278864001078127
106,4495.47356788791103244140831013663801,4494.0,1.47356788791103244140831013663801
107,4580.67545967437495583545295973625843,4579.2,1.47545967437495583545295973625843
108,4666.67733384089164874293940615445377,4665.2,1.47733384089164874293940615445377
109,4753.47919071279403521483718893525518,4752.0,1.47919071279403521483718893525518
110,4841.08103060648435635187817437953562,4839.6,1.48103060648435635187817437953562
111,4929.48285382975816814092513195042578,4928.0,1.48285382975816814092513195042578
112,5018.68466068211377592514406828715288,5017.2,1.48466068211377592514406828715288
113,5108.68645145504788349643102119657772,5107.2,1.48645145504788349643102119657772
114,5199.48822643233818604078769134071944,5198.0,1.48822643233818604078769134071944
115,5291.08998589031359571883771573425842,5289.6,1.48998589031359571883771573425842
116,5383.49173009811274033202715957071881,5382.0,1.49173009811274033202715957071881
117,5476.69345931793134381204603213468153,5475.2,1.49345931793134381204603213468153
118,5570.69517380525905623990210000301205,5569.2,1.49517380525905623990210000301205
119,5665.49687380910626738736192024924698,5664.0,1.49687380910626738736192024924698
120,5761.09855957222141193123908131806208,5759.6,1.49855957222141193123908131806208
121,5857.50023133129923622376539322107976,5856.0,1.50023133129923622376539322107976
122,5954.70188931718047758914798145011261,5953.2,1.50188931718047758914798145011261
123,6052.70353375504337492348325180354882,6051.2,1.50353375504337492348325180354882
124,6151.50516486458741169539002023428920,6150.0,1.50516486458741169539002023428920
125,6251.10678286020966287846102296431095,6249.6,1.50678286020966287846102296431095
126,6351.50838795117410214933442375988768,6350.0,1.50838795117410214933442375988768
127,6452.70998034177420510730058219376258,6451.2,1.50998034177420510730058219376258
128,6554.71156023148916168416944206632104,6553.2,1.51156023148916168416944206632104
129,6657.51312781513399883988576748082282,6656.0,1.51312781513399883988576748082282
130,6761.11468328300389625751224412324008,6759.6,1.51468328300389625751224412324008
131,6865.51622682101296234708234814846507,6864.0,1.51622682101296234708234814846507
132,6970.71775861082772289062411133685301,6969.2,1.51775861082772289062411133685301
133,7076.71927882999556287907191720678686,7075.2,1.51927882999556287907191720678686
134,7183.52078765206835081582468450629131,7182.0,1.52078765206835081582468450629131
135,7291.12228524672145665336624353590099,7289.6,1.52228524672145665336624353590099
136,7399.52377177986837084183334571577404,7398.0,1.52377177986837084183334571577404
137,7508.72524741377111866047323721471398,7507.2,1.52524741377111866047323721471398
138,7618.72671230714665039094202152645055,7617.2,1.52671230714665039094202152645055
139,7729.52816661526938578548956088558070,7728.0,1.52816661526938578548956088558070
140,7841.12961049007007583710822848592590,7839.6,1.52961049007007583710822848592590
141,7953.53104408023114030123300619704820,7952.0,1.53104408023114030123300619704820
142,8066.73246753127863134531335055194023,8065.2,1.53246753127863134531335055194023
143,8180.73388098567096505240779027182709,8179.2,1.53388098567096505240779027182709
144,8295.53528458288455532531552208256342,8294.0,1.53528458288455532531552208256342
145,8411.13667845949648054999985265161207,8409.6,1.53667845949648054999985265161207
146,8527.53806274926430550830769675141788,8526.0,1.53806274926430550830769675141788
147,8644.73943758320317282702316431801044,8643.2,1.53943758320317282702316431801044
148,8762.74080308966027929225998121111140,8761.2,1.54080308966027929225998121111140
149,8881.54215939438683883012326052481715,8880.0,1.54215939438683883012326052481715
150,9001.14350662060763579449389284597665,8999.6,1.54350662060763579449389284597665
151,9121.54484488908826447616502896432692,9120.0,1.54484488908826447616502896432692
152,9242.74617431820014513247558630623830,9241.2,1.54617431820014513247558630623830
153,9364.74749502398340548710896157927416,9363.2,1.54749502398340548710896157927416
154,9487.54880712020771159927310732444950,9486.0,1.54880712020771159927310732444950
155,9611.15011071843112633822845175845518,9609.6,1.55011071843112633822845175845518
156,9735.55140592805707332950010558144164,9734.0,1.55140592805707332950010558144164
157,9860.75269285638947741935053142181003,9859.2,1.55269285638947741935053142181003
158,9986.75397160868615347558666796629913,9985.2,1.55397160868615347558666796629913
159,10113.5552422882105071975073800831887,10112.0,1.5552422882105071975073800831887
160,10241.1565049962816142725012842933294,10239.6,1.5565049962816142725012842933294
161,10369.5577598323227363753865103383014,10368.0,1.5577598323227363753865103383014
162,10498.7590068939083334715641144794598,10497.2,1.5590068939083334715641144794598
163,10628.7602462768096272772548958271675,10627.2,1.5602462768096272772548958271675
164,10759.5614780750387705133851299284973,10758.0,1.5614780750387705133851299284973
165,10891.1627023808916705533092423916998,10889.6,1.5627023808916705533092423916998
166,11023.5639192849895179799285621572226,11022.0,1.5639192849895179799285621572226
167,11156.7651288763190672844960782206922,11155.2,1.5651288763190672844960782206922
168,11290.7663312422717123959911505432842,11289.2,1.5663312422717123959911505432842
169,11425.5675264686814021031251293767430,11424.0,1.5675264686814021031251293767430
170,11561.1687146398614351120640666630002,11559.6,1.5687146398614351120640666630002
171,11697.5698958386401749342996597814607,11696.0,1.5698958386401749342996597814607
172,11834.7710701463957224712967950593824,11833.2,1.5710701463957224712967950593824
173,11972.7722376430895816982187697995302,11971.2,1.5722376430895816982187697995302
174,12111.5733984072993542902146299600461,12110.0,1.5733984072993542902146299600461
175,12251.1745525162504971761719164485577,12249.6,1.5745525162504971761719164485577
176,12391.5757000458471727262580612430343,12390.0,1.5757000458471727262580612430343
177,12532.7768410707022248337581674289718,12531.2,1.5768410707022248337581674289718
178,12674.7779756641663100455756759361547,12673.2,1.5779756641663100455756759361547
179,12817.5791038983562101863120699392409,12816.0,1.5791038983562101863120699392409
180,12961.1802258441823574222947554729772,12959.6,1.5802258441823574222947554729772
181,13105.5813415713755944141094947307659,13104.0,1.5813415713755944141094947307659
182,13250.7824511485131972529929898879312,13249.2,1.5824511485131972529929898879312
183,13396.7835546430441842303297449613379,13395.2,1.5835546430441842303297449613379
184,13543.5846521213139346817592836817104,13542.0,1.5846521213139346817592836817104
185,13691.1857436485881397139871513795903,13689.6,1.5857436485881397139871513795903
186,13839.5868292890761057828889798741057,13838.0,1.5868292890761057828889798741057
187,13988.7879091059534349233747989194591,13987.2,1.5879091059534349233747989194591
188,14138.7889831613840970672978950202884,14137.2,1.5889831613840970672978950202884
189,14289.5900515165419181804653899239018,14288.0,1.5900515165419181804653899239018
190,14441.1911142316314998697947803734884,14439.6,1.5911142316314998697947803734884
191,14593.5921713659085896831343440656083,14592.0,1.5921713659085896831343440656083
192,14746.7932229776999184839158915211397,14745.2,1.5932229776999184839158915211397
193,14900.7942691244225232044526181435131,14899.2,1.5942691244225232044526181435131
194,15055.5953098626025683186289156253838,15054.0,1.5953098626025683186289156253838
195,15211.1963452478936839663045008765490,15209.6,1.5963452478936839663045008765490
196,15367.5973753350948344212959505490624,15366.0,1.5973753350948344212959505490624
197,15524.7984001781677312782191814088917,15523.2,1.5984001781677312782191814088917
198,15682.7994198302538055201343611021184,15681.2,1.5994198302538055201343611021184
199,15841.6004343436907513008090976119124,15840.0,1.6004343436907513008090976119124
200,16001.2014437700286553817612367231704,15999.6,1.6014437700286553817612367231704
201,16161.6024481600457232004603551424166,16160.0,1.6024481600457232004603551424166
202,16322.8034475637636149457997529766519,16321.2,1.6034475637636149457997529766519
203,16484.8044420304624022955211237969030,16483.2,1.6044420304624022955211237969030
204,16647.6054316086951574304539444143583,16646.0,1.6054316086951574304539444143583
205,16811.2064163463021842908818447294437,16809.6,1.6064163463021842908818447294437
206,16975.6073962904249050937333067760942,16974.0,1.6073962904249050937333067760942
207,17140.8083714875194079812224481831709,17139.2,1.6083714875194079812224481831709
208,17306.8093419833696700223449977651945,17305.2,1.6093419833696700223449977651945
209,17473.6103078231004613100573335223617,17472.0,1.6103078231004613100573335223617
210,17641.2112690511899416497379841798462,17639.6,1.6112690511899416497379841798462
211,17809.6122257114819571978884343584704,17808.0,1.6122257114819571978884343584704
212,17978.8131778471980472781956173809500,17977.2,1.6131778471980472781956173809500
213,18148.8141255009491657528444989099731,18147.2,1.6141255009491657528444989099731
214,18319.6150687147471319247645508221821,18318.0,1.6150687147471319247645508221821
215,18491.2160075300158101770353166690043,18489.6,1.6160075300158101770353166690043
216,18663.6169419876020323039018216297021,18662.0,1.6169419876020323039018216297021
217,18836.8178721277862664924357146913967,18835.2,1.6178721277862664924357146913967
218,19010.8187979902930419272853676576509,19009.2,1.6187979902930419272853676576509
219,19185.6197196143011322914442504569541,19184.0,1.6197196143011322914442504569541
220,19361.2206370384535106711585050138436,19359.6,1.6206370384535106711585050138436
221,19537.6215503008670737672566537070239,19536.0,1.6215503008670737672566537070239
222,19714.8224594391421526102600100035263,19713.2,1.6224594391421526102600100035263
223,19892.8233644903718033400977404897779,19891.2,1.6233644903718033400977404897779
224,20071.6242654911508931097176522036355,20070.0,1.6242654911508931097176522036355
225,20251.2251624775849836691279566374782,20249.6,1.6251624775849836691279566374782
226,20431.6260554852990161678033666177176,20430.0,1.6260554852990161678033666177176
227,20612.8269445494458058182946204213230,20611.2,1.6269445494458058182946204213230
228,20794.8278297047143482312331957992677,20793.2,1.6278297047143482312331957992677
229,20977.6287109853379445738669813528828,20976.0,1.6287109853379445738669813528828
230,21161.2295884251021502383557582635236,21159.6,1.6295884251021502383557582635236
231,21345.6304620573525488090812790079231,21344.0,1.6304620573525488090812790079231
232,21530.8313319150023617378770262107918,21529.2,1.6313319150023617378770262107918
233,21716.8321980305398887126662724035919,21715.2,1.6321980305398887126662724035919
234,21903.6330604360357948655582900930990,21902.0,1.6330604360357948655582900930990
235,22091.2339191631502379914866208621745,22089.6,1.6339191631502379914866208621745
236,22279.6347742431398454761413475488767,22278.0,1.6347742431398454761413475488767
237,22468.8356257068645445533058326356135,22467.2,1.6356257068645445533058326356135
238,22658.8364735847942476225920007183576,22657.2,1.6364735847942476225920007183576
