Eigenstate,Energy,Kinetic Energy,Potential Energy
1,0.500000000034267158957086486209932698,0.0,0.500000000034267158957086486209932698
2,1.84623093787479272098997184610746516,1.2,0.64623093787479272098997184610746516
3,3.93633761036201160188874407055437719,3.2,0.73633761036201160188874407055437719
4,6.79966527918276868641147275667991134,6.0,0.79966527918276868641147275667991134
5,10.4480465776562574762498892757600352,9.6,0.8480465776562574762498892757600352
6,14.8870660005385019102593608416988307,14.0,0.8870660005385019102593608416988307
7,20.1197208292683091825354407979952103,19.2,0.9197208292683091825354407979952103
8,26.1477838502229653456324620790753267,25.2,0.9477838502229653456324620790753267
9,32.9723835624089518337070998833832271,32.0,0.9723835624089518337070998833832271
10,40.5942802199749719364894408883336924,39.6,0.9942802199749719364894408883336924
11,49.0140093930621569476349154681470730,48.0,1.0140093930621569476349154681470730
12,58.2319621769752064761688351653133770,57.2,1.0319621769752064761688351653133770
13,68.2484327017799849700805643063702595,67.2,1.0484327017799849700805643063702595
14,79.0636476651596859637646607683658262,78.0,1.0636476651596859637646607683658262
15,90.6777854482290186029869710010111831,89.6,1.0777854482290186029869710010111831
16,103.090988920404653807086570156258547,102.0,1.090988920404653807086570156258547
17,116.303374272866729417268734130830605,115.2,1.103374272866729417268734130830605
18,130.315037269565050292053865121240054,129.2,1.115037269565050292053865121240054
19,145.126057770323066427940919181741974,144.0,1.126057770323066427940919181741974
20,160.736503068471809802285343497807133,159.6,1.136503068471809802285343497807133
21,177.146430396931591869386198671567275,176.0,1.146430396931591869386198671567275
22,194.355888839370743946005665913461713,193.2,1.155888839370743946005665913461713
23,212.364920808142142067637575572581088,211.2,1.164920808142142067637575572581088
24,231.173563201683629308943778725207048,230.0,1.173563201683629308943778725207048
25,250.781848321313942305866069960376891,249.6,1.181848321313942305866069960376891
26,271.189804605040299112880508115672604,270.0,1.189804605040299112880508115672604
27,292.397457220520975126521848947920007,291.2,1.197457220520975126521848947920007
28,314.404828548424342996377518942209266,313.2,1.204828548424342996377518942209266
29,337.211938579630824622676296211762784,336.0,1.211938579630824622676296211762784
30,360.818805244074715769891408166345554,359.6,1.218805244074715769891408166345554
31,385.225444684876905325405492017660488,384.0,1.225444684876905325405492017660488
32,410.431871488341611647349731996758287,409.2,1.231871488341611647349731996758287
33,436.438098878080610641452255334329838,435.2,1.238098878080610641452255334329838
34,463.244138879777883940475876543923334,462.0,1.244138879777883940475876543923334
35,490.850002461768420494063903911119263,489.6,1.250002461768420494063903911119263
36,519.255699655571425998228042767038070,518.0,1.255699655571425998228042767038070
37,548.461239659714110045178031079702898,547.2,1.261239659714110045178031079702898
38,578.466630929551802131043997119294715,577.2,1.266630929551802131043997119294715
39,609.271881255292299009522843395302694,608.0,1.271881255292299009522843395302694
40,640.876997830036525095936209963243971,639.6,1.276997830036525095936209963243971
41,673.281987309330837352469680892596657,672.0,1.281987309330837352469680892596657
42,706.486855863471313483861568088388472,705.2,1.286855863471313483861568088388472
43,740.491609223593875927897753157931958,739.2,1.291609223593875927897753157931958
44,775.296252722416010109569600296296915,774.0,1.296252722416010109569600296296915
45,810.900791330358265858759639617043075,809.6,1.300791330358265858759639617043075
46,847.305229687660594608730833627502306,846.0,1.305229687660594608730833627502306
47,884.509572133015098380368084188070741,883.2,1.309572133015098380368084188070741
48,922.513822729159180192876552650854412,921.2,1.313822729159180192876552650854412
49,961.317985285808422997748425978513366,960.0,1.317985285808422997748425978513366
50,1000.92206338025440151915968956284839,999.6,1.32206338025440151915968956284839
51,1041.32606037590716442148877688614269,1040.0,1.32606037590716442148877688614269
52,1082.52997943902377901035192705799987,1081.2,1.32997943902377901035192705799987
53,1124.53382355383188055500614497388389,1123.2,1.33382355383188055500614497388389
54,1167.33759553622960718851633163157379,1166.0,1.33759553622960718851633163157379
55,1210.94129804621982584957279800721144,1209.6,1.34129804621982584957279800721144
56,1255.34493359921648015972158319378593,1254.0,1.34493359921648015972158319378593
57,1300.54850457634369216465208361038897,1299.2,1.34850457634369216465208361038897
58,1346.55201323383345268189664313250105,1345.2,1.35201323383345268189664313250105
59,1393.35546171161498105002235574036268,1392.0,1.35546171161498105002235574036268
60,1440.95885204117781056669392197126333,1439.6,1.35885204117781056669392197126333
61,1489.36218615278109167548241540193460,1488.0,1.36218615278109167548241540193460
62,1538.56546588207330395618196395561745,1537.2,1.36546588207330395618196395561745
63,1588.56869297617932608437623363357580,1587.2,1.36869297617932608437623363357580
64,1639.37186909930550044607495870436144,1638.0,1.37186909930550044607495870436144
65,1690.97499583790779425326832053540208,1689.6,1.37499583790779425326832053540208
66,1743.37807470546331166719320417236675,1742.0,1.37807470546331166719320417236675
67,1796.58110714688114914477978783957660,1795.2,1.38110714688114914477978783957660
68,1850.58409454258483006293865102109935,1849.2,1.38409454258483006293865102109935
69,1905.38703821229524200462196945832889,1904.0,1.38703821229524200462196945832889
70,1960.98993941854007182232846103910264,1959.6,1.38993941854007182232846103910264
71,2017.39279936991313489099087336169480,2016.0,1.39279936991313489099087336169480
72,2074.59561922410469671980491610184612,2073.2,1.39561922410469671980491610184612
73,2132.59840009072183208615531414023381,2131.2,1.39840009072183208615531414023381
74,2191.40114303391604800624183567360149,2190.0,1.40114303391604800624183567360149
75,2251.00384907483376575590527934742291,2249.6,1.40384907483376575590527934742291
76,2311.40651919390380759839810166151025,2310.0,1.40651919390380759839810166151025
77,2372.60915433297473147742641138957406,2371.2,1.40915433297473147742641138957406
78,2434.61175539731369113560977785412518,2433.2,1.41175539731369113560977785412518
79,2497.41432325747745229851313352646415,2496.0,1.41432325747745229851313352646415
80,2561.01685875106525743876053860363939,2559.6,1.41685875106525743876053860363939
81,2625.41936268436238229326406207919079,2624.0,1.41936268436238229326406207919079
82,2690.62183583388246585604742988139418,2689.2,1.42183583388246585604742988139418
83,2756.62427894781600683535444339964473,2755.2,1.42427894781600683535444339964473
84,2823.42669274739179527201604723353221,2822.0,1.42669274739179527201604723353221
85,2891.02907792815748873987621485962914,2889.6,1.42907792815748873987621485962914
86,2959.43143516118502668368744896867834,2958.0,1.43143516118502668368744896867834
87,3028.63376509420611897908690984972804,3027.2,1.43376509420611897908690984972804
88,3098.63606835268262142152834631786008,3097.2,1.43606835268262142152834631786008
89,3169.43834554081622734888356941969758,3168.0,1.43834554081622734888356941969758
90,3241.04059724250156138569789205280894,3239.6,1.44059724250156138569789205280894
91,3313.44282402222643984503327697976213,3312.0,1.44282402222643984503327697976213
92,3386.64502642592277402629373408594218,3385.2,1.44502642592277402629373408594218
93,3460.64720498177133039237193430307233,3459.2,1.44720498177133039237193430307233
94,3535.44936020096331868071784657450032,3534.0,1.44936020096331868071784657450032
95,3611.05149257842155784890122769328462,3609.6,1.45149257842155784890122769328462
96,3687.45360259348376793312326248813831,3686.0,1.45360259348376793312326248813831
97,3764.65569071055035155602321253506469,3763.2,1.45569071055035155602321253506469
98,3842.65775737969885594583098377921492,3841.2,1.45775737969885594583098377921492
99,3921.45980303726715285672764819540250,3920.0,1.45980303726715285672764819540250
100,4001.06182810640722743985964320521346,3999.6,1.46182810640722743985964320521346
101,4081.46383299761133781029806096995048,4080.0,1.46383299761133781029806096995048
102,4162.66581810921218148051328571883852,4161.2,1.46581810921218148051328571883852
103,4244.66778382785859691732229220711485,4243.2,1.46778382785859691732229220711485
104,4327.46973052896822121455571095005199,4326.0,1.46973052896822121455571095005199
105,4411.07165857715843179993458250021284,4409.6,1.47165857715843179993458250021284
106,4495.47356832665680933040325471929321,4494.0,1.47356832665680933040325471929321
107,4580.67546012169228084820932240763992,4579.2,1.47546012169228084820932240763992
108,4666.67733429686802303046715551173867,4665.2,1.47733429686802303046715551173867
109,4753.47919117751713677140747307253114,4752.0,1.47919117751713677140747307253114
110,4841.08103108004204191639022901337751,4839.6,1.48103108004204191639022901337751
111,4929.48285431223847510555967164124344,4928.0,1.48285431223847510555967164124344
112,5018.68466117360492425138692201848012,5017.2,1.48466117360492425138692201848012
113,5108.68645195563827763855132961775633,5107.2,1.48645195563827763855132961775633
114,5199.48822694211641687685555860170998,5198.0,1.48822694211641687685555860170998
115,5291.08998640936844248936678532590549,5289.6,1.48998640936844248936678532590549
116,5383.49173062653317258632816108840964,5382.0,1.49173062653317258632816108840964
117,5476.69345985580652336237789749489197,5475.2,1.49345985580652336237789749489197
118,5570.69517435267833912350789316078611,5569.2,1.49517435267833912350789316078611
119,5665.49687436615920583647734414396887,5664.0,1.49687436615920583647734414396887
120,5761.09856013899775635116198717216626,5759.6,1.49856013899775635116198717216626
121,5857.50023190788893717907526740314582,5856.0,1.50023190788893717907526740314582
122,5954.70188990367368779816503941101595,5953.2,1.50188990367368779816503941101595
123,6052.70353435153045126105733535794791,6051.2,1.50353435153045126105733535794791
124,6151.50516547115891720411015279627559,6150.0,1.50516547115891720411015279627559
125,6251.10678347695636878837704377818082,6249.6,1.50678347695636878837704377818082
126,6351.50838857818698990628282288703133,6350.0,1.50838857818698990628282288703133
127,6452.70998097914446840992724727655305,6451.2,1.50998097914446840992724727655305
128,6554.71156087930820852974272225251199,6553.2,1.51156087930820852974272225251199
129,6657.51312847349345357899383677747878,6656.0,1.51312847349345357899383677747878
130,6761.11468395199560165773943960890731,6759.6,1.51468395199560165773943960890731
131,6865.51622750072898166575982494650129,6864.0,1.51622750072898166575982494650129
132,6970.71775930136034195675086498686504,6969.2,1.51775930136034195675086498686504
133,7076.71927953143729218450278209866559,7075.2,1.51927953143729218450278209866559
134,7183.52078836451192761582274588257901,7182.0,1.52078836451192761582274588257901
135,7291.12228597025984707661772114721309,7289.6,1.52228597025984707661772114721309
136,7399.52377251459477201002366682887671,7398.0,1.52377251459477201002366682887671
137,7508.72524815977896081752379476003389,7507.2,1.52524815977896081752379476003389
138,7618.72671306452959904200781580829048,7617.2,1.52671306452959904200781580829048
139,7729.52816738412134384581860178192371,7728.0,1.52816738412134384581860178192371
140,7841.12961127048518579086435874788484,7839.6,1.52961127048518579086435874788484
141,7953.53104487230378637038452232308129,7952.0,1.53104487230378637038452232308129
142,8066.73246833510344166869051616296716,8065.2,1.53246833510344166869051616296716
143,8180.73388180134281387503315105336487,8179.2,1.53388180134281387503315105336487
144,8295.53528541049856519811164091576014,8294.0,1.53528541049856519811164091576014
145,8411.13667929914802453997986633902096,8409.6,1.53667929914802453997986633902096
146,8527.53806360104900941935491300564057,8526.0,1.53806360104900941935491300564057
147,8644.73943844721691743136668471595235,8643.2,1.53943844721691743136668471595235
148,8762.74080396599920257275408629059902,8761.2,1.54080396599920257275408629059902
149,8881.54216028314733823343920252591126,8880.0,1.54216028314733823343920252591126
150,9001.14350752188637049533340955690587,8999.6,1.54350752188637049533340955690587
151,9121.54484580298215765260590813717699,9120.0,1.54484580298215765260590813717699
152,9242.74617524480638625256026935423687,9241.2,1.54617524480638625256026935423687
153,9364.74749596339945260678812259697012,9363.2,1.54749596339945260678812259697012
154,9487.54880807253129367181692888325664,9486.0,1.54880807253129367181692888325664
155,9611.15011168376024553521924937479766,9609.6,1.55011168376024553521924937479766
156,9735.55140690649000737352081041463926,9734.0,1.55140690649000737352081041463926
157,9860.75269384802478192848434478799891,9859.2,1.55269384802478192848434478799891
158,9986.75397261362266431984420573668311,9985.2,1.55397261362266431984420573668311
159,10113.5552433065473428672984182803315,10112.0,1.5552433065473428672984182803315
160,10241.1565060281181782592692706042413,10239.6,1.5565060281181782592692706042413
161,10369.5577608777587195645247546430992,10368.0,1.5577608777587195645247546430992
162,10498.7590079530437165477336761517726,10497.2,1.5590079530437165477336761517726
163,10628.7602473497446831422249559280218,10627.2,1.5602473497446831422249559280218
164,10759.5614791618740667165177467880159,10758.0,1.5614791618740667165177467880159
165,10891.1627034817280717348113009655916,10889.6,1.5627034817280717348113009655916
166,11023.5639203999281883269946099222858,11022.0,1.5639203999281883269946099222858
167,11156.7651300054614730004668587135301,11155.2,1.5651300054614730004668587135301
168,11290.7663323857196241826536548078591,11289.2,1.5663323857196241826536548078591
169,11425.5675276265368976562807508379173,11424.0,1.5675276265368976562807508379173
170,11561.1687158122269016304928687064779,11559.6,1.5687158122269016304928687064779
171,11697.5698970256183116422494023890173,11696.0,1.5698970256183116422494023890173
172,11834.7710713480895431546266912623559,11833.2,1.5710713480895431546266912623559
173,11972.7722388596024172543287950212559,11971.2,1.5722388596024172543287950212559
174,12111.5733996387348552918924457691454,12110.0,1.5733996387348552918924457691454
175,12251.1745537627126364494904465433884,12249.6,1.5745537627126364494904465433884
176,12391.5757013074402479426578703540952,12390.0,1.5757013074402479426578703540952
177,12532.7768423475308611164498865287675,12531.2,1.5768423475308611164498865287675
178,12674.7779769563354625903988897003440,12673.2,1.5779769563354625903988897003440
179,12817.5791052059711668971881387020476,12816.0,1.5791052059711668971881387020476
180,12961.1802271673487415614122165749577,12959.6,1.5802271673487415614122165749577
181,13105.5813429101993672669818512140389,13104.0,1.5813429101993672669818512140389
182,13250.7824525031006608085298699080823,13249.2,1.5824525031006608085298699080823
183,13396.7835560135019838760635152031690,13395.2,1.5835560135019838760635152031690
184,13543.5846535077490619143705197092890,13542.0,1.5846535077490619143705197092890
185,13691.1857450511079348652735586669273,13689.6,1.5857450511079348652735586669273
186,13839.5868307077882607613233601549259,13838.0,1.5868307077882607613233601549259
187,13988.7879105409659959713992652374067,13987.2,1.5879105409659959713992652374067
188,14138.7889846128054675345024531430386,14137.2,1.5889846128054675345024531430386
189,14289.5900529844808613128004454767301,14288.0,1.5900529844808613128004454767301
190,14441.1911157161971416149683638385630,14439.6,1.5911157161971416149683638385630
191,14593.5921728672104215123461418677778,14592.0,1.5921728672104215123461418677778
192,14746.7932244958478002300814540923078,14745.2,1.5932244958478002300814540923078
193,14900.7942706595266859170724552242837,14899.2,1.5942706595266859170724552242837
194,15055.5953114147736171354585405255991,15054.0,1.5953114147736171354585405255991
195,15211.1963468172426010019828193924143,15209.6,1.5963468172426010019828193924143
196,15367.5973769217329816730907066999567,15366.0,1.5973769217329816730907066999567
197,15524.7984017822068535490496784683016,15523.2,1.5984017822068535490496784683016
198,15682.7994214518060333590328830245002,15681.2,1.5994214518060333590328830245002
199,15841.6004359828686039609841422416906,15840.0,1.6004359828686039609841422416906
200,16001.2014454269450437964268163732600,15999.6,1.6014454269450437964268163732600
201,16161.6024498348139529765971855290635,16160.0,1.6024498348139529765971855290635
202,16322.8034492564973893760157092620640,16321.2,1.6034492564973893760157092620640
203,16484.8044437412758253881796456953981,16483.2,1.6044437412758253881796456953981
204,16647.6054333377027369582406858517274,16646.0,1.6054333377027369582406858517274
205,16811.2064180936188348579813108630288,16809.6,1.6064180936188348579813108630288
206,16975.6073980561659512217887881307129,16974.0,1.6073980561659512217887881307129
207,17140.8083732718005872142541011906805,17139.2,1.6083732718005872142541011906805
208,17306.8093437863071360508024812745010,17305.2,1.6093437863071360508024812745010
209,17473.6103096448107871141849357844738,17472.0,1.6103096448107871141849357844738
210,17641.2112708917901226624319425612309,17639.6,1.6112708917901226624319425612309
211,17809.6122275710894144872275071025215,17808.0,1.6122275710894144872275071025215
212,17978.8131797259306307498278250858668,17977.2,1.6131797259306307498278250858668
213,18148.8141273989251573724145404293238,18147.2,1.6141273989251573724145404293238
214,18319.6150706320852489605680359173484,18318.0,1.6150706320852489605680359173484
215,18491.2160094668352084630876281121082,18489.6,1.6160094668352084630876281121082
216,18663.6169439440223095236112756248357,18662.0,1.6169439440223095236112756248357
217,18836.8178741039274654830722281463200,18835.2,1.6178741039274654830722281463200
218,19010.8187999862756540054376879308153,19009.2,1.6187999862756540054376879308153
219,19185.6197216302461005996606448042810,19184.0,1.6197216302461005996606448042810
220,19361.2206390744822335459673918529059,19359.6,1.6206390744822335459673918529059
221,19537.6215523571014081287657380681065,19536.0,1.6215523571014081287657380681065
222,19714.8224615157044173735340545009008,19713.2,1.6224615157044173735340545009008
223,19892.8233665873847828485171754088566,19891.2,1.6233665873847828485171754088566
224,20071.6242676087378405905218658062839,20070.0,1.6242676087378405905218658062839
225,20251.2251646158696247113493012334931,20249.6,1.6251646158696247113493012334931
226,20431.6260576444055522227995695086058,20430.0,1.6260576444055522227995695086058
227,20612.8269467294989177230893299385728,20611.2,1.6269467294989177230893299385728
228,20794.8278319058391997548763807965021,20793.2,1.6278319058391997548763807965021
229,20977.6287132076601859870288556144956,20976.0,1.6287132076601859870288556144956
230,21161.2295906687479219063698853600786,21159.6,1.6295906687479219063698853600786
231,21345.6304643224484848086545490940010,21344.0,1.6304643224484848086545490940010
232,21530.8313342016755934976863445482380,21529.2,1.6313342016755934976863445482380
233,21716.8322003389180486780636851576397,21715.2,1.6322003389180486780636851576397
234,21903.6330627662470201876085863891265,21902.0,1.6330627662470201876085863891265
235,22091.2339215153231742405634160264904,22089.6,1.6339215153231742405634160264904
236,22279.6347766174036503803098257165297,22278.0,1.6347766174036503803098257165297
237,22468.8356281033488917617226222285483,22467.2,1.6356281033488917617226222285483
238,22658.8364760036293304941547016629198,22657.2,1.6364760036293304941547016629198
