Eigenstate,Energy,Kinetic Energy,Potential Energy
1,0.500000000702909470319876254596410498,0.0,0.500000000702909470319876254596410498
2,1.84623094223944284607304243017507342,1.2,0.64623094223944284607304243017507342
3,3.93633762318328244063914997436743279,3.2,0.73633762318328244063914997436743279
4,6.79966530588933398036490223153996098,6.0,0.79966530588933398036490223153996098
5,10.4480466239204122375264566899502380,9.6,0.8480466239204122375264566899502380
6,14.8870660721336641159941522964008783,14.0,0.8870660721336641159941522964008783
7,20.1197209320168149137719310343393923,19.2,0.9197209320168149137719310343393923
8,26.1477839899745739356093331632098283,25.2,0.9477839899745739356093331632098283
9,32.9723837450311053501438752926299513,32.0,0.9723837450311053501438752926299513
10,40.5942804513480864473744465799496867,39.6,0.9942804513480864473744465799496867
11,49.0140096790772831828183240932859881,48.0,1.0140096790772831828183240932859881
12,58.2319625235328985742896526348442311,57.2,1.0319625235328985742896526348442311
13,68.2484331147898276045410921757864499,67.2,1.0484331147898276045410921757864499
14,79.0636481505402010746064106360800301,78.0,1.0636481505402010746064106360800301
15,90.6777860119078018591862855843557641,89.6,1.0777860119078018591862855843557641
16,103.090989568318656107907615807324137,102.0,1.090989568318656107907615807324137
17,116.303375010962633484504654148177503,115.2,1.103375010962633484504654148177503
18,130.315038103799711787350969533731593,129.2,1.115038103799711787350969533731593
19,145.126058706664000282231761558951883,144.0,1.126058706664000282231761558951883
20,160.736504112897709210909044545485579,159.6,1.136504112897709210909044545485579
21,177.146431555432871604015211217423248,176.0,1.146431555432871604015211217423248
22,194.355890117950102311745605477566952,193.2,1.155890117950102311745605477566952
23,212.364922212815137584378740303879256,211.2,1.164922212815137584378740303879256
24,231.173564738479269366949836408897803,230.0,1.173564738479269366949836408897803
25,250.781849996275281844893997605089824,249.6,1.181849996275281844893997605089824
26,271.189806424225047930056125338476273,270.0,1.189806424225047930056125338476273
27,292.397459190002112811550451536548767,291.2,1.197459190002112811550451536548767
28,314.404830674290740775446987288472052,313.2,1.204830674290740775446987288472052
29,337.211940867987873598724984417180962,336.0,1.211940867987873598724984417180962
30,360.818807701044961199545021947520239,359.6,1.218807701044961199545021947520239
31,385.225447316600686687300019259474467,384.0,1.225447316600686687300019259474467
32,410.431874300977708343405538961417744,409.2,1.231874300977708343405538961417744
33,436.438101877806893239396229502028375,435.2,1.238101877806893239396229502028375
34,463.244142072791970917796156424273958,462.0,1.244142072791970917796156424273958
35,490.850005854288340484405575834269953,489.6,1.250005854288340484405575834269953
36,519.255703253836285573736882193755645,518.0,1.255703253836285573736882193755645
37,548.461243469984767094483527267487158,547.2,1.261243469984767094483527267487158
38,578.466634958111544913925630009516745,577.2,1.266634958111544913925630009516745
39,609.271885508447530986937980744024149,608.0,1.271885508447530986937980744024149
40,640.877002314117455648841076890522712,639.6,1.277002314117455648841076890522712
41,673.281992030692178515371714536262577,672.0,1.281992030692178515371714536262577
42,706.486860828492982829793270142199883,705.2,1.286860828492982829793270142199883
43,740.491614438681705750874335220320563,739.2,1.291614438681705750874335220320563
44,775.296258194002463058878378201148551,774.0,1.296258194002463058878378201148551
45,810.900797064903157186860164145879289,809.6,1.300797064903157186860164145879289
46,847.305235691651821201302586662097971,846.0,1.305235691651821201302586662097971
47,884.509578412969374743270058436491011,883.2,1.309578412969374743270058436491011
48,922.513829291622781576597923510268015,921.2,1.313829291622781576597923510268015
49,961.317992137357935845424171207873732,960.0,1.317992137357935845424171207873732
50,1000.92207052749748142947343368419769,999.6,1.32207052749748142947343368419769
51,1041.32606782548330182285290073341013,1040.0,1.32606782548330182285290073341013
52,1082.52998719760507274768831118821286,1081.2,1.32998719760507274768831118821286
53,1124.53383162812381959529403844234448,1123.2,1.33383162812381959529403844234448
54,1167.33760393297186065606325370398519,1166.0,1.33760393297186065606325370398519
55,1210.94130677218704160672618506511109,1209.6,1.34130677218704160672618506511109
56,1255.34494266121909215350078973332124,1254.0,1.34494266121909215350078973332124
57,1300.54851398122873676456088927571267,1299.2,1.34851398122873676456088927571267
58,1346.55202298848539423900075537193220,1345.2,1.35202298848539423900075537193220
59,1393.35547182295654691224833412380178,1392.0,1.35547182295654691224833412380178
60,1440.95886251617083579025304903131035,1439.6,1.35886251617083579025304903131035
61,1489.36219699842737367734879023630453,1488.0,1.36219699842737367734879023630453
62,1538.56547710541546735767459025623821,1537.2,1.36547710541546735767459025623821
63,1588.56870458430169800111586658568654,1587.2,1.36870458430169800111586658568654
64,1639.37188109933499648492186252456019,1638.0,1.37188109933499648492186252456019
65,1690.97500823701481548230518621364353,1689.6,1.37500823701481548230518621364353
66,1743.37808751086265283040173116507940,1742.0,1.37808751086265283040173116507940
67,1796.58112036583291839878343555757698,1795.2,1.38112036583291839878343555757698
68,1850.58410818239538051905188736419687,1849.2,1.38410818239538051905188736419687
69,1905.38705228031811536546949057466892,1904.0,1.38705228031811536546949057466892
70,1960.98995392217695440847179462267291,1959.6,1.38995392217695440847179462267291
71,2017.39281431661482635935235211445712,2016.0,1.39281431661482635935235211445712
72,2074.59563462137209178219057622286747,2073.2,1.39563462137209178219057622286747
73,2132.59841594610691554288293449176912,2131.2,1.39841594610691554288293449176912
74,2191.40115935502290341676062580401802,2190.0,1.40115935502290341676062580401802
75,2251.00386586931959807537576589078026,2249.6,1.40386586931959807537576589078026
76,2311.40653646947998011647672411293195,2310.0,1.40653646947998011647672411293195
77,2372.60917209740781740298778751609090,2371.2,1.40917209740781740298778751609090
78,2434.61177365842654017884134241889606,2433.2,1.41177365842654017884134241889606
79,2497.41434202315027260973955501087896,2496.0,1.41434202315027260973955501087896
80,2561.01687802923671327150712489280672,2559.6,1.41687802923671327150712489280672
81,2625.41938248303070776746123377367500,2624.0,1.41938248303070776746123377367500
82,2690.62185616110659520591204552198828,2689.2,1.42185616110659520591204552198828
83,2756.62429981171672153537218750684406,2755.2,1.42429981171672153537218750684406
84,2823.42671415615288844360092526306475,2822.0,1.42671415615288844360092526306475
85,2891.02909989002694725070230317469510,2889.6,1.42909989002694725070230317469510
86,2959.43145768447623136138709080448056,2958.0,1.43145768447623136138709080448056
87,3028.63378818729906337099958888563405,3027.2,1.43378818729906337099958888563405
88,3098.63609202402514954246788655293283,3097.2,1.43609202402514954246788655293283
89,3169.43836979892529086948338081546075,3168.0,1.43836979892529086948338081546075
90,3241.04062209596449672480687314795158,3239.6,1.44062209596449672480687314795158
91,3313.44284947970226564087197293047130,3312.0,1.44284947970226564087197293047130
92,3386.64505249614350947265638949298729,3385.2,1.44505249614350947265638949298729
93,3460.64723167354333493808936295313286,3459.2,1.44723167354333493808936295313286
94,3535.44938752316865360288349138959983,3534.0,1.44938752316865360288349138959983
95,3611.05152054001937022302646406348848,3609.6,1.45152054001937022302646406348848
96,3687.45363120351169753643404272782630,3686.0,1.45363120351169753643404272782630
97,3764.65571997812596125356331027628298,3763.2,1.45571997812596125356331027628298
98,3842.65778731402108612289098700996610,3841.2,1.45778731402108612289098700996610
99,3921.45983364761780047541074482201207,3920.0,1.45983364761780047541074482201207
100,4001.06185940215245031232077138119763,3999.6,1.46185940215245031232077138119763
101,4081.46386498820318469637651866870958,4080.0,1.46386498820318469637651866870958
102,4162.66585080419014863313524954856420,4161.2,1.46585080419014863313524954856420
103,4244.66781723685121171518948690295952,4243.2,1.46781723685121171518948690295952
104,4327.46976466169465353828958675072968,4326.0,1.46976466169465353828958675072968
105,4411.07169344343013382500702153007431,4409.6,1.47169344343013382500702153007431
106,4495.47360393637918442789936284878796,4494.0,1.47360393637918442789936284878796
107,4580.67549648486638230273194713946503,4579.2,1.47549648486638230273194713946503
108,4666.67737142359228330334040871088684,4665.2,1.47737142359228330334040871088684
109,4753.47922907798912805678253113955505,4752.0,1.47922907798912805678253113955505
110,4841.08106976456026875791707886851977,4839.6,1.48106976456026875791707886851977
111,4929.48289379120419986199867581233698,4928.0,1.48289379120419986199867581233698
112,5018.68470145752402622090233406604341,5017.2,1.48470145752402622090233406604341
113,5108.68649305512314667348725135634206,5107.2,1.48649305512314667348725135634206
114,5199.48826886788788234356983093996118,5198.0,1.48826886788788234356983093996118
115,5291.09002917225773845120564489828814,5289.6,1.49002917225773845120564489828814
116,5383.49177423748394011210144555923975,5382.0,1.49177423748394011210144555923975
117,5476.69350432587685088776646575637055,5475.2,1.49350432587685088776646575637055
118,5570.69521969304284181872239957187914,5569.2,1.49521969304284181872239957187914
119,5665.49692058811114496023469827658294,5664.0,1.49692058811114496023469827658294
120,5761.09860725395119959867190380681221,5759.6,1.49860725395119959867190380681221
121,5857.50027992738096106027696654835273,5856.0,1.50027992738096106027696654835273
122,5954.70193883936662311194454364194269,5953.2,1.50193883936662311194454364194269
123,6052.70358421521417276166159620352455,6051.2,1.50358421521417276166159620352455
124,6151.50521627475317858747515472053064,6150.0,1.50521627475317858747515472053064
125,6251.10683523251318415865517611041643,6249.6,1.50683523251318415865517611041643
126,6351.50844129789306291652259572913760,6350.0,1.50844129789306291652259572913760
127,6452.71003467532367030566851619448246,6451.2,1.51003467532367030566851619448246
128,6554.71161556442410636029164757245288,6553.2,1.51161556442410636029164757245288
129,6657.51318416015188987837093166170773,6656.0,1.51318416015188987837093166170773
130,6761.11474065294732693580919119538636,6759.6,1.51474065294732693580919119538636
131,6865.51628522887234108988977611096985,6864.0,1.51628522887234108988977611096985
132,6970.71781806974401764557832752269084,6969.2,1.51781806974401764557832752269084
133,7076.71933935326310257803398087530654,7075.2,1.51933935326310257803398087530654
134,7183.52084925313768543025535015434632,7182.0,1.52084925313768543025535015434632
135,7291.12234793920227739797288588000581,7289.6,1.52234793920227739797288588000581
136,7399.52383557753249212798501551446304,7398.0,1.52383557753249212798501551446304
137,7508.72531233055552344988025527439320,7507.2,1.52531233055552344988025527439320
138,7618.72677835715660065082284872352516,7617.2,1.52677835715660065082284872352516
139,7729.52823381278159979899999401226403,7728.0,1.52823381278159979899999401226403
140,7841.12967884953597417724638796059151,7839.6,1.52967884953597417724638796059151
141,7953.53111361628016233282061436601173,7952.0,1.53111361628016233282061436601173
142,8066.73253825872162417810353409981799,8065.2,1.53253825872162417810353409981799
143,8180.73395291950364692893448939258283,8179.2,1.53395291950364692893448939258283
144,8295.53535773829105548987844069093114,8294.0,1.53535773829105548987844069093114
145,8411.13675285185295771026371038430346,8409.6,1.53675285185295771026371038430346
146,8527.53813839414264706848711679200265,8526.0,1.53813839414264706848711679200265
147,8644.73951449637477714160890823806082,8643.2,1.53951449637477714160890823806082
148,8762.74088128709992326183514144027997,8761.2,1.54088128709992326183514144027997
149,8881.54223889227663323613134837562315,8880.0,1.54223889227663323613134837562315
150,9001.14358743534107084795778020977579,8999.6,1.54358743534107084795778020977579
151,9121.54492703727434813645331404903337,9120.0,1.54492703727434813645331404903337
152,9242.74625781666763683637132549066259,9241.2,1.54625781666763683637132549066259
153,9364.74757988978514801582624693915557,9363.2,1.54757988978514801582624693915557
154,9487.54889337062506390177942855410399,9486.0,1.54889337062506390177942855410399
155,9611.15019837097850022345926828589538,9609.6,1.55019837097850022345926828589538
156,9735.55149500048657703791410815126502,9734.0,1.55149500048657703791410815126502
157,9860.75278336669566918593628896449394,9859.2,1.55278336669566918593628896449394
158,9986.75406357511090830208044066845973,9985.2,1.55406357511090830208044066845973
159,10113.5553357292480001613677104322767,10112.0,1.5553357292480001613677104322767
160,10241.1565999306834238143089926998204,10239.6,1.5565999306834238143089926998204
161,10369.5578562791030711249862198265187,10368.0,1.5578562791030711249862198265187
162,10498.7591048723493862966467045215379,10497.2,1.5591048723493862966467045215379
163,10628.7603458064670603663969575950092,10627.2,1.5603458064670603663969575950092
164,10759.5615791757473354390564906833965,10758.0,1.5615791757473354390564906833965
165,10891.1628050727709673992548699499615,10889.6,1.5628050727709673992548699499615
166,11023.5640235884498977618763359061661,11022.0,1.5640235884498977618763359061661
167,11156.7652348120676820436032363587196,11155.2,1.5652348120676820436032363587196
168,11290.7664388313187175010941689062084,11289.2,1.5664388313187175010941689062084
169,11425.5676357323463154609712934408149,11424.0,1.5676357323463154609712934408149
170,11561.1688255997796581546171033165818,11559.6,1.5688255997796581546171033165818
171,11697.5700085167696804292064649798593,11696.0,1.5700085167696804292064649798593
172,11834.7711845650239143860434319165803,11833.2,1.5711845650239143860434319165803
173,11972.7723538248403325407269830440726,11971.2,1.5723538248403325407269830440726
174,12111.5735163751402255490228276375966,12110.0,1.5735163751402255490228276375966
175,12251.1746722935001486922918415628513,12249.6,1.5746722935001486922918415628513
176,12391.5758216561829670467191891841392,12390.0,1.5758216561829670467191891841392
177,12532.7769645381680328241656287805668,12531.2,1.5769645381680328241656287805668
178,12674.7781010131805242762118410347261,12673.2,1.5781010131805242762118410347261
179,12817.5792311537199728538592827434840,12816.0,1.5792311537199728538592827434840
180,12961.1803550310880098276724192825603,12959.6,1.5803550310880098276724192825603
181,13105.5814727154153552867510325909688,13104.0,1.5814727154153552867510325909688
182,13250.7825842756880774936857267221200,13249.2,1.5825842756880774936857267221200
183,13396.7836897797731459391532460795851,13395.2,1.5836897797731459391532460795851
184,13543.5847892944433026452670974430158,13542.0,1.5847892944433026452670974430158
185,13691.1858828854012738472946253210811,13689.6,1.5858828854012738472946253210811
186,13839.5869706173033433584651261709765,13838.0,1.5869706173033433584651261709765
187,13988.7880525537823117698270588261487,13987.2,1.5880525537823117698270588261487
188,14138.7891287574698572891037482196204,14137.2,1.5891287574698572891037482196204
189,14289.5901992900183223342710565592456,14288.0,1.5901992900183223342710565592456
190,14441.1912642121219419354672460049061,14439.6,1.5912642121219419354672460049061
191,14593.5923235835375335891767784691964,14592.0,1.5923235835375335891767784691964
192,14746.7933774631046653881208775915056,14745.2,1.5933774631046653881208775915056
193,14900.7944259087653211928497040518498,14899.2,1.5944259087653211928497040518498
194,15055.5954689775830766700103439455833,15054.0,1.5954689775830766700103439455833
195,15211.1965067257618046370522221619575,15209.6,1.5965067257618046370522221619575
196,15367.5975392086639239372091077910364,15366.0,1.5975392086639239372091077910364
197,15524.7985664808282067778183476493390,15523.2,1.5985664808282067778183476493390
198,15682.7995885959871592790077559170197,15681.2,1.5995885959871592790077559170197
199,15841.6006056070839886804198676680416,15840.0,1.6006056070839886804198676680416
200,16001.2016175662891717903794136150085,15999.6,1.6016175662891717903794136150085
201,16161.6026245250166363302605205998639,16160.0,1.6026245250166363302605205998639
202,16322.8036265339395692604608331674501,16321.2,1.6036265339395692604608331674501
203,16484.8046236430058634888015455399561,16483.2,1.6046236430058634888015455399561
204,16647.6056159014532153603123482407104,16646.0,1.6056159014532153603123482407104
205,16811.2066033578238837178879069187931,16809.6,1.6066033578238837178879069187931
206,16975.6075860599791244191559054438803,16974.0,1.6075860599791244191559054438803
207,17140.8085640551133070917616356013681,17139.2,1.6085640551133070917616356013681
208,17306.8095373897677293076079496390986,17305.2,1.6095373897677293076079496390986
209,17473.6105061098441349284615972200422,17472.0,1.6105061098441349284615972200422
210,17641.2114702606179491814855946552295,17639.6,1.6114702606179491814855946552295
211,17809.6124298867512389432955583621089,17808.0,1.6124298867512389432955583621089
212,17978.8133850323054096393373248530056,17977.2,1.6133850323054096393373248530056
213,18148.8143357407536443799168961148158,18147.2,1.6143357407536443799168961148158
214,18319.6152820549931016196409756697940,18318.0,1.6152820549931016196409756697940
215,18491.2162240173568719294324351936752,18489.6,1.6162240173568719294324351936752
216,18663.6171616696257092948253925833219,18662.0,1.6171616696257092948253925833219
217,18836.8180950530395424399530817943686,18835.2,1.6180950530395424399530817943686
218,19010.8190242083087767763089719031733,19009.2,1.6190242083087767763089719031733
219,19185.6199491756253919675930196603186,19184.0,1.6199491756253919675930196603186
220,19361.2208699946738494347792965326930,19359.6,1.6208699946738494347792965326930
221,19537.6217867046418096236984080989916,19536.0,1.6217867046418096236984080989916
222,19714.8226993442306782631901607933135,19713.2,1.6226993442306782631901607933135
223,19892.8236079516659773234066442625197,19891.2,1.6236079516659773234066442625197
224,20071.6245125647075580080773482286301,20070.0,1.6245125647075580080773482286301
225,20251.2254132206596607460655272580808,20249.6,1.6254132206596607460655272580808
226,20431.6263099563808282721111410234736,20430.0,1.6263099563808282721111410234736
227,20612.8272028082936831445235293718333,20611.2,1.6272028082936831445235293718333
228,20794.8280918123945743782919832265819,20793.2,1.6280918123945743782919832265819
229,20977.6289770042631033886631683027761,20976.0,1.6289770042631033886631683027761
230,21161.2298584190715371610178189805142,21159.6,1.6298584190715371610178189805142
231,21345.6307360915941138656863219654623,21344.0,1.6307360915941138656863219654623
232,21530.8316100562162549698879673376731,21529.2,1.6316100562162549698879673376731
233,21716.8324803469436827045760544658071,21715.2,1.6324803469436827045760544658071
234,21903.6333469974114631500311725786942,21902.0,1.6333469974114631500311725786942
235,22091.2342100408929724922852593179552,22089.6,1.6342100408929724922852593179552
236,22279.6350695103088008125380065003110,22278.0,1.6350695103088008125380065003110
237,22468.8359254382356019961910458357405,22467.2,1.6359254382356019961910458357405
238,22658.8367778569148967846709681758652,22657.2,1.6367778569148967846709681758652
