Eigenstate,Energy,Kinetic Energy,Potential Energy
1,0.500000000029707852671837002756248234,0.0,0.500000000029707852671837002756248234
2,1.84623093784503192421670452550856473,1.2,0.64623093784503192421670452550856473
3,3.93633761027459156530868960702976293,3.2,0.73633761027459156530868960702976293
4,6.79966527900068245406129140341207020,6.0,0.79966527900068245406129140341207020
5,10.4480465773408462463650129924215557,9.6,0.8480465773408462463650129924215557
6,14.8870660000504299173299989929841269,14.0,0.8870660000504299173299989929841269
7,20.1197208285679228962653624091559263,19.2,0.9197208285679228962653624091559263
8,26.1477838492704432721859389834647689,25.2,0.9477838492704432721859389834647689
9,32.9723835611643741738317839658683918,32.0,0.9723835611643741738317839658683918
10,40.5942802183983559404611929946519052,39.6,0.9942802183983559404611929946519052
11,49.0140093911134761218123998048840310,48.0,1.0140093911134761218123998048840310
12,58.2319621746144015605530029432034296,57.2,1.0319621746144015605530029432034296
13,68.2484326989669704359575146722224582,67.2,1.0484326989669704359575146722224582
14,79.0636476618543539331278397549260444,78.0,1.0636476618543539331278397549260444
15,90.6777854443912412125447089448968406,89.6,1.0777854443912412125447089448968406
16,103.090988915994284595209843820146000,102.0,1.090988915994284595209843820146000
17,116.303374267843604075346855626592075,115.2,1.103374267843604075346855626592075
18,130.315037263888986989576952169844762,129.2,1.115037263888986989576952169844762
19,145.126057763953865843910286615498105,144.0,1.126057763953865843910286615498105
20,160.736503061369254949424720636434866,159.6,1.136503061369254949424720636434866
21,177.146430389055447769015079294088963,176.0,1.146430389055447769015079294088963
22,194.355888830680757193190554015858228,193.2,1.155888830680757193190554015858228
23,212.364920798598040314308947557049159,211.2,1.164920798598040314308947557049159
24,231.173563191245120684692162247676733,230.0,1.173563191245120684692162247676733
25,250.781848309940714790690144369316966,249.6,1.181848309940714790690144369316966
26,271.189804592692019872379356749353233,270.0,1.189804592692019872379356749353233
27,292.397457207157289817351529641842717,291.2,1.197457207157289817351529641842717
28,314.404828534004875047874462302621136,313.2,1.204828534004875047874462302621136
29,337.211938564115174499154105321489989,336.0,1.211938564115174499154105321489989
30,360.818805227422460217088134120516655,359.6,1.218805227422460217088134120516655
31,385.225444667047596603789965301602313,384.0,1.225444667047596603789965301602313
32,410.431871469294776754415428366026300,409.2,1.231871469294776754415428366026300
33,436.438098857775750524684683158096757,435.2,1.238098857775750524684683158096757
34,463.244138858174472702338669160582515,462.0,1.244138858174472702338669160582515
35,490.850002438825904590083920416788646,489.6,1.250002438825904590083920416788646
36,519.255699631249223429052168569440926,518.0,1.255699631249223429052168569440926
37,548.461239633971609543310318588531218,547.2,1.261239633971609543310318588531218
38,578.466630902348362342841211394559918,577.2,1.266630902348362342841211394559918
39,609.271881226587247672921804614181615,608.0,1.271881226587247672921804614181615
40,640.876997799789158214301835345708974,639.6,1.276997799789158214301835345708974
41,673.281987277500418364884035522116589,672.0,1.281987277500418364884035522116589
42,706.486855830017072432118189141310373,705.2,1.286855830017072432118189141310373
43,740.491609188475008620419460183906156,739.2,1.291609188475008620419460183906156
44,775.296252685591677282429980340813993,774.0,1.296252685591677282429980340813993
45,810.900791291787592333956818666486182,809.6,1.300791291787592333956818666486182
46,847.305229647302668449835795402098265,846.0,1.305229647302668449835795402098265
47,884.509572090828970045647726493770328,883.2,1.309572090828970045647726493770328
48,922.513822685103861685973070390194191,921.2,1.313822685103861685973070390194191
49,961.317985239842887015980885154392139,960.0,1.317985239842887015980885154392139
50,1000.92206333233758059950032402674695,999.6,1.32206333233758059950032402674695
51,1041.32606032599795008425513438561831,1040.0,1.32606032599795008425513438561831
52,1082.52997938708102090064626628715292,1081.2,1.32997938708102090064626628715292
53,1124.53382349981438558192511588605575,1123.2,1.33382349981438558192511588605575
54,1167.33759548009613866214674664256567,1166.0,1.33759548009613866214674664256567
55,1210.94129798792910261578306752594164,1209.6,1.34129798792910261578306752594164
56,1255.34493353872717573275296203725386,1254.0,1.34493353872717573275296203725386
57,1300.54850451361443385750915476487671,1299.2,1.34850451361443385750915476487671
58,1346.55201316882282073453232830143732,1345.2,1.35201316882282073453232830143732
59,1393.35546164428150775530912294448296,1392.0,1.35546164428150775530912294448296
60,1440.95885197147997939416967150969724,1439.6,1.35885197147997939416967150969724
61,1489.36218608067733639285670852269569,1488.0,1.36218608067733639285670852269569
62,1538.56546580752200774858576096000779,1537.2,1.36546580752200774858576096000779
63,1588.56869289913882067133608354337424,1587.2,1.36869289913882067133608354337424
64,1639.37186901973406519619061432886872,1638.0,1.37186901973406519619061432886872
65,1690.97499575576365529657098491081637,1689.6,1.37499575576365529657098491081637
66,1743.37807462070464100515999885641101,1742.0,1.37807462070464100515999885641101
67,1796.58110705946606375797863136977635,1795.2,1.38110705946606375797863136977635
68,1850.58409445247139101627641796590249,1849.2,1.38409445247139101627641796590249
69,1905.38703811944145355016763597060511,1904.0,1.38703811944145355016763597060511
70,1960.98993932290388049968186489078254,1959.6,1.38993932290388049968186489078254
71,2017.39279927145242862516673382249053,2016.0,1.39279927145242862516673382249053
72,2074.59561912277730391660088231956384,2073.2,1.39561912277730391660088231956384
73,2132.59839998648552072497195834026565,2131.2,1.39839998648552072497195834026565
74,2191.40114292672852473032175457757722,2190.0,1.40114292672852473032175457757722
75,2251.00384896465267495995775525365292,2249.6,1.40384896465267495995775525365292
76,2311.40651908068673051357513196419323,2310.0,1.40651908068673051357513196419323
77,2372.60915421667918525361526356140604,2371.2,1.40915421667918525361526356140604
78,2434.61175527789712792100668445502695,2433.2,1.41175527789712792100668445502695
79,2497.41432313489725831644216621039089,2496.0,1.41432313489725831644216621039089
80,2561.01685862527875206170121643939760,2559.6,1.41685862527875206170121643939760
81,2625.41936255532681711405072669283567,2624.0,1.41936255532681711405072669283567
82,2690.62183570155502375620297829552395,2689.2,1.42183570155502375620297829552395
83,2756.62427881215380105052055815869011,2755.2,1.42427881215380105052055815869011
84,2823.42669260835186845444163228075100,2822.0,1.42669260835186845444163228075100
85,2891.02907778569681201792533669349934,2889.6,1.42907778569681201792533669349934
86,2959.43143501526049871832769686701167,2958.0,1.43143501526049871832769686701167
87,3028.63376494477456501731868349420916,3027.2,1.43376494477456501731868349420916
88,3098.63606819970079234671522038411860,3097.2,1.43606819970079234671522038411860
89,3169.43834538424079872794353064745381,3168.0,1.43834538424079872794353064745381
90,3241.04059708228913251311486570971863,3239.6,1.44059708228913251311486570971863
91,3313.44282385833353278364802599205681,3312.0,1.44282385833353278364802599205681
92,3386.64502625830583264483287689903578,3385.2,1.44502625830583264483287689903578
93,3460.64720481038671939967347827317369,3459.2,1.44720481038671939967347827317369
94,3535.44936002576732265661132305388243,3534.0,1.44936002576732265661132305388243
95,3611.05149239937038027170014969493636,3609.6,1.45149239937038027170014969493636
96,3687.45360241053353020368735636624023,3686.0,1.45360241053353020368735636624023
97,3764.65569052365709201834749410639061,3763.2,1.45569052365709201834749410639061
98,3842.65775718881852890411849149184214,3841.2,1.45775718881852890411849149184214
99,3921.45980284235562758890226746708180,3920.0,1.45980284235562758890226746708180
100,4001.06182790742028720747518194257324,3999.6,1.46182790742028720747518194257324
101,4081.46383279450467886479940895886334,4080.0,1.46383279450467886479940895886334
102,4162.66581790194141206580515483856679,4161.2,1.46581790194141206580515483856679
103,4244.66778361637923626860076367261502,4243.2,1.46778361637923626860076367261502
104,4327.46973031323569855335745001738430,4326.0,1.46973031323569855335745001738430
105,4411.07165835712808532535829394928546,4409.6,1.47165835712808532535829394928546
106,4495.47356810228388520645762822248590,4494.0,1.47356810228388520645762822248590
107,4580.67545989293193218724140470847176,4579.2,1.47545989293193218724140470847176
108,4666.67733406367530887262475556368923,4665.2,1.47733406367530887262475556368923
109,4753.47919093984702106008888387934607,4752.0,1.47919093984702106008888387934607
110,4841.08103083784939246963423849209425,4839.6,1.48103083784939246963423849209425
111,4929.48285406547806258332850596003002,4928.0,1.48285406547806258332850596003002
112,5018.68466092223142111869442712052326,5017.2,1.48466092223142111869442712052326
113,5108.68645169960625712438838122905683,5107.2,1.48645169960625712438838122905683
114,5199.48822668138035192886435045060239,5198.0,1.48822668138035192886435045060239
115,5291.08998614388270472421531886089550,5289.6,1.48998614388270472421531886089550
116,5383.49173035625203123573589094941590,5382.0,1.49173035625203123573589094941590
117,5476.69345958068414421474321638607518,5475.2,1.49345958068414421474321638607518
118,5570.69517407266878346108771182818939,5569.2,1.49517407266878346108771182818939
119,5665.49687408121642936806874499367208,5664.0,1.49687408121642936806874499367208
120,5761.09855984907560814023552731185241,5759.6,1.49855984907560814023552731185241
121,5857.50023161294115856730920610205030,5856.0,1.50023161294115856730920610205030
122,5954.70188960365391132432935607513948,5953.2,1.50188960365391132432935607513948
123,6052.70353404639219957519607683938255,6051.2,1.50353404639219957519607683938255
124,6151.50516516085560197697027191813217,6150.0,1.50516516085560197697027191813217
125,6251.10678316144128961603156374972135,6249.6,1.50678316144128961603156374972135
126,6351.50838825741333320989573125818531,6350.0,1.50838825741333320989573125818531
127,6452.70998065306530633060717095462704,6451.2,1.50998065306530633060717095462704
128,6554.71156054787649781843205457557870,6553.2,1.51156054787649781843205457557870
129,6657.51312813666203448133962102511123,6656.0,1.51312813666203448133962102511123
130,6761.11468360971719679389193497180635,6759.6,1.51468360971719679389193497180635
131,6865.51622715295619490504423586725004,6864.0,1.51622715295619490504423586725004
132,6970.71775894804565728715737561212861,6969.2,1.51775894804565728715737561212861
133,7076.71927917253307257693962322986647,7075.2,1.51927917253307257693962322986647
134,7183.52078799997041388307659043849282,7182.0,1.52078799997041388307659043849282
135,7291.12228560003315672696532893204704,7289.6,1.52228560003315672696532893204704
136,7399.52377213863489809543826028628353,7398.0,1.52377213863489809543826028628353
137,7508.72524777803777077641928098024277,7507.2,1.52524777803777077641928098024277
138,7618.72671267695883353646347081932467,7617.2,1.52671267695883353646347081932467
139,7729.52816699067261559322646224327570,7728.0,1.52816699067261559322646224327570
140,7841.12961087110997838994112662941341,7839.6,1.52961087110997838994112662941341
141,7953.53104446695345312148931227209291,7952.0,1.53104446695345312148931227209291
142,8066.73246792372920438838939838386533,8065.2,1.53246792372920438838939838386533
143,8180.73388138389576170485094799484758,8179.2,1.53388138389576170485094799484758
144,8295.53528498692965340741099340418832,8294.0,1.53528498692965340741099340418832
145,8411.13667886940807332290714474475432,8409.6,1.53667886940807332290714474475432
146,8527.53806316508870268579206142707641,8526.0,1.53806316508870268579206142707641
147,8644.73943800498680159182762859212590,8643.2,1.53943800498680159182762859212590
148,8762.74080351744968531716388975864021,8761.2,1.54080351744968531716388975864021
149,8881.54215982822868730373361714561353,8880.0,1.54215982822868730373361714561353
150,9001.14350706054871245181607797969262,8999.6,1.54350706054871245181607797969262
151,9121.54484533517547663399986556835053,9120.0,1.54484533517547663399986556835053
152,9242.74617477048052272968998819405410,9241.2,1.54617477048052272968998819405410
153,9364.74749548250410212982782187213472,9363.2,1.54749548250410212982782187213472
154,9487.54880758501600561104035548226736,9486.0,1.54880758501600561104035548226736
155,9611.15011118957442181518562464476129,9609.6,1.55011118957442181518562464476129
156,9735.55140640558290120063108711032827,9734.0,1.55140640558290120063108711032827
157,9860.75269334034549651184151714781032,9859.2,1.55269334034549651184151714781032
158,9986.75397209912015158535070780997947,9985.2,1.55397209912015158535070780997947
159,10113.5552427851704021649232575373706,10112.0,1.5552427851704021649232575373706
160,10241.1565054998154550634169185558107,10239.6,1.5565054998154550634169185558107
161,10369.5577603424787041674373084735343,10368.0,1.5577603424787041674373084735343
162,10498.7590074107347427458572071104639,10497.2,1.5590074107347427458572071104639
163,10628.7602468003549269154704915034492,10627.2,1.5602468003549269154704915034492
164,10759.5614786053515449003466450112571,10758.0,1.5614786053515449003466450112571
165,10891.1627029180206406850742757628675,10889.6,1.5627029180206406850742757628675
166,11023.5639198289835425774530787679024,11022.0,1.5639198289835425774530787679024
167,11156.7651294272271439129247104031167,11155.2,1.5651294272271439129247104031167
168,11290.7663318001429785896268437418947,11289.2,1.5663318001429785896268437418947
169,11425.5675270335651364961317145577822,11424.0,1.5675270335651364961317145577822
170,11561.1687152118070585749559265804013,11559.6,1.5687152118070585749559265804013
171,11697.5698964176972517162728819712642,11696.0,1.5698964176972517162728819712642
172,11834.7710707326139613484567560591582,11833.2,1.5710707326139613484567560591582
173,11972.7722382365188371277594405130468,11971.2,1.5722382365188371277594405130468
174,12111.5733990079896275706053755546172,12110.0,1.5733990079896275706053755546172
175,12251.1745531242519376134080273430472,12249.6,1.5745531242519376134080273430472
176,12391.5757006612100788062315865216558,12390.0,1.5757006612100788062315865216558
177,12532.7768416934770454008061302423747,12531.2,1.5768416934770454008061302423747
178,12674.7779762944036454872632805150179,12673.2,1.5779762944036454872632805150179
179,12817.5791045361068136245087807464231,12816.0,1.5791045361068136245087807464231
180,12961.1802264894971359106017500387054,12959.6,1.5802264894971359106017500387054
181,13105.5813422243056101416974170281084,13104.0,1.5813422243056101416974170281084
182,13250.7824518091096687549093455739899,13249.2,1.5824518091096687549093455739899
183,13396.7835553113584876043358099850569,13395.2,1.5835553113584876043358099850569
184,13543.5846527973976048117568440781794,13542.0,1.5846527973976048117568440781794
185,13691.1857443324928715000959771098452,13689.6,1.5857443324928715000959771098452
186,13839.5868299808537553782362058859104,13838.0,1.5868299808537553782362058859104
187,13988.7879098056560209776581735727204,13987.2,1.5879098056560209776581735727204
188,14138.7889838690638019771851156286933,14137.2,1.5889838690638019771851156286933
189,14289.5900522322510893468923670588306,14288.0,1.5900522322510893468923670588306
190,14441.1911149554226509622261810252678,14439.6,1.5911149554226509622261810252678
191,14593.5921720978344019108502467737110,14592.0,1.5921720978344019108502467737110
192,14746.7932237178132418743889524349691,14745.2,1.5932237178132418743889524349691
193,14900.7942698727763778888806195839496,14899.2,1.5942698727763778888806195839496
194,15055.5953106192501458246881951867895,15054.0,1.5953106192501458246881951867895
195,15211.1963460128883485181901955043841,15209.6,1.5963460128883485181901955043841
196,15367.5973761084901242471156146333833,15366.0,1.5973761084901242471156146333833
197,15524.7984009600173599248068606041791,15523.2,1.5984009600173599248068606041791
198,15682.7994206206116631753527384531763,15681.2,1.5994206206116631753527384531763
199,15841.6004351426109061234079990316087,15840.0,1.6004351426109061234079990316087
200,16001.2014445775653548388612213169748,15999.6,1.6014445775653548388612213169748
201,16161.6024489762533954127307452400005,16160.0,1.6024489762533954127307452400005
202,16322.8034483886968700404010865174840,16321.2,1.6034483886968700404010865174840
203,16484.8044428641760337668825795663368,16483.2,1.6044428641760337668825795663368
204,16647.6054324512441435089568387662256,16646.0,1.6054324512441435089568387662256
205,16811.2064171977416893195209393900485,16809.6,1.6064171977416893195209393900485
206,16975.6073971508102809128282993763926,16974.0,1.6073971508102809128282993763926
207,17140.8083723569061953212526337830194,17139.2,1.6083723569061953212526337830194
208,17306.8093428618135999049806531023340,17305.2,1.6093428618135999049806531023340
209,17473.6103087106574564574620836661880,17472.0,1.6103087106574564574620836661880
210,17641.2112699479161179022169965552102,17639.6,1.6112699479161179022169965552102
211,17809.6122266174336249399579515373234,17808.0,1.6122266174336249399579515373234
212,17978.8131787624317128731499840282531,17977.2,1.6131787624317128731499840282531
213,18148.8141264255215329858975161212317,18147.2,1.6141264255215329858975161212317
214,18319.6150696487151034548426398604489,18318.0,1.6150696487151034548426398604489
215,18491.2160084734364889973006439601501,18489.6,1.6160084734364889973006439601501
216,18663.6169429405327232110842389839083,18662.0,1.6169429405327232110842389839083
217,18836.8178730902844775650530302497446,18835.2,1.6178730902844775650530302497446
218,19010.8187989624164860128321863540787,19009.2,1.6187989624164860128321863540787
219,19185.6197205961077285026303277827075,19184.0,1.6197205961077285026303277827075
220,19361.2206380300013858912782069115561,19359.6,1.6206380300013858912782069115561
221,19537.6215513022145641647719712959694,19536.0,1.6215513022145641647719712959694
222,19714.8224604503478051626801177246302,19713.2,1.6224604503478051626801177246302
223,19892.8233655114943773672390219057931,19891.2,1.6233655114943773672390219057931
224,20071.6242665222493618164286814926590,20070.0,1.6242665222493618164286814926590
225,20251.2251635187185356975648116087402,20249.6,1.6251635187185356975648116087402
226,20431.6260565365270571593413472842873,20430.0,1.6260565365270571593413472842873
227,20612.8269456108279599851631895536013,20611.2,1.6269456108279599851631895536013
228,20794.8278307763104599379618109380315,20793.2,1.6278307763104599379618109380315
229,20977.6287120672080799286302370324786,20976.0,1.6287120672080799286302370324786
230,21161.2295895173065986943069881510063,21159.6,1.6295895173065986943069881510063
231,21345.6304631599518247757646909338825,21344.0,1.6304631599518247757646909338825
232,21530.8313330280572062028091992997632,21529.2,1.6313330280572062028091992997632
233,21716.8321991541112708731785905860995,21715.2,1.6321991541112708731785905860995
234,21903.6330615701849137709928804218185,21902.0,1.6330615701849137709928804218185
235,22091.2339203079385241958390597615968,22089.6,1.6339203079385241958390597615968
236,22279.6347753986289627012442910017909,22278.0,1.6347753986289627012442910017909
237,22468.8356268731163913626486360321574,22467.2,1.6356268731163913626486360321574
238,22658.8364747618709591058721786525103,22657.2,1.6364747618709591058721786525103
