Eigenstate,Energy,Kinetic Energy,Potential Energy
1,0.500000000056908136955197304710668976,0.0,0.500000000056908136955197304710668976
2,1.84623093802258155688528979649739478,1.2,0.64623093802258155688528979649739478
3,3.93633761079613088998061857586631932,3.2,0.73633761079613088998061857586631932
4,6.79966528008699389655070845721298877,6.0,0.79966528008699389655070845721298877
5,10.4480465792225700747366592569455742,9.6,0.8480465792225700747366592569455742
6,14.8870660029622492863186296112601847,14.0,0.8870660029622492863186296112601847
7,20.1197208327464219855866024990062641,19.2,0.9197208327464219855866024990062641
8,26.1477838549532146680208676126441530,25.2,0.9477838549532146680208676126441530
9,32.9723835685896043758191561435944465,32.0,0.9723835685896043758191561435944465
10,40.5942802278046155184606656718668956,39.6,0.9942802278046155184606656718668956
11,49.0140094027396062131232116882128875,48.0,1.0140094027396062131232116882128875
12,58.2319621886994494614460040938637825,57.2,1.0319621886994494614460040938637825
13,68.2484327157501519210155928219184913,67.2,1.0484327157501519210155928219184913
14,79.0636476815750309571697077608017473,78.0,1.0636476815750309571697077608017473
15,90.6777854672889088932701576037649924,89.6,1.0777854672889088932701576037649924
16,103.090988942308564026253903599088372,102.0,1.090988942308564026253903599088372
17,116.303374297814238932675830314854249,115.2,1.103374297814238932675830314854249
18,130.315037297755842682546972297540624,129.2,1.115037297755842682546972297540624
19,145.126057801956930420000268127917134,144.0,1.126057801956930420000268127917134
20,160.736503103748641236853051165306779,159.6,1.136503103748641236853051165306779
21,177.146430436051396412144179579113653,176.0,1.146430436051396412144179579113653
22,194.355888882533640344475373637274831,193.2,1.155888882533640344475373637274831
23,212.364920855548365817707064529845465,211.2,1.164920855548365817707064529845465
24,231.173563253533536633028406365927123,230.0,1.173563253533536633028406365927123
25,250.781848377808014371926703010553079,249.6,1.181848377808014371926703010553079
26,271.189804666379146442298582785197776,270.0,1.189804666379146442298582785197776
27,292.397457286905342152099841986578721,291.2,1.197457286905342152099841986578721
28,314.404828620055112741256771653398958,313.2,1.204828620055112741256771653398958
29,337.211938656709023477896656784121107,336.0,1.211938656709023477896656784121107
30,360.818805326801518353430022056577412,359.6,1.218805326801518353430022056577412
31,385.225444773453639409348745832241769,384.0,1.225444773453639409348745832241769
32,410.431871582969763142733551487324341,409.2,1.231871582969763142733551487324341
33,436.438098978961828632503752112319269,435.2,1.238098978961828632503752112319269
34,463.244138987113985761682165811818914,462.0,1.244138987113985761682165811818914
35,490.850002575761396844809734876037060,489.6,1.250002575761396844809734876037060
36,519.255699776423446090775326163327244,518.0,1.255699776423446090775326163327244
37,548.461239787627526782575440782524823,547.2,1.261239787627526782575440782524823
38,578.466631064729157312203706216998588,577.2,1.266631064729157312203706216998588
39,609.271881397936328559221758927277097,608.0,1.271881397936328559221758927277097
40,640.876997980350164317919078879462764,639.6,1.276997980350164317919078879462764
41,673.281987467517226204172569005540071,672.0,1.281987467517226204172569005540071
42,706.486856029733801871553041195906118,705.2,1.286856029733801871553041195906118
43,740.491609398136029021264276720473276,739.2,1.291609398136029021264276720473276
44,775.296252905441613674961020672085577,774.0,1.296252905441613674961020672085577
45,810.900791522071331610467967762283767,809.6,1.300791522071331610467967762283767
46,847.305229888265365577806937160201824,846.0,1.305229888265365577806937160201824
47,884.509572342716054300591082636332895,883.2,1.309572342716054300591082636332895
48,922.513822948161042903583636010554264,921.2,1.313822948161042903583636010554264
49,961.317985514316161863311469448296838,960.0,1.317985514316161863311469448296838
50,1000.92206361847323886496192118831961,999.6,1.32206361847323886496192118831961
51,1041.32606062404258098631190872569732,1040.0,1.32606062404258098631190872569732
52,1082.52997969728151941513315790468849,1081.2,1.32997969728151941513315790468849
53,1124.53382382241795878796662208838017,1123.2,1.33382382241795878796662208838017
54,1167.33759581535031210669915425123313,1166.0,1.33759581535031210669915425123313
55,1210.94129833608172669686034775621706,1209.6,1.34129833608172669686034775621706
56,1255.34493390002643210142953677289988,1254.0,1.34493390002643210142953677289988
57,1300.54850488830884183882162003530338,1299.2,1.34850488830884183882162003530338
58,1346.55201355716124376742765264956685,1345.2,1.35201355716124376742765264956685
59,1393.35546204651315985180909385720305,1392.0,1.35546204651315985180909385720305
60,1440.95885238785443161794117880067591,1439.6,1.35885238785443161794117880067591
61,1489.36218651144452335739500704158822,1488.0,1.36218651144452335739500704158822
62,1538.56546625293223413523355355704048,1537.2,1.36546625293223413523355355704048
63,1588.56869335944276776737526092555990,1587.2,1.36869335944276776737526092555990
64,1639.37186949518279745325607574136828,1638.0,1.37186949518279745325607574136828
65,1690.97499624660862690964742228148562,1689.6,1.37499624660862690964742228148562
66,1743.37807512719770251243280138635696,1742.0,1.37807512719770251243280138635696
67,1796.58110758185946866181949340823234,1795.2,1.38110758185946866181949340823234
68,1850.58409499101780242565280304944620,1849.2,1.38409499101780242565280304944620
69,1905.38703867439395084477326523696593,1904.0,1.38703867439395084477326523696593
70,1960.98993989451596601609248935120880,1959.6,1.38993989451596601609248935120880
71,2017.39279985997803436533246486787560,2016.0,1.39279985997803436533246486787560
72,2074.59561972847079827899238987794634,2073.2,1.39561972847079827899238987794634
73,2132.59840060960171525870395511914506,2131.2,1.39840060960171525870395511914506
74,2191.40114356752268091258255661937183,2190.0,1.40114356752268091258255661937183
75,2251.00384962338051099707905673061579,2249.6,1.40384962338051099707905673061579
76,2311.40651975760442816608094148987625,2310.0,1.40651975760442816608094148987625
77,2372.60915491204339668559376589053763,2371.2,1.40915491204339668559376589053763
78,2434.61175599196498257415322651395313,2433.2,1.41175599196498257415322651395313
79,2497.41432386792636980912594776553957,2496.0,1.41432386792636980912594776553957
80,2561.01685937752722511341229767716975,2559.6,1.41685937752722511341229767716975
81,2625.41936332705325449558811582669142,2624.0,1.41936332705325449558811582669142
82,2690.62183649301853326596838771624404,2689.2,1.42183649301853326596838771624404
83,2756.62427962361400251728620379698576,2755.2,1.42427962361400251728620379698576
84,2823.42669344006890076696416510590197,2822.0,1.42669344006890076696416510590197
85,2891.02907863793134018178167634012777,2889.6,1.42907863793134018178167634012777
86,2959.43143588827372094035195860521347,2958.0,1.43143588827372094035195860521347
87,3028.63376583882821981802305452767504,3027.2,1.43376583882821981802305452767504
88,3098.63606911505716570108102375514039,3097.2,1.43606911505716570108102375514039
89,3169.43834632116273123497210683398211,3168.0,1.43834632116273123497210683398211
90,3241.04059804104002659453136033224492,3239.6,1.44059804104002659453136033224492
91,3313.44282483917735991215451072288181,3312.0,1.44282483917735991215451072288181
92,3386.64502726150714060231058563791188,3385.2,1.44502726150714060231058563791188
93,3460.64720583621063956573728517184546,3459.2,1.44720583621063956573728517184546
94,3535.44936107447957732792293060758995,3534.0,1.44936107447957732792293060758995
95,3611.05149347123729001244981069290252,3609.6,1.45149347123729001244981069290252
96,3687.45360350582202122765718812576504,3686.0,1.45360350582202122765718812576504
97,3764.65569164263470360297299628849662,3763.2,1.45569164263470360297299628849662
98,3842.65775833175342083696794920798972,3841.2,1.45775833175342083696794920798972
99,3921.45980400951658764699737976800205,3920.0,1.45980400951658764699737976800205
100,4001.06182909907673866987942206809901,3999.6,1.46182909907673866987942206809901
101,4081.46383401092668805890411803543995,4080.0,1.46383401092668805890411803543995
102,4162.66581914339969594774682617536984,4161.2,1.46581914339969594774682617536984
103,4244.66778488314517003824627794865798,4243.2,1.46778488314517003824627794865798
104,4327.46973160558132330429770107006389,4326.0,1.46973160558132330429770107006389
105,4411.07165967532611573035398891048286,4409.6,1.47165967532611573035398891048286
106,4495.47356944660771723878465806557470,4494.0,1.47356944660771723878465806557470
107,4580.67546126365565087838662821227443,4579.2,1.47546126365565087838662821227443
108,4666.67733546107369610678684685704473,4665.2,1.47733546107369610678684685704473
109,4753.47919236419556340594228206457334,4752.0,1.47919236419556340594228206457334
110,4841.08103228942428904981814529025833,4839.6,1.48103228942428904981814529025833
111,4929.48285554455623298212634675926569,4928.0,1.48285554455623298212634675926569
112,5018.68466242909051332837310387878341,5017.2,1.48466242909051332837310387878341
113,5108.68645323452465553067040198913142,5107.2,1.48645323452465553067040198913142
114,5199.48822824463718533600967197429255,5198.0,1.48822824463718533600967197429255
115,5291.08998773575785442019368821828392,5289.6,1.48998773575785442019368821828392
116,5383.49173197702613909797435843273917,5382.0,1.49173197702613909797435843273917
117,5476.69346123063862085693749838211717,5475.2,1.49346123063862085693749838211717
118,5570.69517575208581642156992478623087,5569.2,1.49517575208581642156992478623087
119,5665.49687579037899134022828119943345,5664.0,1.49687579037899134022828119943345
120,5761.09856158826746524549393769107765,5759.6,1.49856158826746524549393769107765
121,5857.50023338244687867115390229044378,5856.0,1.50023338244687867115390229044378
122,5954.70189140375887239591538340770470,5953.2,1.50189140375887239591538340770470
123,6052.70353587738259809102931710455364,6051.2,1.50353587738259809102931710455364
124,6151.50516702301846136918979072704628,6150.0,1.50516702301846136918979072704628
125,6251.10678505506446876581318093708745,6249.6,1.50678505506446876581318093708745
126,6351.50839018278553498650329962236246,6350.0,1.50839018278553498650329962236246
127,6452.70998261047608617662248576870975,6451.2,1.50998261047608617662248576870975
128,6554.71156253761627238169894065075386,6553.2,1.51156253761627238169894065075386
129,6657.51313015902209029416220788887733,6656.0,1.51313015902209029416220788887733
130,6761.11468566498969900003185644951248,6759.6,1.51468566498969900003185644951248
131,6865.51622924143419603506601757593466,6864.0,1.51622924143419603506601757593466
132,6970.71776107002310608267644346681942,6969.2,1.51776107002310608267644346681942
133,7076.71928132830482286433160470184322,7075.2,1.51928132830482286433160470184322
134,7183.52079018983223349721194776066933,7182.0,1.52079018983223349721194776066933
135,7291.12228782428173648553809033921776,7289.6,1.52228782428173648553809033921776
136,7399.52377439756786082446264539042910,7398.0,1.52377439756786082446264539042910
137,7508.72525007195368038747307967421623,7507.2,1.52525007195368038747307967421623
138,7618.72671500615720415626215751701569,7617.2,1.52671500615720415626215751701569
139,7729.52816935545392074611737069690246,7728.0,1.52816935545392074611737069690246
140,7841.12961327177566023391208582583204,7839.6,1.52961327177566023391208582583204
141,7953.53104690380593173829148583946352,7952.0,1.53104690380593173829148583946352
142,8066.73247039707188712837972191399874,8065.2,1.53247039707188712837972191399874
143,8180.73388389403305258716465798050573,8179.2,1.53388389403305258716465798050573
144,8295.53528753416696257608069550029727,8294.0,1.53528753416696257608069550029727
145,8411.13668145405182655955008605124866,8409.6,1.53668145405182655955008605124866
146,8527.53806578744635097949326988453500,8526.0,1.53806578744635097949326988453500
147,8644.73944066536683076685218520845246,8643.2,1.53944066536683076685218520845246
148,8762.74080621616162571913744223960697,8761.2,1.54080621616162571913744223960697
149,8881.54216256558312354493631785270971,8880.0,1.54216256558312354493631785270971
150,9001.14350983685729321624072254676013,8999.6,1.54350983685729321624072254676013
151,9121.54484815075092454283165737516328,9120.0,1.54484815075092454283165737516328
152,9242.74617762563664426787098749095385,9241.2,1.54617762563664426787098749095385
153,9364.74749837755579763437558874765800,9363.2,1.54749837755579763437558874765800
154,9487.54881052027927932179659335371583,9486.0,1.54881052027927932179659335371583
155,9611.15011416536639198867690797759985,9609.6,1.55011416536639198867690797759985
156,9735.55140942222181028773047123822095,9734.0,1.55140942222181028773047123822095
157,9860.75269639815072139992605883156649,9859.2,1.55269639815072139992605883156649
158,9986.75397519841221390565682599995197,9985.2,1.55397519841221390565682599995197
159,10113.5552459262709786658083938520078,10112.0,1.5552459262709786658083938520078
160,10241.1565086830473880502429062465712,10239.6,1.5565086830473880502429062465712
161,10369.5577635681660120097977298999212,10368.0,1.5577635681660120097977298999212
162,10498.7590106792026304528779824267418,10497.2,1.5590106792026304528779824267418
163,10628.7602501119297967799199200287746,10627.2,1.5602501119297967799199200287746
164,10759.5614819603610072122985055451986,10758.0,1.5614819603610072122985055451986
165,10891.1627063167935245158747601558275,10889.6,1.5627063167935245158747601558275
166,11023.5639232718499066347495868010422,11022.0,1.5639232718499066347495868010422
167,11156.7651329145182874675220942470202,11155.2,1.5651329145182874675220942470202
168,11290.7663353321914524749443306390808,11289.2,1.5663353321914524749443306390808
169,11425.5675306107047541810411165489376,11424.0,1.5675306107047541810411165489376
170,11561.1687188343729073107898086567920,11559.6,1.5687188343729073107898086567920
171,11697.5699000860257037587989489967100,11696.0,1.5699000860257037587989489967100
172,11834.7710744470426852556228664045913,11833.2,1.5710744470426852556228664045913
173,11972.7722419973868091340214985673173,11971.2,1.5722419973868091340214985673173
174,12111.5734028156371430386587708645261,12110.0,1.5734028156371430386587708645261
175,12251.1745569790206225641513095757793,12249.6,1.5745569790206225641513095757793
176,12391.5757045634429015277996882892199,12390.0,1.5757045634429015277996882892199
177,12532.7768456435183281375186326317242,12531.2,1.5768456435183281375186326317242
178,12674.7779802925990762093420614532089,12673.2,1.5779802925990762093420614532089
179,12817.5791085828034578794279928848897,12816.0,1.5791085828034578794279928848897
180,12961.1802305850434487569419005068235,12959.6,1.5802305850434487569419005068235
181,13105.5813463690514481663842542868563,13104.0,1.5813463690514481663842542868563
182,13250.7824560034063021747272868431091,13249.2,1.5824560034063021747272868431091
183,13396.7835595555586124526148918541147,13395.2,1.5835595555586124526148918541147
184,13543.5846570918553552111413609100304,13542.0,1.5846570918553552111413609100304
185,13691.1857486775638320223125719494478,13689.6,1.5857486775638320223125719494478
186,13839.5868343768949734917883170686778,13838.0,1.5868343768949734917883170686778
187,13988.7879142530260195843839346203933,13987.2,1.5879142530260195843839346203933
188,14138.7889883681225920386251337410848,14137.2,1.5889883681225920386251337410848
189,14289.5900567833601826014239933085391,14288.0,1.5900567833601826014239933085391
190,14441.1911195589450727339308842001648,14439.6,1.5911195589450727339308842001648
191,14593.5921767541347040110907033014591,14592.0,1.5921767541347040110907033014591
192,14746.7932284272575155970830534758374,14745.2,1.5932284272575155970830534758374
193,14900.7942746357322671004698251307424,14899.2,1.5942746357322671004698251307424
194,15055.5953154360868601498083095631859,15054.0,1.5953154360868601498083095631859
195,15211.1963508839766766220634457960357,15209.6,1.5963508839766766220634457960357
196,15367.5973810342024472156936377124493,15366.0,1.5973810342024472156936377124493
197,15524.7984059407276647437054230453239,15523.2,1.5984059407276647437054230453239
198,15682.7994256566955563086297940334751,15681.2,1.5994256566955563086297940334751
199,15841.6004402344456271932485185457016,15840.0,1.6004402344456271932485185457016
200,16001.2014497255297904072431641987552,15999.6,1.6014497255297904072431641987552
201,16161.6024541807280928661584324239238,16160.0,1.6024541807280928661584324239238
202,16322.8034536500640515788040571623810,16321.2,1.6034536500640515788040571623810
203,16484.8044481828196104977896118299212,16483.2,1.6044481828196104977896118299212
204,16647.6054378275497296480672294624669,16646.0,1.6054378275497296480672294624669
205,16811.2064226320966164988072128460776,16809.6,1.6064226320966164988072128460776
206,16975.6074026436036125973166634858963,16974.0,1.6074026436036125973166634858963
207,17140.8083779085287413356408029147285,17139.2,1.6083779085287413356408029147285
208,17306.8093484726579310712643454050499,17305.2,1.6093484726579310712643454050499
209,17473.6103143811179193447554181534469,17472.0,1.6103143811179193447554181534469
210,17641.2112756783888496899643034161516,17639.6,1.6112756783888496899643034161516
211,17809.6122324083165683957482801828429,17808.0,1.6122324083165683957482801828429
212,17978.8131846141246314463584938858686,17977.2,1.6131846141246314463584938858686
213,18148.8141323384260260183922964836899,18147.2,1.6141323384260260183922964836899
214,18319.6150756232346215100084520464801,18318.0,1.6150756232346215100084520464801
215,18491.2160145099763493086456100387947,18489.6,1.6160145099763493086456100387947
216,18663.6169490395001252517094858991176,18662.0,1.6169490395001252517094858991176
217,18836.8178792520885187392796451711047,18835.2,1.6178792520885187392796451711047
218,19010.8188051874681774712941993768779,19009.2,1.6188051874681774712941993768779
219,19185.6197268848200110821576805801173,19184.0,1.6197268848200110821576805801173
220,19361.2206443827891461809080129637791,19359.6,1.6206443827891461809080129637791
221,19537.6215577194946506992419579542601,19536.0,1.6215577194946506992419579542601
222,19714.8224669325390447447732056841122,19713.2,1.6224669325390447447732056841122
223,19892.8233720590175915203636307149538,19891.2,1.6233720590175915203636307149538
224,20071.6242731355273833688351976381337,20070.0,1.6242731355273833688351976381337
225,20251.2251701981762254996144807145350,20249.6,1.6251701981762254996144807145350
226,20431.6260632825913209352602659264023,20430.0,1.6260632825913209352602659264023
227,20612.8269524239277653207302405161129,20611.2,1.6269524239277653207302405161129
228,20794.8278376568768534055961111663910,20793.2,1.6278376568768534055961111663910
229,20977.6287190156742043513607432325746,20976.0,1.6287190156742043513607432325746
230,21161.2295965341077105501235547585189,21159.6,1.6295965341077105501235547585189
231,21345.6304702455253117438677575126397,21344.0,1.6304702455253117438677575126397
232,21530.8313401828426048532921385562439,21529.2,1.6313401828426048532921385562439
233,21716.8322063785502845016955189059936,21715.2,1.6322063785502845016955189059936
234,21903.6330688647214303799817839718852,21902.0,1.6330688647214303799817839718852
235,22091.2339276730186346238890794540589,22089.6,1.6339276730186346238890794540589
236,22279.6347828347009789022143918636037,22278.0,1.6347828347009789022143918636037
237,22468.8356343806308648361633403399176,22467.2,1.6356343806308648361633403399176
238,22658.8364823412806994808398128225651,22657.2,1.6364823412806994808398128225651
