Eigenstate,Energy,Kinetic Energy,Potential Energy
1,0.500000000050693406910583578674571443,0.0,0.500000000050693406910583578674571443
2,1.84623093798201491194665120803656486,1.2,0.64623093798201491194665120803656486
3,3.93633761067696906942749774276616227,3.2,0.73633761067696906942749774276616227
4,6.79966527983879179168016568004227754,6.0,0.79966527983879179168016568004227754
5,10.4480465787926296200600091387501873,9.6,0.8480465787926296200600091387501873
6,14.8870660022969478443492196416858563,14.0,0.8870660022969478443492196416858563
7,20.1197208317917015016868982869073400,19.2,0.9197208317917015016868982869073400
8,26.1477838536547853975215364252153520,25.2,0.9477838536547853975215364252153520
9,32.9723835668930393686343589135065742,32.0,0.9723835668930393686343589135065742
10,40.5942802256553983450290521676410766,39.6,0.9942802256553983450290521676410766
11,49.0140094000831566782193162204132300,48.0,1.0140094000831566782193162204132300
12,58.2319621854811381006671381356808106,57.2,1.0319621854811381006671381356808106
13,68.2484327119153083902376020622050443,67.2,1.0484327119153083902376020622050443
14,79.0636476770689489071165297340459317,78.0,1.0636476770689489071165297340459317
15,90.6777854620568487233348911160684093,89.6,1.0777854620568487233348911160684093
16,103.090988936295754305880930377117992,102.0,1.090988936295754305880930377117992
17,116.303374290965876955713806693911728,115.2,1.103374290965876955713806693911728
18,130.315037290017094439850765760829424,129.2,1.115037290017094439850765760829424
19,145.126057793272930170985975196383622,144.0,1.126057793272930170985975196383622
20,160.736503094064490797832655338483104,159.6,1.136503094064490797832655338483104
21,177.146430425312164240265703107323607,176.0,1.146430425312164240265703107323607
22,194.355888870684360471223618783074957,193.2,1.155888870684360471223618783074957
23,212.364920842534036669660811747942379,211.2,1.164920842534036669660811747942379
24,231.173563239299119766699761373510159,230.0,1.173563239299119766699761373510159
25,250.781848362298433142092112146378608,249.6,1.181848362298433142092112146378608
26,271.189804649539284618077238937841123,270.0,1.189804649539284618077238937841123
27,292.397457268680042491392835735953532,291.2,1.197457268680042491392835735953532
28,314.404828600389175531546180384233331,313.2,1.204828600389175531546180384233331
29,337.211938635547205049500752866032953,336.0,1.211938635547205049500752866032953
30,360.818805304088529569907273883739441,359.6,1.218805304088529569907273883739441
31,385.225444749134144138695556595769851,384.0,1.225444749134144138695556595769851
32,410.431871556988376712229735627543077,409.2,1.231871556988376712229735627543077
33,436.438098951263116269456396860442643,435.2,1.238098951263116269456396860442643
34,463.244138957642461021853768649254367,462.0,1.244138957642461021853768649254367
35,490.850002544461520029955253531960980,489.6,1.250002544461520029955253531960980
36,519.255699743239622656429557769942177,518.0,1.255699743239622656429557769942177
37,548.461239752504105737008334607633446,547.2,1.261239752504105737008334607633446
38,578.466631027610429607283006840689688,577.2,1.266631027610429607283006840689688
39,609.271881358766525473779473906297705,608.0,1.271881358766525473779473906297705
40,640.876997939073455834102872400455172,639.6,1.276997939073455834102872400455172
41,673.281987424077719377169461821188462,672.0,1.281987424077719377169461821188462
42,706.486855984075539192996162326579505,705.2,1.286855984075539192996162326579505
43,740.491609350202986776570395387494911,739.2,1.291609350202986776570395387494911
44,775.296252855177700294794521346653382,774.0,1.296252855177700294794521346653382
45,810.900791469420386016483625214356052,809.6,1.300791469420386016483625214356052
46,847.305229833171155522787691458973359,846.0,1.305229833171155522787691458973359
47,884.509572285122274703066632158862243,883.2,1.309572285122274703066632158862243
48,922.513822888011314176990082573865462,921.2,1.313822888011314176990082573865462
49,961.317985451554028239730514017501471,960.0,1.317985451554028239730514017501471
50,1000.92206355304216671345964894298913,999.6,1.32206355304216671345964894298913
51,1041.32606055588595712588139629227342,1040.0,1.32606055588595712588139629227342
52,1082.52997962634264942223154960727603,1081.2,1.32997962634264942223154960727603
53,1124.53382374864006529862563425149598,1123.2,1.33382374864006529862563425149598
54,1167.33759573867653311317781098721612,1166.0,1.33759573867653311317781098721612
55,1210.94129825645511383879991810356303,1209.6,1.34129825645511383879991810356303
56,1255.34493381738994895146294949622740,1254.0,1.34493381738994895146294949622740
57,1300.54850480260536218258285423308883,1299.2,1.34850480260536218258285423308883
58,1346.55201346833354987790062338563648,1345.2,1.35201346833354987790062338563648
59,1393.35546195450394075795029360200866,1392.0,1.35546195450394075795029360200866
60,1440.95885229260628136750562202894281,1439.6,1.35885229260628136750562202894281
61,1489.36218641289993927389083438516969,1488.0,1.36218641289993927389083438516969
62,1538.56546615103361506892688077695046,1537.2,1.36546615103361506892688077695046
63,1588.56869325413241234026345309264468,1587.2,1.36869325413241234026345309264468
64,1639.37186938640290229792457756055858,1638.0,1.37186938640290229792457756055858
65,1690.97499613430128490192243960761880,1689.6,1.37499613430128490192243960761880
66,1743.37807501130490099773959219950444,1742.0,1.37807501130490099773959219950444
67,1796.58110746232308767515365375338611,1795.2,1.38110746232308767515365375338611
68,1850.58409486777961290506977479985534,1849.2,1.38409486777961290506977479985534
69,1905.38703854739561283829922614669400,1904.0,1.38703854739561283829922614669400
70,1960.98993976369902688195798618382570,1959.6,1.38993976369902688195798618382570
71,2017.39279972528392696542826648055878,2016.0,1.39279972528392696542826648055878
72,2074.59561958984083916544548369009359,2073.2,1.39561958984083916544548369009359
73,2132.59840046697710285346995070224291,2131.2,1.39840046697710285346995070224291
74,2191.40114342084449367994931489938389,2190.0,1.40114342084449367994931489938389
75,2251.00384947258970560897487760599964,2249.6,1.40384947258970560897487760599964
76,2311.40651960264183766007931947045067,2310.0,1.40651960264183766007931947045067
77,2372.60915475284972861550537065356074,2371.2,1.40915475284972861550537065356074
78,2434.61175582848081715309448989297867,2433.2,1.41175582848081715309448989297867
79,2497.41432370009215804495237586845750,2496.0,1.41432370009215804495237586845750
80,2561.01685920528328693640345705048198,2559.6,1.41685920528328693640345705048198
81,2625.41936315033977687827001781306532,2624.0,1.41936315033977687827001781306532
82,2690.62183631177556833495784380404063,2689.2,1.42183631177556833495784380404063
83,2756.62427943778146565704058704173822,2755.2,1.42427943778146565704058704173822
84,2823.42669324958656871531889366462492,2822.0,1.42669324958656871531889366462492
85,2891.02907844273884911715657627959411,2889.6,1.42907844273884911715657627959411
86,2959.43143568831056456050662676640968,2958.0,1.43143568831056456050662676640968
87,3028.63376563403374741024018220669865,3027.2,1.43376563403374741024018220669865
88,3098.63606890537058020365557272243169,3097.2,1.43606890537058020365557272243169
89,3169.43834610652308728988315526371789,3168.0,1.43834610652308728988315526371789
90,3241.04059782138622859117232078184978,3239.6,1.44059782138622859117232078184978
91,3313.44282461444816002199636624146143,3312.0,1.44282461444816002199636624146143
92,3386.64502703164113680437166393616418,3385.2,1.44502703164113680437166393616418
93,3460.64720560114627366273203855323575,3459.2,1.44720560114627366273203855323575
94,3535.44936083415513295296105384158068,3534.0,1.44936083415513295296105384158068
95,3611.05149322559089062615595877731195,3609.6,1.45149322559089062615595877731195
96,3687.45360325479162810558046491006127,3686.0,1.45360325479162810558046491006127
97,3764.65569138615811381315418592394097,3763.2,1.45569138615811381315418592394097
98,3842.65775806976826520753146306609891,3841.2,1.45775806976826520753146306609891
99,3921.45980374196032872363365544384424,3920.0,1.45980374196032872363365544384424
100,4001.06182882588666866308242469977783,3999.6,1.46182882588666866308242469977783
101,4081.46383373203992678082745792206279,4080.0,1.46383373203992678082745792206279
102,4162.66581885875318873854076648497969,4161.2,1.46581885875318873854076648497969
103,4244.66778459267568568173684997000372,4243.2,1.46778459267568568173684997000372
104,4327.46973130922545193286786336637756,4326.0,1.46973130922545193286786336637756
105,4411.07165937302026671888560607285880,4409.6,1.47165937302026671888560607285880
106,4495.47356913828811708751884144992386,4494.0,1.47356913828811708751884144992386
107,4580.67546094925834108455885714888196,4579.2,1.47546094925834108455885714888196
108,4666.67733514053453102489187944348916,4665.2,1.47733514053453102489187944348916
109,4753.47919203745020809648278179883732,4752.0,1.47919203745020809648278179883732
110,4841.08103195640821711638951986172580,4839.6,1.48103195640821711638951986172580
111,4929.48285520520472439668919006081082,4928.0,1.48285520520472439668919006081082
112,5018.68466208333865224456321559434856,5017.2,1.48466208333865224456321559434856
113,5108.68645288230732808499500344670406,5107.2,1.48645288230732808499500344670406
114,5199.48822788588907743677731864522972,5198.0,1.48822788588907743677731864522972
115,5291.08998737041344952402374262330062,5289.6,1.48998737041344952402374262330062
116,5383.49173160501971597373076496376787,5382.0,1.49173160501971597373076496376787
117,5476.69346085190425133693005600896997,5475.2,1.49346085190425133693005600896997
118,5570.69517536655736313986499144730074,5569.2,1.49517536655736313986499144730074
119,5665.49687539799010545790931047862902,5664.0,1.49687539799010545790931047862902
120,5761.09856118895158416271082676514688,5759.6,1.49856118895158416271082676514688
121,5857.50023297613722372579877427800912,5856.0,1.50023297613722372579877427800912
122,5954.70189099038844654876083589612258,5953.2,1.50189099038844654876083589612258
123,6052.70353545688418359716370268051327,6051.2,1.50353545688418359716370268051327
124,6151.50516659532461743558263101743982,6150.0,1.50516659532461743558263101743982
125,6251.10678462010752919484221680124861,6249.6,1.50678462010752919484221680124861
126,6351.50838974049760580527319354529232,6350.0,1.50838974049760580527319354529232
127,6452.70998216078904325190353780060394,6451.2,1.50998216078904325190353780060394
128,6554.71156208046175902031260702765915,6553.2,1.51156208046175902031260702765915
129,6657.51312969433151482863867379850892,6656.0,1.51312969433151482863867379850892
130,6761.11468519269423235936307327236887,6759.6,1.51468519269423235936307327236887
131,6865.51622876146476930037629640650436,6864.0,1.51622876146476930037629640650436
132,6970.71776058231040802763055713425857,6969.2,1.51776058231040802763055713425857
133,7076.71928083277929748009906260140072,7075.2,1.51928083277929748009906260140072
134,7183.52078968642407750180407506048203,7182.0,1.52078968642407750180407506048203
135,7291.12228731292089681733305019317046,7289.6,1.52228731292089681733305019317046
136,7399.52377387818403211973144309080965,7398.0,1.52377387818403211973144309080965
137,7508.72524954447630244171812768470348,7507.2,1.52524954447630244171812768470348
138,7618.72671447051545936917793642868747,7617.2,1.52671447051545936917793642868747
139,7729.52816881157673154998083768607318,7728.0,1.52816881157673154998083768607318
140,7841.12961271959168650520880759716496,7839.6,1.52961271959168650520880759716496
141,7953.53104634324356819238144849809233,7952.0,1.53104634324356819238144849809233
142,8066.73246982805926069700471087651087,8065.2,1.53246982805926069700471087651087
143,8180.73388331649801977859749952957858,8179.2,1.53388331649801977859749952957858
144,8295.53528694803710681771420717554672,8294.0,1.53528694803710681771420717554672
145,8411.13668085925445552272203549985522,8409.6,1.53668085925445552272203549985522
146,8527.53806518390849388634121204776585,8526.0,1.53806518390849388634121204776585
147,8644.73944005301523567899027377543162,8643.2,1.53944005301523567899027377543162
148,8762.74080559492275680794509481423936,8761.2,1.54080559492275680794509481423936
149,8881.54216193538315834324642668297956,8880.0,1.54216193538315834324642668297956
150,9001.14350919762211985121312309209618,8999.6,1.54350919762211985121312309209618
151,9121.54484750240613894979522823449713,9120.0,1.54484750240613894979522823449713
152,9242.74617696810754738491567825242446,9241.2,1.54617696810754738491567825242446
153,9364.74749771076739257747330361013203,9363.2,1.54749771076739257747330361013203
154,9487.54880984415626854022766662933964,9486.0,1.54880984415626854022766662933964
155,9611.15011347983317440053664845238720,9609.6,1.55011347983317440053664845238720
156,9735.55140872720247839528784768679654,9734.0,1.55140872720247839528784768679654
157,9860.75269569356905838460417573401480,9859.2,1.55269569356905838460417573401480
158,9986.75397448419169070240264492493251,9985.2,1.55397448419169070240264492493251
159,10113.5552452023347510166164849059308,10112.0,1.5552452023347510166164849059308
160,10241.1565079493182935365958211387849,10239.6,1.5565079493182935365958211387849
161,10369.5577628245665670637827781361700,10368.0,1.5577628245665670637827781361700
162,10498.7590099256550273467379357617094,10497.2,1.5590099256550273467379357617094
163,10628.7602493483559005937924583988284,10627.2,1.5602493483559005937924583988284
164,10759.5614811866823527798966779619810,10758.0,1.5614811866823527798966779619810
165,10891.1627055329313133478580647679476,10889.6,1.5627055329313133478580647679476
166,11023.5639224777250038195326172047706,11022.0,1.5639224777250038195326172047706
167,11156.7651321100512185492649985841135,11155.2,1.5651321100512185492649985841135
168,11290.7663345173024003084665520423972,11289.2,1.5663345173024003084665520423972
169,11425.5675297853135557633971776459603,11424.0,1.5675297853135557633971776459603
170,11561.1687179983990505892429801706361,11559.6,1.5687179983990505892429801706361
171,11697.5698992393883244149258577436056,11696.0,1.5698992393883244149258577436056
172,11834.7710735896605634652791866901177,11833.2,1.5710735896605634652791866901177
173,11972.7722411291783663028958674748842,11971.2,1.5722411291783663028958674748842
174,12111.5734019365204385131392505595378,12110.0,1.5734019365204385131392505595378
175,12251.1745560889133503172254473444491,12249.6,1.5745560889133503172254473444491
176,12391.5757036622623868197063889365301,12390.0,1.5757036622623868197063889365301
177,12532.7768447311815241508669054091303,12531.2,1.5768447311815241508669054091303
178,12674.7779793690225606584084615369151,12673.2,1.5779793690225606584084615369151
179,12817.5791076479034295933414536810890,12816.0,1.5791076479034295933414536810890
180,12961.1802296387357242364614180517293,12959.6,1.5802296387357242364614180517293
181,13105.5813454112514581139716534361286,13104.0,1.5813454112514581139716534361286
182,13250.7824550340290879976138476247694,13249.2,1.5824550340290879976138476247694
183,13396.7835585745188227385573482288420,13395.2,1.5835585745188227385573482288420
184,13543.5846560990672421765593692717856,13542.0,1.5846560990672421765593692717856
185,13691.1857476729412479324961521642422,13689.6,1.5857476729412479324961521642422
186,13839.5868333603513670528605401563257,13838.0,1.5868333603513670528605401563257
187,13988.7879132244744323067001860058838,13987.2,1.5879132244744323067001860058838
188,14138.7889873274756545712869674879466,14137.2,1.5889873274756545712869674879466
189,14289.5900557305301110375818727893715,14288.0,1.5900557305301110375818727893715
190,14441.1911184938436648865462267072930,14439.6,1.5911184938436648865462267072930
191,14593.5921756766733356588241608610963,14592.0,1.5921756766733356588241608610963
192,14746.7932273373471366999718556813542,14745.2,1.5932273373471366999718556813542
193,14900.7942735332833979850533689238766,14899.2,1.5942735332833979850533689238766
194,15055.5953143210095876633571927403019,15054.0,1.5953143210095876633571927403019
195,15211.1963497561806502555630365163450,15209.6,1.5963497561806502555630365163450
196,15367.5973798935968751952294453992735,15366.0,1.5973798935968751952294453992735
197,15524.7984047872213100898932117398738,15523.2,1.5984047872213100898932117398738
198,15682.7994244901967328637295349862251,15681.2,1.5994244901967328637295349862251
199,15841.6004390548621956155967344388261,15840.0,1.6004390548621956155967344388261
200,16001.2014485327691541326342700662434,15999.6,1.6014485327691541326342700662434
201,16161.6024529746971940358010866817702,16160.0,1.6024529746971940358010866817702
202,16322.8034524306693669334743179462774,16321.2,1.6034524306693669334743179462774
203,16484.8044469499671472377981606535231,16483.2,1.6044469499671472377981606535231
204,16647.6054365811450212586535524018074,16646.0,1.6054365811450212586535524018074
205,16811.2064213720447185405686628266840,16809.6,1.6064213720447185405686628266840
206,16975.6074013698090984612765108871284,16974.0,1.6074013698090984612765108871284
207,17140.8083766208956979625534387025065,17139.2,1.6083766208956979625534387025065
208,17306.8093471710899546347524661895249,17305.2,1.6093471710899546347524661895249
209,17473.6103130655181108978678291723306,17472.0,1.6103130655181108978678291723306
210,17641.2112743486598107747392645890428,17639.6,1.6112743486598107747392645890428
211,17809.6122310643603966153611312291535,17808.0,1.6122310643603966153611312291535
212,17978.8131832558429159994285219072967,17977.2,1.6131832558429159994285219072967
213,18148.8141309657198431950176569122141,18147.2,1.6141309657198431950176569122141
214,18319.6150742360045301490932856786360,18318.0,1.6150742360045301490932856786360
215,18491.2160131081223862160781603196482,18489.6,1.6160131081223862160781603196482
216,18663.6169476229218005789445575928759,18662.0,1.6169476229218005789445575928759
217,18836.8178778206848113218733021935814,18835.2,1.6178778206848113218733021935814
218,19010.8188037411375301269334867523730,19009.2,1.6188037411375301269334867523730
219,19185.6197254234603258677220707324930,19184.0,1.6197254234603258677220707324930
220,19361.2206429062977796080938035465807,19359.6,1.6206429062977796080938035465807
221,19537.6215562277684089082753288123520,19536.0,1.6215562277684089082753288123520
222,19714.8224654254741786357315998285963,19713.2,1.6224654254741786357315998285963
223,19892.8233705365097918416191524653875,19891.2,1.6233705365097918416191524653875
224,20071.6242715974717757621280119899898,20070.0,1.6242715974717757621280119899898
225,20251.2251686444673655012579550768569,20249.6,1.6251686444673655012579550768569
226,20431.6260617131231889329732792693493,20430.0,1.6260617131231889329732792693493
227,20612.8269508385937614655861588556614,20611.2,1.6269508385937614655861588556614
228,20794.8278360555697924785714234448183,20793.2,1.6278360555697924785714234448183
229,20977.6287173982863105839597622291177,20976.0,1.6287173982863105839597622291177
230,21161.2295949005306123985494134571059,21159.6,1.6295949005306123985494134571059
231,21345.6304685956500366162029942669973,21344.0,1.6304685956500366162029942669973
232,21530.8313385165595737891457237616456,21529.2,1.6313385165595737891457237616456
233,21716.8322046957493068037658815454666,21715.2,1.6322046957493068037658815454666
234,21903.6330671652916981969791125499029,21902.0,1.6330671652916981969791125499029
235,22091.2339259568487174842527302218635,22089.6,1.6339259568487174842527302218635
236,22279.6347811016788181980540912457851,22278.0,1.6347811016788181980540912457851
237,22468.8356326306437682568461238119870,22467.2,1.6356326306437682568461238119870
238,22658.8364805742153353956364286245029,22657.2,1.6364805742153353956364286245029
