Eigenstate,Energy,Kinetic Energy,Potential Energy
1,0.500000000036723890900182523309896567,0.0,0.500000000036723890900182523309896567
2,1.84623093789082900498240798009146817,1.2,0.64623093789082900498240798009146817
3,3.93633761040911697498609882898652951,3.2,0.73633761040911697498609882898652951
4,6.79966527928088403628682206137012537,6.0,0.79966527928088403628682206137012537
5,10.4480465778262138620333724585860749,9.6,0.8480465778262138620333724585860749
6,14.8870660008014952899532316102487184,14.0,0.8870660008014952899532316102487184
7,20.1197208296457068945103450572334934,19.2,0.9197208296457068945103450572334934
8,26.1477838507362254218035358340768214,25.2,0.9477838507362254218035358340768214
9,32.9723835630795854969788898541625066,32.0,0.9723835630795854969788898541625066
10,40.5942802208245245821190866101095068,39.6,0.9942802208245245821190866101095068
11,49.0140093941121978260062405875837924,48.0,1.0140093941121978260062405875837924
12,58.2319621782473228096993170783319131,57.2,1.0319621782473228096993170783319131
13,68.2484327032957784841128805174144033,67.2,1.0484327032957784841128805174144033
14,79.0636476669407708067366194799278176,78.0,1.0636476669407708067366194799278176
15,90.6777854502970201047540720842997573,89.6,1.0777854502970201047540720842997573
16,103.090988922781207763759214646947646,102.0,1.090988922781207763759214646947646
17,116.303374275573481718570281005838887,115.2,1.103374275573481718570281005838887
18,130.315037272623656778412776949515351,129.2,1.115037272623656778412776949515351
19,145.126057773755192905868804536735297,144.0,1.126057773755192905868804536735297
20,160.736503072299132171448447118826052,159.6,1.136503072299132171448447118826052
21,177.146430401175796330194974309201800,176.0,1.146430401175796330194974309201800
22,194.355888844053527266378510910298478,193.2,1.155888844053527266378510910298478
23,212.364920813285211894022070358579529,211.2,1.164920813285211894022070358579529
24,231.173563207308704510975725579770366,230.0,1.173563207308704510975725579770366
25,250.781848327442753346978195910915331,249.6,1.181848327442753346978195910915331
26,271.189804611694588441209940681087001,270.0,1.189804611694588441209940681087001
27,292.397457227722497581905246038166940,291.2,1.197457227722497581905246038166940
28,314.404828556194866230256057543815941,313.2,1.204828556194866230256057543815941
29,337.211938587992129528484919378076149,336.0,1.211938587992129528484919378076149
30,360.818805253048596922061478997453257,359.6,1.218805253048596922061478997453257
31,385.225444694485171425524103932842492,384.0,1.225444694485171425524103932842492
32,410.431871498606085976331525116861106,409.2,1.231871498606085976331525116861106
33,436.438098889023131516818023890418974,435.2,1.238098889023131516818023890418974
34,463.244138891420305178015903841439144,462.0,1.244138891420305178015903841439144
35,490.850002474132611873306702404925961,489.6,1.250002474132611873306702404925961
36,519.255699668679273731247053340120593,518.0,1.255699668679273731247053340120593
37,548.461239673587517248357246135452571,547.2,1.261239673587517248357246135452571
38,578.466630944212689299493839680899819,577.2,1.266630944212689299493839680899819
39,609.271881270762604493894051099312612,608.0,1.271881270762604493894051099312612
40,640.876997846338205581425008075394240,639.6,1.276997846338205581425008075394240
41,673.281987326485868339844498392547490,672.0,1.281987326485868339844498392547490
42,706.486855881501689772371769736072359,705.2,1.286855881501689772371769736072359
43,740.491609242521612099949676706458235,739.2,1.291609242521612099949676706458235
44,775.296252742263141017075696452352191,774.0,1.296252742263141017075696452352191
45,810.900791351146847111083537615593036,809.6,1.300791351146847111083537615593036
46,847.305229709412703062165365479426652,846.0,1.305229709412703062165365479426652
47,884.509572155752832629095208518664118,883.2,1.309572155752832629095208518664118
48,922.513822752904661061368157839426874,921.2,1.313822752904661061368157839426874
49,961.317985310583794034575467672780961,960.0,1.317985310583794034575467672780961
50,1000.92206340608182949218433267584065,999.6,1.32206340608182949218433267584065
51,1041.32606040280883981442035670373193,1040.0,1.32606040280883981442035670373193
52,1082.52997946702191652065280900656057,1081.2,1.32997946702191652065280900656057
53,1124.53382358294871959313808558498115,1123.2,1.33382358294871959313808558498115
54,1167.33759556648741237852183739040391,1166.0,1.33759556648741237852183739040391
55,1210.94129807764088753098938295171057,1209.6,1.34129807764088753098938295171057
56,1255.34493363182311489082973564545544,1254.0,1.34493363182311489082973564545544
57,1300.54850461015824322706032854048355,1299.2,1.34850461015824322706032854048355
58,1346.55201326887829058646933275676593,1345.2,1.35201326887829058646933275676593
59,1393.35546174791250404415777716032978,1392.0,1.35546174791250404415777716032978
60,1440.95885207875044514296205890687219,1439.6,1.35885207875044514296205890687219
61,1489.36218619165129308163322473077521,1488.0,1.36218619165129308163322473077521
62,1538.56546592226355670653640724824625,1537.2,1.36546592226355670653640724824625
63,1588.56869301771214447261350132208444,1587.2,1.36869301771214447261350132208444
64,1639.37186914220342905943040970600778,1638.0,1.37186914220342905943040970600778
65,1690.97499588219340848815765576971493,1689.6,1.37499588219340848815765576971493
66,1743.37807475115921824627923631240730,1742.0,1.37807475115921824627923631240730
67,1796.58110719400998663549898856180599,1795.2,1.38110719400998663549898856180599
68,1850.58409459116926939750535515662097,1849.2,1.38409459116926939750535515662097
69,1905.38703826235798700152879631573375,1904.0,1.38703826235798700152879631573375
70,1960.98993947010385970936207289021159,1959.6,1.38993947010385970936207289021159
71,2017.39279942300073682978277789946928,2016.0,1.39279942300073682978277789946928
72,2074.59561927873891833193749348444565,2073.2,1.39561927873891833193749348444565
73,2132.59840014692551398084375082635076,2131.2,1.39840014692551398084375082635076
74,2191.40114309171206630961304135436169,2190.0,1.40114309171206630961304135436169
75,2251.00384913424503264189529925181817,2249.6,1.40384913424503264189529925181817
76,2311.40651925495327182128990295415036,2310.0,1.40651925495327182128990295415036
77,2372.60915439568537890605027676354770,2371.2,1.40915439568537890605027676354770
78,2434.61175546170854528922887961239794,2433.2,1.41175546170854528922887961239794
79,2497.41432332357957488441717887401293,2496.0,1.41432332357957488441717887401293
80,2561.01685881889774889159067890349161,2559.6,1.41685881889774889159067890349161
81,2625.41936275394838231609254529116323,2624.0,1.41936275394838231609254529116323
82,2690.62183590524515396323575114477662,2689.2,1.42183590524515396323575114477662
83,2756.62427902097860289721401718007148,2755.2,1.42427902097860289721401718007148
84,2823.42669282237756006129568529840880,2822.0,1.42669282237756006129568529840880
85,2891.02907800498972448010093248453098,2889.6,1.42907800498972448010093248453098
86,2959.43143523988707759937336772077607,2958.0,1.43143523988707759937336772077607
87,3028.63376517480137184785725869552285,3027.2,1.43376517480137184785725869552285
88,3098.63606843519450612815580097351318,3097.2,1.43606843519450612815580097351318
89,3169.43834562526821744128437748593236,3168.0,1.43834562526821744128437748593236
90,3241.04059732891717463290345876884268,3239.6,1.44059732891717463290345876884268
91,3313.44282411062923879716511444811191,3312.0,1.44282411062923879716511444811191
92,3386.64502651633636657656787153704002,3385.2,1.44502651633636657656787153704002
93,3460.64720507421937034115911371515480,3459.2,1.44720507421937034115911371515480
94,3535.44936029546950630168603625254590,3534.0,1.44936029546950630168603625254590
95,3611.05149267500964045726717105945154,3609.6,1.45149267500964045726717105945154
96,3687.45360269217754045604002478759246,3686.0,1.45360269217754045604002478759246
97,3764.65569081137365710513085969329617,3763.2,1.45569081137365710513085969329617
98,3842.65775748267558639199775845506963,3841.2,1.45775748267558639199775845506963
99,3921.45980314242124940700918230565552,3920.0,1.45980314242124940700918230565552
100,4001.06182821376268121670399231603456,3999.6,1.46182821376268121670399231603456
101,4081.46383310719219043302450362676909,4080.0,1.46383310719219043302450362676909
102,4162.66581822104252564909307286032506,4161.2,1.46581822104252564909307286032506
103,4244.66778394196257699848971056355662,4243.2,1.46778394196257699848971056355662
104,4327.46973064537003383027806038387413,4326.0,1.46973064537003383027806038387413
105,4411.07165869588232641826984612372525,4409.6,1.47165869588232641826984612372525
106,4495.47356844772708885877444999041467,4494.0,1.47356844772708885877444999041467
107,4580.67546024513330222912476120183915,4579.2,1.47546024513330222912476120183915
108,4666.67733442270419783971601329462586,4665.2,1.47733442270419783971601329462586
109,4753.47919130577293181876030017795422,4752.0,1.47919130577293181876030017795422
110,4841.08103121074197984883424353402858,4839.6,1.48103121074197984883424353402858
111,4929.48285444540713501309889519284615,4928.0,1.48285444540713501309889519284615
112,5018.68466130926694227543742898520895,5017.2,1.48466130926694227543742898520895
113,5108.68645209381834758296209617571839,5107.2,1.48645209381834758296209617571839
114,5199.48822708283929082158563863369375,5198.0,1.48822708283929082158563863369375
115,5291.08998655265893140684972344149734,5289.6,1.48998655265893140684972344149734
116,5383.49173077241614696055481989111391,5382.0,1.49173077241614696055481989111391
117,5476.69346000430691381072908166289305,5475.2,1.49346000430691381072908166289305
118,5570.69517450382113702136837734331964,5569.2,1.49517450382113702136837734331964
119,5665.49687451996946394466314319626476,5664.0,1.49687451996946394466314319626476
120,5761.09856029550058944619297753456316,5759.6,1.49856029550058944619297753456316
121,5857.50023206710952268632544942378118,5856.0,1.50023206710952268632544942378118
122,5954.70189006563726642792297569631185,5953.2,1.50189006563726642792297569631185
123,6052.70353451626232764752959405520530,6051.2,1.50353451626232764752959405520530
124,6151.50516563868446054740076087792504,6150.0,1.50516563868446054740076087792504
125,6251.10678364730101349947625583937204,6249.6,1.50678364730101349947625583937204
126,6351.50838875137623625509873386825727,6350.0,1.50838875137623625509873386825727
127,6452.70998115520388317639403044804167,6451.2,1.50998115520388317639403044804167
128,6554.71156105826342565803949001658299,6553.2,1.51156105826342565803949001658299
129,6657.51312865537017483490848828233420,6656.0,1.51312865537017483490848828233420
130,6761.11468413681959728921200758220116,6759.6,1.51468413681959728921200758220116
131,6865.51622768852609106664011381400799,6864.0,1.51622768852609106664011381400799
132,6970.71775949215647433380553983896786,6969.2,1.51775949215647433380553983896786
133,7076.71927972525842722770719225376651,7075.2,1.51927972525842722770719225376651
134,7183.52078856138411617197312057415783,7182.0,1.52078856138411617197312057415783
135,7291.12228617020921182629966230128116,7289.6,1.52228617020921182629966230128116
136,7399.52377271764750814797308373392437,7398.0,1.52377271764750814797308373392437
137,7508.72524836596133673641679472103243,7507.2,1.52524836596133673641679472103243
138,7618.72671327386795701971621945711217,7617.2,1.52671327386795701971621945711217
139,7729.52816759664210073616817291072541,7728.0,1.52816759664210073616817291072541
140,7841.12961148621483371793309260218082,7839.6,1.52961148621483371793309260218082
141,7953.53104509126889342637851709421298,7952.0,1.53104509126889342637851709421298
142,8066.73246855733065261543544576641846,8065.2,1.53246855733065261543544576641846
143,8180.73388202685885084911952350410159,8179.2,1.53388202685885084911952350410159
144,8295.53528563933022841973236424414759,8294.0,1.53528563933022841973236424414759
145,8411.13667953132219302549896584721766,8409.6,1.53667953132219302549896584721766
146,8527.53806383659264169764657116633718,8526.0,1.53806383659264169764657116633718
147,8644.73943868615705226396401294759185,8643.2,1.53943868615705226396401294759185
148,8762.74080420836295967784747008082338,8761.2,1.54080420836295967784747008082338
149,8881.54216052896191901376430726309310,8880.0,1.54216052896191901376430726309310
150,9001.14350777117905876998930878384039,8999.6,1.54350777117905876998930878384039
151,9121.54484605578032039284407328873158,9120.0,1.54484605578032039284407328873158
152,9242.74617550113747432158555794976441,9241.2,1.54617550113747432158555794976441
153,9364.74749622329100150361317610284661,9363.2,1.54749622329100150361317610284661
154,9487.54880833601092427921183200191080,9486.0,1.54880833601092427921183200191080
155,9611.15011195085566487179853189673355,9609.6,1.55011195085566487179853189673355
156,9735.55140717722900935001029325788728,9734.0,1.55140717722900935001029325788728
157,9860.75269412243524810821072584580437,9859.2,1.55269412243524810821072584580437
158,9986.75397289173256468349054232840108,9985.2,1.55397289173256468349054232840108
159,10113.5552435883847365819691003621307,10112.0,1.5552435883847365819691003621307
160,10241.1565063137112144519084233911430,10239.6,1.5565063137112144519084233911430
161,10369.5577611671356380997323911483896,10368.0,1.5577611671356380997323911483896
162,10498.7590082462328488100242838172442,10497.2,1.5590082462328488100242838172442
163,10628.7602476467744528227736300623572,10627.2,1.5602476467744528227736300623572
164,10759.5614794627729906044392980726456,10758.0,1.5614794627729906044392980726456
165,10891.1627037865247605130181809338360,10889.6,1.5627037865247605130181809338360
166,11023.5639207086513473726799727771148,11022.0,1.5639207086513473726799727771148
167,11156.7651303181399031902593509300518,11155.2,1.5651303181399031902593509300518
168,11290.7663327023822227024909936333531,11289.2,1.5663327023822227024909936333531
169,11425.5675279472126588160496246666602,11424.0,1.5675279472126588160496246666602
170,11561.1687161369449176834829616194977,11559.6,1.5687161369449176834829616194977
171,11697.5698973544077736094699178084635,11696.0,1.5698973544077736094699178084635
172,11834.7710716809797416540340485864415,11833.2,1.5710716809797416540340485864415
173,11972.7722391966227433350147403453265,11971.2,1.5722391966227433350147403453265
174,12111.5733999799148012732820646955293,12110.0,1.5733999799148012732820646955293
175,12251.1745541080817967656002343048814,12249.6,1.5745541080817967656002343048814
176,12391.5757016570283199914642360917098,12390.0,1.5757016570283199914642360917098
177,12532.7768427013676461144191244765158,12531.2,1.5768427013676461144191244765158
178,12674.7779773144508664322299506102830,12673.2,1.5779773144508664322299506102830
179,12817.5791055683952010208200552334615,12816.0,1.5791055683952010208200552334615
180,12961.1802275341115238183485426766089,12959.6,1.5802275341115238183485426766089
181,13105.5813432813311227979849014988101,13104.0,1.5813432813311227979849014988101
182,13250.7824528786317229247379827243177,13249.2,1.5824528786317229247379827243177
183,13396.7835563934627949455851977795959,13395.2,1.5835563934627949455851977795959
184,13543.5846538921701742544096339928479,13542.0,1.5846538921701742544096339928479
185,13691.1857454400200116398403282702728,13689.6,1.5857454400200116398403282702728
186,13839.5868311012220768845864552691898,13838.0,1.5868311012220768845864552691898
187,13988.7879109389524390167347144747323,13987.2,1.5879109389524390167347144747323
188,14138.7889850153755386492956497182412,14137.2,1.5889850153755386492956497182412
189,14289.5900533916656761390580239513865,14288.0,1.5900533916656761390580239513865
190,14441.1911161280279312157973132997964,14439.6,1.5911161280279312157973132997964
191,14593.5921732837185333043579394218555,14592.0,1.5921732837185333043579394218555
192,14746.7932249170646989217796884465536,14745.2,1.5932249170646989217796884465536
193,14900.7942710854839544532827818243597,14899.2,1.5942710854839544532827818243597
194,15055.5953118455029576478605324523562,15054.0,1.5953118455029576478605324523562
195,15211.1963472527758357658037106157562,15209.6,1.5963472527758357658037106157562
196,15367.5973773621020540700216540410490,15366.0,1.5973773621020540700216540410490
197,15524.7984022274438290364457627870305,15523.2,1.5984022274438290364457627870305
198,15682.7994219019431004454585343777609,15681.2,1.5994219019431004454585343777609
199,15841.6004364379380751881663983963984,15840.0,1.6004364379380751881663983963984
200,16001.2014458869793567276793265433156,15999.6,1.6014458869793567276793265433156
201,16161.6024502998456711917785347192076,16160.0,1.6024502998456711917785347192076
202,16322.8034497265592034730861457183076,16321.2,1.6034497265592034730861457183076
203,16484.8044442164005539914210264242572,16483.2,1.6044442164005539914210264242572
204,16647.6054338179233277332050416254403,16646.0,1.6054338179233277332050416254403
205,16811.2064185789683655332339633565923,16809.6,1.6064185789683655332339633565923
206,16975.6073985466776306175127401967563,16974.0,1.6073985466776306175127401967563
207,17140.8083737675077562777829750498352,17139.2,1.6083737675077562777829750498352
208,17306.8093442872432688991499401977726,17305.2,1.6093442872432688991499401977726
209,17473.6103101510094920836392108474661,17472.0,1.6103101510094920836392108474661
210,17641.2112714032851433652847304782768,17639.6,1.6112714032851433652847304782768
211,17809.6122280879146308757072041979839,17808.0,1.6122280879146308757072041979839
212,17978.8131802481200601873076871731920,17977.2,1.6131802481200601873076871731920
213,18148.8141279265129557119671652788940,18147.2,1.6141279265129557119671652788940
214,18319.6150711651057116309381305560995,18318.0,1.6150711651057116309381305560995
215,18491.2160100053227715621558640456292,18489.6,1.6160100053227715621558640456292
216,18663.6169444880115509194226044312027,18662.0,1.6169444880115509194226044312027
217,18836.8178746534531059225029026708429,18835.2,1.6178746534531059225029026708429
218,19010.8188005413725582305759495311142,19009.2,1.6188005413725582305759495311142
219,19185.6197221909492784719765542471462,19184.0,1.6197221909492784719765542471462
220,19361.2206396408268411783484588322143,19359.6,1.6206396408268411783484588322143
221,19537.6215529291227490254953280395527,19536.0,1.6215529291227490254953280395527
222,19714.8224620934379435782906818726359,19713.2,1.6224620934379435782906818726359
223,19892.8233671708660961004732435652237,19891.2,1.6233671708660961004732435652237
224,20071.6242681980026934886215272356177,20070.0,1.6242681980026934886215272356177
225,20251.2251652109539218868456802609587,20249.6,1.6251652109539218868456802609587
226,20431.6260582453453515201324666862262,20430.0,1.6260582453453515201324666862262
227,20612.8269473363304313891854193836804,20611.2,1.6269473363304313891854193836804
228,20794.8278325185987956369546125284411,20793.2,1.6278325185987956369546125284411
229,20977.6287138263843887389947399508025,20976.0,1.6287138263843887389947399508025
230,21161.2295912934734142038830491252686,21159.6,1.6295912934734142038830491252686
231,21345.6304649532121085729550259149752,21344.0,1.6304649532121085729550259149752
232,21530.8313348385143511282656428784599,21529.2,1.6313348385143511282656428784599
233,21716.8322009818691042942678480044022,21715.2,1.6322009818691042942678480044022
234,21903.6330634153477008792611185631795,21902.0,1.6330634153477008792611185631795
235,22091.2339221706109713276969743263172,22089.6,1.6339221706109713276969743263172
236,22279.6347772789162206820966335981380,22278.0,1.6347772789162206820966335981380
237,22468.8356287711240588746939928453457,22467.2,1.6356287711240588746939928453457
238,22658.8364766777050860798016552494536,22657.2,1.6364766777050860798016552494536
