Eigenstate,Energy,Kinetic Energy,Potential Energy
1,0.500000000396695918726720287053501358,0.0,0.500000000396695918726720287053501358
2,1.84623094024057399706467953694735101,1.2,0.64623094024057399706467953694735101
3,3.93633761731146378707103816144014373,3.2,0.73633761731146378707103816144014373
4,6.79966529365814232866744329367853110,6.0,0.79966529365814232866744329367853110
5,10.4480466027315783599408588948631733,9.6,0.8480466027315783599408588948631733
6,14.8870660393422363900360459753293884,14.0,0.8870660393422363900360459753293884
7,20.1197208849549716792344091240835326,19.2,0.9197208849549716792344091240835326
8,26.1477839259613715555023614574734070,25.2,0.9477839259613715555023614574734070
9,32.9723836613768429493484864288463787,32.0,0.9723836613768429493484864288463787
10,40.5942803453563659819088003377199044,39.6,0.9942803453563659819088003377199044
11,49.0140095480459840849850955348884260,48.0,1.0140095480459840849850955348884260
12,58.2319623647545987784220710803505300,57.2,1.0319623647545987784220710803505300
13,68.2484329255519226639936950656527186,67.2,1.0484329255519226639936950656527186
14,79.0636479281248490018588337865300905,78.0,1.0636479281248490018588337865300905
15,90.6777857535917622895168493169472175,89.6,1.0777857535917622895168493169472175
16,103.090989271373062534366427131533309,102.0,1.090989271373062534366427131533309
17,116.303374672652721400155965926383919,115.2,1.103374672652721400155965926383919
18,130.315037721384516693777556982998618,129.2,1.115037721384516693777556982998618
19,145.126058277396034369397040191946746,144.0,1.126058277396034369397040191946746
20,160.736503634022622414155482416571189,159.6,1.136503634022622414155482416571189
21,177.146431024189100821186832725147473,176.0,1.146431024189100821186832725147473
22,194.355889531568511336873047793406169,193.2,1.155889531568511336873047793406169
23,212.364921568518649512130508475608927,211.2,1.164921568518649512130508475608927
24,231.173564033482492685338232575330552,230.0,1.173564033482492685338232575330552
25,250.781849227784131067173568261593594,249.6,1.181849227784131067173568261593594
26,271.189805589436359361643596848758951,270.0,1.189805589436359361643596848758951
27,292.397458286103255867120747168405865,291.2,1.197458286103255867120747168405865
28,314.404829698459225131305349672790061,313.2,1.204829698459225131305349672790061
29,337.211939817390952370495854973942049,336.0,1.211939817390952370495854973942049
30,360.818806572839230264720427348613088,359.6,1.218806572839230264720427348613088
31,385.225446107931680219171094311949413,384.0,1.225446107931680219171094311949413
32,410.431873008979490582479999270212466,409.2,1.231873008979490582479999270212466
33,436.438100499601646497170302953529877,435.2,1.238100499601646497170302953529877
34,463.244140605489579783286180783341116,462.0,1.244140605489579783286180783341116
35,490.850004294985972184420552136671384,489.6,1.250004294985972184420552136671384
36,519.255701599617966422233157317674305,518.0,1.255701599617966422233157317674305
37,548.461241717920954953565544300672367,547.2,1.261241717920954953565544300672367
38,578.466633105258697578462022725858597,577.2,1.266633105258697578462022725858597
39,609.271883551847670395839716046058014,608.0,1.271883551847670395839716046058014
40,640.877000250797727818413793045434283,639.6,1.277000250797727818413793045434283
41,673.281989857664409083516343470433846,672.0,1.281989857664409083516343470433846
42,706.486858542753228093961565981750956,705.2,1.286858542753228093961565981750956
43,740.491612037209799077416231286508410,739.2,1.291612037209799077416231286508410
44,775.296255673761556536611425239834106,774.0,1.296255673761556536611425239834106
45,810.900794422839258393240097915880966,809.6,1.300794422839258393240097915880966
46,847.305232924693324945394818879088482,846.0,1.305232924693324945394818879088482
47,884.509575518026589645747646727882387,883.2,1.309575518026589645747646727882387
48,922.513826265587451343168340110453841,921.2,1.313826265587451343168340110453841
49,961.317988977102755086370231629653092,960.0,1.317988977102755086370231629653092
50,1000.92206722987560587435001964898047,999.6,1.32206722987560587435001964898047
51,1041.32606438732785277577761579682929,1040.0,1.32606438732785277577761579682929
52,1082.52998361572863562507981244268854,1081.2,1.32998361572863562507981244268854
53,1124.53382789931793638432504173369581,1123.2,1.33382789931793638432504173369581
54,1167.33760005400651612848736042538464,1166.0,1.33760005400651612848736042538464
55,1210.94130273981014311909655304845488,1209.6,1.34130273981014311909655304845488
56,1255.34493847215594286110935590662575,1254.0,1.34493847215594286110935590662575
57,1300.54850963218150207268058418355514,1299.2,1.34850963218150207268058418355514
58,1346.55201847613256131119554487620820,1345.2,1.35201847613256131119554487620820
59,1393.35546714395237705162554266500099,1392.0,1.35546714395237705162554266500099
60,1440.95885766714480950555335254596024,1439.6,1.35885766714480950555335254596024
61,1489.36219197598362824170009961639810,1488.0,1.36219197598362824170009961639810
62,1538.56547190613222666366616831389228,1537.2,1.36547190613222666366616831389228
63,1588.56869920473069451157546031605249,1587.2,1.36869920473069451157546031605249
64,1639.37187553600088507439221576561283,1638.0,1.37187553600088507439221576561283
65,1690.97500248641457895971277174945159,1689.6,1.37500248641457895971277174945159
66,1743.37808156946499892878438698222053,1742.0,1.37808156946499892878438698222053
67,1796.58111423007766801318919661326002,1795.2,1.38111423007766801318919661326002
68,1850.58410184869284696883253608120617,1849.2,1.38410184869284696883253608120617
69,1905.38704574504847445216323950540453,1904.0,1.38704574504847445216323950540453
70,1960.98994718168960503529970723625150,1959.6,1.38994718168960503529970723625150
71,2017.39280736722774147302689641275927,2016.0,1.39280736722774147302689641275927
72,2074.59562745937115939226022858236474,2073.2,1.39562745937115939226022858236474
73,2132.59840856774526956819416171762628,2131.2,1.39840856774526956819416171762628
74,2191.40115175652024410281524799208068,2190.0,1.40115175652024410281524799208068
75,2251.00385804686150172038141080507893,2249.6,1.40385804686150172038141080507893
76,2311.40652841921719783773274894164933,2310.0,1.40652841921719783773274894164933
77,2372.60916381545556266890772271674969,2371.2,1.40916381545556266890772271674969
78,2434.61176514086376482538048094367976,2433.2,1.41176514086376482538048094367976
79,2497.41433326601893105326913067996976,2496.0,1.41433326601893105326913067996976
80,2561.01686902854101462324456046044372,2559.6,1.41686902854101462324456046044372
81,2625.41937323473635554742345870325906,2624.0,1.41937323473635554742345870325906
82,2690.62184666114001434700029976220073,2689.2,1.42184666114001434700029976220073
83,2756.62429005596427236061420639648879,2755.2,1.42429005596427236061420639648879
84,2823.42670414046006729175973652030201,2822.0,1.42670414046006729175973652030201
85,2891.02908961019757341740841891842601,2889.6,1.42908961019757341740841891842601
86,2959.43144713627162001464851664828719,2958.0,1.43144713627162001464851664828719
87,3028.63377736643718409138629570098383,3027.2,1.43377736643718409138629570098383
88,3098.63608092617977012944683647898611,3097.2,1.43608092617977012944683647898611
89,3169.43835841972510604628728939225632,3168.0,1.43835841972510604628728939225632
90,3241.04061043099224136484096657369379,3239.6,1.44061043099224136484096657369379
91,3313.44283752449381212899747922561431,3312.0,1.44283752449381212899747922561431
92,3386.64504024618694880472067061732496,3385.2,1.44504024618694880472067061732496
93,3460.64721912427804115179084572369853,3459.2,1.44721912427804115179084572369853
94,3535.44937466998433112245801155748773,3534.0,1.44937466998433112245801155748773
95,3611.05150737825508368930509079869817,3609.6,1.45150737825508368930509079869817
96,3687.45361772845488368254419242503364,3686.0,1.45361772845488368254419242503364
97,3764.65570618501142237490507530102173,3763.2,1.45570618501142237490507530102173
98,3842.65777319802996467801933225666606,3841.2,1.45777319802996467801933225666606
99,3921.45981920387653434206564465677689,3920.0,1.45981920387653434206564465677689
100,4001.06184462573170821006616882878224,3999.6,1.46184462573170821006616882878224
101,4081.46384987411678127412153037859065,4080.0,1.46384987411678127412153037859065
102,4162.66583534739393870619701816831683,4161.2,1.46583534739393870619701816831683
103,4244.66780143224196312250971949667223,4243.2,1.46780143224196312250971949667223
104,4327.46974850410889807591065004188488,4326.0,1.46974850410889807591065004188488
105,4411.07167692764299569694696040589137,4409.6,1.47167692764299569694696040589137
106,4495.47358705710318564010333935069228,4494.0,1.47358705710318564010333935069228
107,4580.67547923675022440982141974452038,4579.2,1.47547923675022440982141974452038
108,4666.67735380121960490139655575087663,4665.2,1.47735380121960490139655575087663
109,4753.47921107587723739837969126989495,4752.0,1.47921107587723739837969126989495
110,4841.08105137715885084804458150163815,4839.6,1.48105137715885084804458150163815
111,4929.48287501289399737534355213233705,4928.0,1.48287501289399737534355213233705
112,5018.68468228261549356220761796693168,5017.2,1.48468228261549356220761796693168
113,5108.68647347785507648331560117554275,5107.2,1.48647347785507648331560117554275
114,5199.48824888242600373177034301592098,5198.0,1.48824888242600373177034301592098
115,5291.09000877269328621968279964136453,5289.6,1.49000877269328621968279964136453
116,5383.49175341783219420709114640109275,5382.0,1.49175341783219420709114640109275
117,5476.69348308007564529970627760231090,5475.2,1.49348308007564529970627760231090
118,5570.69519801495104212494370340963047,5569.2,1.49519801495104212494370340963047
119,5665.49689847150709368206428301343097,5664.0,1.49689847150709368206428301343097
120,5761.09858469253112852008886795875132,5759.6,1.49858469253112852008886795875132
121,5857.50025691475736962998949602634465,5856.0,1.50025691475736962998949602634465
122,5954.70191536906662202461098686979327,5953.2,1.50191536906662202461098686979327
123,6052.70356028067779178692968028556719,6051.2,1.50356028067779178692968028556719
124,6151.50519186933163768753556600502048,6150.0,1.50519186933163768753556600502048
125,6251.10681034946712690605382403737252,6249.6,1.50681034946712690605382403737252
126,6351.50841593039075119401569736497064,6350.0,1.50841593039075119401569736497064
127,6452.71000881643913923889803917461970,6451.2,1.51000881643913923889803917461970
128,6554.71158920713527840196193799315121,6553.2,1.51158920713527840196193799315121
129,6657.51315729733864692938185705956239,6656.0,1.51315729733864692938185705956239
130,6761.11471327738953935439562333583465,6759.6,1.51471327738953935439562333583465
131,6865.51625733324785240419455624232670,6864.0,1.51625733324785240419455624232670
132,6970.71778964662658374818531192355859,6969.2,1.51778964662658374818531192355859
133,7076.71931039512028414277767228423710,7075.2,1.51931039512028414277767228423710
134,7183.52081975232869225202181910066616,7182.0,1.52081975232869225202181910066616
135,7291.12231788797576331518851388902066,7289.6,1.52231788797576331518851388902066
136,7399.52380496802429914498102806878459,7398.0,1.52380496802429914498102806878459
137,7508.72528115478637363225658090346164,7507.2,1.52528115478637363225658090346164
138,7618.72674660702973432127012960711380,7617.2,1.52674660702973432127012960711380
139,7729.52820148008035851368654643290336,7728.0,1.52820148008035851368654643290336
140,7841.12964592592132691378104301403282,7839.6,1.52964592592132691378104301403282
141,7953.53108009328817326989448228641327,7952.0,1.53108009328817326989448228641327
142,8066.73250412776086039409980469071131,8065.2,1.53250412776086039409980469071131
143,8180.73391817185252429201397530948501,8179.2,1.53391817185252429201397530948501
144,8295.53532236509512095521153486412527,8294.0,1.53532236509512095521153486412527
145,8411.13671684412210618109842339752702,8409.6,1.53671684412210618109842339752702
146,8527.53810174274827091652378731866066,8526.0,1.53810174274827091652378731866066
147,8644.73947719204684641860987086867119,8643.2,1.53947719204684641860987086867119
148,8762.74084332042399456842537800247405,8761.2,1.54084332042399456842537800247405
149,8881.54220025369078514523956803515289,8880.0,1.54220025369078514523956803515289
150,9001.14354811513276370919993450816702,8999.6,1.54354811513276370919993450816702
151,9121.54488702557720601385431765921969,9120.0,1.54488702557720601385431765921969
152,9242.74621710345814925504734531892770,9241.2,1.54621710345814925504734531892770
153,9364.74753846487928911345665963934429,9363.2,1.54753846487928911345665963934429
154,9487.54885122367482649779219613402631,9486.0,1.54885122367482649779219613402631
155,9611.15015549146834223265486730399610,9609.6,1.55015549146834223265486730399610
156,9735.55145137772977756564818804210993,9734.0,1.55145137772977756564818804210993
157,9860.75273898983059154880490903728854,9859.2,1.55273898983059154880490903728854
158,9986.75401843309716712114187300926686,9985.2,1.55401843309716712114187300926686
159,10113.5552898108625295741233931470698,10112.0,1.5552898108625295741233931470698
160,10241.1565532245164437467889905735310,10239.6,1.5565532245164437467889905735310
161,10369.5578087735539484561391530210733,10368.0,1.5578087735539484561391530210733
162,10498.7590565556223876336323631803992,10497.2,1.5590565556223876336323631803992
163,10628.7602966665669930311249511833597,10627.2,1.5602966665669930311249511833597
164,10759.5615292004750731431784336607808,10758.0,1.5615292004750731431784336607808
165,10891.1627542497188569565816159400128,10889.6,1.5627542497188569565816159400128
166,11023.5639719049970430536133196544289,11022.0,1.5639719049970430536133196544289
167,11156.7651822553751013126339828878080,11155.2,1.5651822553751013126339828878080
168,11290.7663853883243699065180821316354,11289.2,1.5663853883243699065180821316354
169,11425.5675813897599926729545227244634,11424.0,1.5675813897599926729545227244634
170,11561.1687703440777366120357128883602,11559.6,1.5687703440777366120357128883602
171,11697.5699523341897297182583202751960,11696.0,1.5699523341897297182583202751960
172,11834.7711274415591570266403637252466,11833.2,1.5711274415591570266403637252466
173,11972.7722957462339502887263908323867,11971.2,1.5722957462339502887263908323867
174,12111.5734573268795071358401140822799,12110.0,1.5734573268795071358401140822799
175,12251.1746122608104737287836651442116,12249.6,1.5746122608104737287836651442116
176,12391.5757606240216206150393591708389,12390.0,1.5757606240216206150393591708389
177,12532.7769024912178450691601583214210,12531.2,1.5769024912178450691601583214210
178,12674.7780379358433290863631704994909,12673.2,1.5780379358433290863631704994909
179,12817.5791670301098794903675694520537,12816.0,1.5791670301098794903675694520537
180,12961.1802898450244811184755743173853,12959.6,1.5802898450244811184755743173853
181,13105.5814064504160857495871827945406,13104.0,1.5814064504160857495871827945406
182,13250.7825169149616644881848048260934,13249.2,1.5825169149616644881848048260934
183,13396.7836213062115466717560023973368,13395.2,1.5836213062115466717560023973368
184,13543.5847196906140695619570774429403,13542.0,1.5847196906140695619570774429403
185,13691.1858121335395606470069811097976,13689.6,1.5858121335395606470069811097976
186,13839.5868986993036735438973663686947,13838.0,1.5868986993036735438973663686947
187,13988.7879794511901013215305493080737,13987.2,1.5879794511901013215305493080737
188,14138.7890544514726827023652647059871,14137.2,1.5890544514726827023652647059871
189,14289.5901237614369248956045056150062,14288.0,1.5901237614369248956045056150062
190,14441.1911874414009587356550511160932,14439.6,1.5911874414009587356550511160932
191,14593.5922455507359453717965968628311,14592.0,1.5922455507359453717965968628311
192,14746.7932981478859509153997171555215,14745.2,1.5932981478859509153997171555215
193,14900.7943452903873073734722613639254,14899.2,1.5943452903873073734722613639254
194,15055.5953870348874732350567811711567,15054.0,1.5953870348874732350567811711567
195,15211.1964234371634116694272859199926,15209.6,1.5964234371634116694272859199926
196,15367.5974545521395000554459456231456,15366.0,1.5974545521395000554459456231456
197,15524.7984804339049852457788576221251,15523.2,1.5984804339049852457788576221251
198,15682.7995011357309987572634158571145,15681.2,1.5995011357309987572634158571145
199,15841.6005167100871447515801034156056,15840.0,1.6005167100871447515801034156056
200,16001.2015272086576747777439934235458,15999.6,1.6015272086576747777439934235458
201,16161.6025326823572602851892470399426,16160.0,1.6025326823572602851892470399426
202,16322.8035331813463763170786149140511,16321.2,1.6035331813463763170786149140511
203,16484.8045287550463070731441205113030,16483.2,1.6045287550463070731441205113030
204,16647.6055194521537849927482972023174,16646.0,1.6055194521537849927482972023174
205,16811.2065053206552733605218558826290,16809.6,1.6065053206552733605218558826290
206,16975.6074864078409054915982881050141,16974.0,1.6074864078409054915982881050141
207,17140.8084627603180864067181916381149,17139.2,1.6084627603180864067181916381149
208,17306.8094344240247712596221882595880,17305.2,1.6094344240247712596221882595880
209,17473.6104014442424263020197528796894,17472.0,1.6104014442424263020197528796894
210,17641.2113638656086839256666912340627,17639.6,1.6113638656086839256666912340627
211,17809.6123217321296991859906206571440,17808.0,1.6123217321296991859906206571440
212,17978.8132750871922180814747719722350,17977.2,1.6132750871922180814747719722350
213,18148.8142239735753620154558122845282,18147.2,1.6142239735753620154558122845282
214,18319.6151684334621434665153645996573,18318.0,1.6151684334621434665153645996573
215,18491.2161085084507121260014619864991,18489.6,1.6161085084507121260014619864991
216,18663.6170442395653455113141767610979,18662.0,1.6170442395653455113141767610979
217,18836.8179756672671880701559490470850,18835.2,1.6179756672671880701559490470850
218,19010.8189028314647478063674582613101,19009.2,1.6189028314647478063674582613101
219,19185.6198257715241537606014050768590,19184.0,1.6198257715241537606014050768590
220,19361.2207445262791869164749744085553,19359.6,1.6207445262791869164749744085553
221,19537.6216591340410824993147753067228,19536.0,1.6216591340410824993147753067228
222,19714.8225696326081209320793091862904,19713.2,1.6225696326081209320793091862904
223,19892.8234760592750010790171441285550,19891.2,1.6234760592750010790171441285550
224,20071.6243784508420109086835662894072,20070.0,1.6243784508420109086835662894072
225,20251.2252768436239982079040027416135,20249.6,1.6252768436239982079040027416135
226,20431.6261712734591449624981375929040,20430.0,1.6261712734591449624981375929040
227,20612.8270617757175541284498319118785,20611.2,1.6270617757175541284498319118785
228,20794.8279483853096506876194567417490,20793.2,1.6279483853096506876194567417490
229,20977.6288311366944042272856495260211,20976.0,1.6288311366944042272856495260211
230,21161.2297100638873778202090408674575,21159.6,1.6297100638873778202090408674575
231,21345.6305852004686050884736215673567,21344.0,1.6305852004686050884736215673567
232,21530.8314565795903059576447668132580,21529.2,1.6314565795903059576447668132580
233,21716.8323242339844361881899100575557,21715.2,1.6323242339844361881899100575557
234,21903.6331881959700869356446723876211,21902.0,1.6331881959700869356446723876211
235,22091.2340484974607276202072773281484,22089.6,1.6340484974607276202072773281484
236,22279.6349051699713019184689121048490,22278.0,1.6349051699713019184689121048490
237,22468.8357582446251806158752787437810,22467.2,1.6357582446251806158752787437810
238,22658.8366077521609731741559841801270,22657.2,1.6366077521609731741559841801270
