Eigenstate,Energy,Kinetic Energy,Potential Energy
1,0.500000000031352430294685178705136322,0.0,0.500000000031352430294685178705136322
2,1.84623093785576687571270409271025970,1.2,0.64623093785576687571270409271025970
3,3.93633761030612464569194454646835892,3.2,0.73633761030612464569194454646835892
4,6.79966527906636233574536815073666426,6.0,0.79966527906636233574536815073666426
5,10.4480465774546174093234090788921118,9.6,0.8480465774546174093234090788921118
6,14.8870660002264809924505353602286869,14.0,0.8870660002264809924505353602286869
7,20.1197208288205570904299784418067608,19.2,0.9197208288205570904299784418067608
8,26.1477838496140243247429276807653773,25.2,0.9477838496140243247429276807653773
9,32.9723835616133012213147278063214239,32.0,0.9723835616133012213147278063214239
10,40.5942802189670507547259431181609969,39.6,0.9942802189670507547259431181609969
11,49.0140093918163761730174332829581892,48.0,1.0140093918163761730174332829581892
12,58.2319621754659560483948881567586087,57.2,1.0319621754659560483948881567586087
13,68.2484326999816379368390508570956265,67.2,1.0484326999816379368390508570956265
14,79.0636476630466009773017274616139461,78.0,1.0636476630466009773017274616139461
15,90.6777854457755414222980497699973749,89.6,1.0777854457755414222980497699973749
16,103.090988917585118175471726400501174,102.0,1.090988917585118175471726400501174
17,116.303374269655457533548317557254454,115.2,1.103374269655457533548317557254454
18,130.315037265936353009259708360994475,129.2,1.115037265936353009259708360994475
19,145.126057766251243264253279175929029,144.0,1.126057766251243264253279175929029
20,160.736503063931148819496346168947861,159.6,1.136503063931148819496346168947861
21,177.146430391896369455879367666888704,176.0,1.146430391896369455879367666888704
22,194.355888833815224529576873892390002,193.2,1.155888833815224529576873892390002
23,212.364920802040577775857310064941214,211.2,1.164920802040577775857310064941214
24,231.173563195010259589662623559308499,230.0,1.173563195010259589662623559308499
25,250.781848314042993516987232700850756,249.6,1.181848314042993516987232700850756
26,271.189804597145984088106199580372328,270.0,1.189804597145984088106199580372328
27,292.397457211977492722072151913599326,291.2,1.197457211977492722072151913599326
28,314.404828539205877622454436435551268,313.2,1.204828539205877622454436435551268
29,337.211938569711545762553254273114997,336.0,1.211938569711545762553254273114997
30,360.818805233428777488850337156848414,359.6,1.218805233428777488850337156848414
31,385.225444673478445771252310203092763,384.0,1.225444673478445771252310203092763
32,410.431871476164752543868204474351794,409.2,1.231871476164752543868204474351794
33,436.438098865099456775873307864326726,435.2,1.238098865099456775873307864326726
34,463.244138865966522645821579786940520,462.0,1.244138865966522645821579786940520
35,490.850002447100921127055993909590245,489.6,1.250002447100921127055993909590245
36,519.255699640021839413318122143087379,518.0,1.255699640021839413318122143087379
37,548.461239643256468065151714111268771,547.2,1.261239643256468065151714111268771
38,578.466630912160117014567783492399802,577.2,1.266630912160117014567783492399802
39,609.271881236940562915935585092014699,608.0,1.271881236940562915935585092014699
40,640.876997810698709547533021048923121,639.6,1.276997810698709547533021048923121
41,673.281987288980892694482284616552609,672.0,1.281987288980892694482284616552609
42,706.486855842083168342303241322714616,705.2,1.286855842083168342303241322714616
43,740.491609201141436665411589592304665,739.2,1.291609201141436665411589592304665
44,775.296252698873160279394499688274779,774.0,1.296252698873160279394499688274779
45,810.900791305698865656908236163554770,809.6,1.300791305698865656908236163554770
46,847.305229661858480324456734878070908,846.0,1.305229661858480324456734878070908
47,884.509572106044081844985672489423170,883.2,1.309572106044081844985672489423170
48,922.513822700993048226984708693618606,921.2,1.313822700993048226984708693618606
49,961.317985256420936856899478942329847,960.0,1.317985256420936856899478942329847
50,1000.92206334961929633800636957769400,999.6,1.32206334961929633800636957769400
51,1041.32606034399814865643464842856489,1040.0,1.32606034399814865643464842856489
52,1082.52997940581453388072456615048218,1081.2,1.32997940581453388072456615048218
53,1124.53382351929605948276696476734246,1123.2,1.33382351929605948276696476734246
54,1167.33759550034083523651633781208945,1166.0,1.33759550034083523651633781208945
55,1210.94129800895169915835957055613277,1209.6,1.34129800895169915835957055613277
56,1255.34493356054256538289930254693747,1254.0,1.34493356054256538289930254693747
57,1300.54850453623752590279339844937992,1299.2,1.34850453623752590279339844937992
58,1346.55201319226854091500253210152613,1345.2,1.35201319226854091500253210152613
59,1393.35546166856479856852380961419493,1392.0,1.35546166856479856852380961419493
60,1440.95885199661580040098723900655640,1439.6,1.35885199661580040098723900655640
61,1489.36218610668066452398808695296721,1488.0,1.36218610668066452398808695296721
62,1538.56546583440783761191553635869439,1537.2,1.36546583440783761191553635869439
63,1588.56869292692216486001809427323126,1587.2,1.36869292692216486001809427323126
64,1639.37186904842995459752474519155215,1638.0,1.37186904842995459752474519155215
65,1690.97499578538713940166849768488617,1689.6,1.37499578538713940166849768488617
66,1743.37807465127078821940533592703021,1742.0,1.37807465127078821940533592703021
67,1796.58110709098996171229611860663757,1795.2,1.38110709098996171229611860663757
68,1850.58409448496814687921075938771542,1849.2,1.38409448496814687921075938771542
69,1905.38703815292619434078751938796284,1904.0,1.38703815292619434078751938796284
70,1960.98993935739175340131636781941275,1959.6,1.38993935739175340131636781941275
71,2017.39279930695860129998458442915078,2016.0,1.39279930695860129998458442915078
72,2074.59561915931696482104292021710297,2073.2,1.39561915931696482104292021710297
73,2132.59840002407387942604745885374361,2131.2,1.39840002407387942604745885374361
74,2191.40114296538081222277954061071904,2190.0,1.40114296538081222277954061071904
75,2251.00384900438414398434325961113060,2249.6,1.40384900438414398434325961113060
76,2311.40651912151265587518482785000927,2310.0,1.40651912151265587518482785000927
77,2372.60915425861486414236007626655274,2371.2,1.40915425861486414236007626655274
78,2434.61175532095788023219620679412530,2433.2,1.41175532095788023219620679412530
79,2497.41432317909842697250169859658129,2496.0,1.41432317909842697250169859658129
80,2561.01685867063570333483381792585239,2559.6,1.41685867063570333483381792585239
81,2625.41936260185494094985664982336551,2624.0,1.41936260185494094985664982336551
82,2690.62183574926973409826899981605904,2689.2,1.42183574926973409826899981605904
83,2756.62427886107053616599189285591757,2755.2,1.42427886107053616599189285591757
84,2823.42669265848609126058925108856252,2822.0,1.42669265848609126058925108856252
85,2891.02907783706401040972165640111192,2889.6,1.42907783706401040972165640111192
86,2959.43143506787618589704374877529017,2958.0,1.43143506787618589704374877529017
87,3028.63376499865427982015598056043299,3027.2,1.43376499865427982015598056043299
88,3098.63606825486009957748570070072160,3097.2,1.43606825486009957748570070072160
89,3169.43834544069528948881104937857068,3168.0,1.43834544069528948881104937857068
90,3241.04059714005442453741184441348283,3239.6,1.44059714005442453741184441348283
91,3313.44282391742527076978098292119673,3312.0,1.44282391742527076978098292119673
92,3386.64502631873968859129067008829824,3385.2,1.44502631873968859129067008829824
93,3460.64720487217839294115222632625285,3459.2,1.44720487217839294115222632625285
94,3535.44936008893254140127004383397057,3534.0,1.44936008893254140127004383397057
95,3611.05149246392490013956131388636892,3609.6,1.45149246392490013956131388636892
96,3687.45360247649313576619661245109428,3686.0,1.45360247649313576619661245109428
97,3764.65569059103759683910697950822637,3763.2,1.45569059103759683910697950822637
98,3842.65775725763577588080819592017894,3841.2,1.45775725763577588080819592017894
99,3921.45980291262548929640406908826059,3920.0,1.45980291262548929640406908826059
100,4001.06182797915866624221426279966458,3999.6,1.46182797915866624221426279966458
101,4081.46383286772750819031785123269982,4080.0,1.46383286772750819031785123269982
102,4162.66581797666465535958263709113672,4161.2,1.46581797666465535958263709113672
103,4244.66778369261888827013738088133039,4243.2,1.46778369261888827013738088133039
104,4327.46973039100778541353378017881075,4326.0,1.46973039100778541353378017881075
105,4411.07165843644866495708794468501718,4409.6,1.47165843644866495708794468501718
106,4495.47356818316904763664759526859396,4494.0,1.47356818316904763664759526859396
107,4580.67545997539779991007567894010328,4579.2,1.47545997539779991007567894010328
108,4666.67733414773803720418673099873707,4665.2,1.47733414773803720418673099873707
109,4753.47919102552279849433821379232251,4752.0,1.47919102552279849433821379232251
110,4841.08103092515444103575389579003968,4839.6,1.48103092515444103575389579003968
111,4929.48285415442863820445791466641836,4928.0,1.48285415442863820445791466641836
112,5018.68466101284381397206464307050599,5017.2,1.48466101284381397206464307050599
113,5108.68645179189679200287538935991899,5107.2,1.48645179189679200287538935991899
114,5199.48822677536538860397668285019610,5198.0,1.48822677536538860397668285019610
115,5291.08998623957863831053227210595027,5289.6,1.48998623957863831053227210595027
116,5383.49173045367529255681278558966591,5382.0,1.49173045367529255681278558966591
117,5476.69345967985120017050018582308054,5475.2,1.49345967985120017050018582308054
118,5570.69517417359613739669867153760740,5569.2,1.49517417359613739669867153760740
119,5665.49687418392062144436728772460672,5664.0,1.49687418392062144436728772460672
120,5761.09855995357321570565460840769462,5759.6,1.49855995357321570565460840769462
121,5857.50023171924879653137158829288335,5856.0,1.50023171924879653137158829288335
122,5954.70188971178823253270590896090229,5953.2,1.50188971178823253270590896090229
123,6052.70353415636989518634914845666647,6051.2,1.50353415636989518634914845666647
124,6151.50516527269340184039945908533935,6150.0,1.50516527269340184039945908533935
125,6251.10678327515596265213932968924036,6249.6,1.50678327515596265213932968924036
126,6351.50838837302168779149044171141114,6350.0,1.50838837302168779149044171141114
127,6452.70998077058419066606122482686441,6451.2,1.50998077058419066606122482686441
128,6554.71156066732280033651295974073166,6553.2,1.51156066732280033651295974073166
129,6657.51312825805268421773194444329858,6656.0,1.51312825805268421773194444329858
130,6761.11468373306916377942816955850711,6759.6,1.51468373306916377942816955850711
131,6865.51622727828649055566280849531763,6864.0,1.51622727828649055566280849531763
132,6970.71775907537133479560612135175395,6969.2,1.51775907537133479560612135175395
133,7076.71927930187122730624314931383004,7075.2,1.51927930187122730624314931383004
134,7183.52078813133818376178613706546439,7182.0,1.52078813133818376178613706546439
135,7291.12228573344772264620985480005465,7289.6,1.52228573344772264620985480005465
136,7399.52377227411348430779559036473431,7398.0,1.52377227411348430779559036473431
137,7508.72524791559764529662629742362596,7507.2,1.52524791559764529662629742362596
138,7618.72671281661730854398448871325001,7617.2,1.52671281661730854398448871325001
139,7729.52816713244704783669906795732683,7728.0,1.52816713244704783669906795732683
140,7841.12961101501776959351884185466943,7839.6,1.52961101501776959351884185466943
141,7953.53104461301205039310066868538545,7952.0,1.53104461301205039310066868538545
142,8066.73246807195610062993310614688028,8065.2,1.53246807195610062993310614688028
143,8180.73388153430849602434697073815539,8179.2,1.53388153430849602434697073815539
144,8295.53528513954581153312754756896645,8294.0,1.53528513954581153312754756896645
145,8411.13667902424528801948374123975680,8409.6,1.53667902424528801948374123975680
146,8527.53806332216465417237886441338124,8526.0,1.53806332216465417237886441338124
147,8644.73943816431921796226157648948527,8643.2,1.53943816431921796226157648948527
148,8762.74080367905634296220213344478394,8761.2,1.54080367905634296220213344478394
149,8881.54215999212741133536506864664026,8880.0,1.54215999212741133536506864664026
150,9001.14350722675737712967191935423757,8999.6,1.54350722675737712967191935423757
151,9121.54484550371200579388411635268176,9120.0,1.54484550371200579388411635268176
152,9242.74617494136289021425132215892334,9241.2,1.54617494136289021425132215892334
153,9364.74749565575033222139401625293627,9363.2,1.54749565575033222139401625293627
154,9487.54880776064417346663693453982049,9486.0,1.54880776064417346663693453982049
155,9611.15011136760265390376038626123542,9609.6,1.55011136760265390376038626123542
156,9735.55140658602937574250640341709743,9734.0,1.55140658602937574250640341709743
157,9860.75269352322844392041644663884034,9859.2,1.55269352322844392041644663884034
158,9986.75397228445785491107516480772346,9985.2,1.55397228445785491107516480772346
159,10113.5552429729811975415665947725811,10112.0,1.5552429729811975415665947725811
160,10241.1565056901177321566535282198056,10239.6,1.5565056901177321566535282198056
161,10369.5577605352909066257719486961754,10368.0,1.5577605352909066257719486961754
162,10498.7590076060753686539130169967946,10497.2,1.5590076060753686539130169967946
163,10628.7602469982425292496627868071848,10627.2,1.5602469982425292496627868071848
164,10759.5614788058047319869657728813345,10758.0,1.5614788058047319869657728813345
165,10891.1627031210580766608010316938209,10889.6,1.5627031210580766608010316938209
166,11023.5639200346239478523303340564616,11022.0,1.5639200346239478523303340564616
167,11156.7651296354892956358091003659712,11155.2,1.5651296354892956358091003659712
168,11290.7663320110457111161445818988360,11289.2,1.5663320110457111161445818988360
169,11425.5675272471273418591627323897032,11424.0,1.5675272471273418591627323897032
170,11561.1687154280476869576708590863299,11559.6,1.5687154280476869576708590863299
171,11697.5698966366353119277474357300097,11696.0,1.5698966366353119277474357300097
172,11834.7710709542685213018883640530638,11833.2,1.5710709542685213018883640530638
173,11972.7722384609090243213112233933440,11971.2,1.5722384609090243213112233933440
174,12111.5733992351346295709026465846934,12110.0,1.5733992351346295709026465846934
175,12251.1745533541710025417128029447164,12249.6,1.5745533541710025417128029447164
176,12391.5757008939225158273207715700576,12390.0,1.5757008939225158273207715700576
177,12532.7768419290022252145792529746348,12531.2,1.5768419290022252145792529746348
178,12674.7779765327610008231058482039659,12673.2,1.5779765327610008231058482039659
179,12817.5791047773158397384376068303656,12816.0,1.5791047773158397384376068303656
180,12961.1802267335773910852187263179108,12959.6,1.5802267335773910852187263179108
181,13105.5813424712767161889785175112228,13104.0,1.5813424712767161889785175112228
182,13250.7824520589913115218558457751516,13249.2,1.5824520589913115218558457751516
183,13396.7835555641704174815148806203273,13395.2,1.5835555641704174815148806203273
184,13543.5846530531596372447590038794429,13542.0,1.5846530531596372447590038794429
185,13691.1857445912248875039370597276627,13689.6,1.5857445912248875039370597276627
186,13839.5868302425757020547316848064689,13838.0,1.5868302425757020547316848064689
187,13988.7879100703879120357980784272318,13987.2,1.5879100703879120357980784272318
188,14138.7889841368257182565378067824442,14137.2,1.5889841368257182565378067824442
189,14289.5900525030631793440659001683434,14288.0,1.5900525030631793440659001683434
190,14441.1911152293051313604160536520757,14439.6,1.5911152293051313604160536520757
191,14593.5921723748075581125026966605820,14592.0,1.5921723748075581125026966605820
192,14746.7932239978974285370091259332858,14745.2,1.5932239978974285370091259332858
193,14900.7942701559920194640152715529561,14899.2,1.5942701559920194640152715529561
194,15055.5953109056177371001127832755052,15054.0,1.5953109056177371001127832755052
195,15211.1963463024284551633305119290140,15209.6,1.5963463024284551633305119290140
196,15367.5973764012233833617343498163976,15366.0,1.5973764012233833617343498163976
197,15524.7984012559644805909858146608075,15523.2,1.5984012559644805909858146608075
198,15682.7994209197934270128015418579497,15681.2,1.5994209197934270128015418579497
199,15841.6004354450481678481306238750275,15840.0,1.6004354450481678481306238750275
200,16001.2014448832790428252117223665427,15999.6,1.6014448832790428252117223665427
201,16161.6024492852645122588900400812440,16160.0,1.6024492852645122588900400812440
202,16322.8034487010264931373067812485198,16321.2,1.6034487010264931373067812485198
203,16484.8044431798453158706441759444180,16483.2,1.6044431798453158706441759444180
204,16647.6054327702743133167889756492333,16646.0,1.6054327702743133167889756492333
205,16811.2064175201540520492275494442078,16809.6,1.6064175201540520492275494442078
206,16975.6073974766262188858709038876274,16974.0,1.6073974766262188858709038876274
207,17140.8083726861471685494362545578761,17139.2,1.6083726861471685494362545578761
208,17306.8093431945011466807911854911692,17305.2,1.6093431945011466807911854911692
209,17473.6103090468131939480891804492095,17472.0,1.6103090468131939480891804492095
210,17641.2112702875617427472969577228676,17639.6,1.6112702875617427472969577228676
211,17809.6122269605909138530712887743293,17808.0,1.6122269605909138530712887743293
212,17978.8131791091225232471087156211103,17977.2,1.6131791091225232471087156211103
213,18148.8141267757678035018575774773199,18147.2,1.6141267757678035018575774773199
214,18319.6150700025388546952770992341259,18318.0,1.6150700025388546952770992341259
215,18491.2160088308598240628696953631610,18489.6,1.6160088308598240628696953631610
216,18663.6169433015778283414383544071243,18662.0,1.6169433015778283414383544071243
217,18836.8178734549736227636059473967550,18835.2,1.6178734549736227636059473967550
218,19010.8187993307720256755407106972541,19009.2,1.6187993307720256755407106972541
219,19185.6197209681521020508183221921774,19184.0,1.6197209681521020508183221921774
220,19361.2206384057571184085425051306375,19359.6,1.6206384057571184085425051306375
221,19537.6215516817042670380081883829992,19536.0,1.6215516817042670380081883829992
222,19714.8224608335941767272668575853956,19713.2,1.6224608335941767272668575853956
223,19892.8233658985202035564191456954465,19891.2,1.6233658985202035564191456954465
224,20071.6242669130775168149268325205842,20070.0,1.6242669130775168149268325205842
225,20251.2251639133719825994806372701494,20249.6,1.6251639133719825994806372701494
226,20431.6260569350288486303583028961994,20430.0,1.6260569350288486303583028961994
227,20612.8269460132012389291131257692811,20611.2,1.6269460132012389291131257692811
228,20794.8278311825784601677860020939547,20793.2,1.6278311825784601677860020939547
229,20977.6287124773941268417777940481687,20976.0,1.6287124773941268417777940481687
230,21161.2295899314341099526120577825134,21159.6,1.6295899314341099526120577825134
231,21345.6304635780443109898442163750474,21344.0,1.6304635780443109898442163750474
232,21530.8313334501382716210233900890976,21529.2,1.6313334501382716210233900890976
233,21716.8321995802046140751966507290333,21715.2,1.6321995802046140751966507290333
234,21903.6330620003143283660070686293361,21902.0,1.6330620003143283660070686293361
235,22091.2339207421278995254703245826814,22089.6,1.6339207421278995254703245826814
236,22279.6347758369022845471833627763551,22278.0,1.6347758369022845471833627763551
237,22468.8356273154977426590767915027211,22467.2,1.6356273154977426590767915027211
238,22658.8364752083845206567062548103000,22657.2,1.6364752083845206567062548103000
