Eigenstate,Energy,Kinetic Energy,Potential Energy
1,0.500000000003838751077968111679948833,0.0,0.500000000003838751077968111679948833
2,1.84623093767617214473312046516422912,1.2,0.64623093767617214473312046516422912
3,3.93633760977858065722143169490374329,3.2,0.73633760977858065722143169490374329
4,6.79966527796755141884701546755371561,6.0,0.79966527796755141884701546755371561
5,10.4480465755512586080056485786116037,9.6,0.8480465755512586080056485786116037
6,14.8870659972812148211753286562086984,14.0,0.8870659972812148211753286562086984
7,20.1197208245941148777677998405938054,19.2,0.9197208245941148777677998405938054
8,26.1477838438661339229421945993656743,25.2,0.9477838438661339229421945993656743
9,32.9723835541031090839724983105085811,32.0,0.9723835541031090839724983105085811
10,40.5942802094533370091146932229490098,39.6,0.9942802094533370091146932229490098
11,49.0140093800576722442682773330344689,48.0,1.0140093800576722442682773330344689
12,58.2319621612206126260776770184088427,57.2,1.0319621612206126260776770184088427
13,68.2484326830078659082357910166176815,67.2,1.0484326830078659082357910166176815
14,79.0636476431024968034400698224643696,78.0,1.0636476431024968034400698224643696
15,90.6777854226191031290594598044128088,89.6,1.0777854226191031290594598044128088
16,103.090988890974255450005504209718236,102.0,1.090988890974255450005504209718236
17,116.303374239347997986705572929627451,115.2,1.103374239347997986705572929627451
18,130.315037231690045867298363059218362,129.2,1.115037231690045867298363059218362
19,145.126057727823761290106587554654805,144.0,1.126057727823761290106587554654805
20,160.736503021080088985533782980458344,159.6,1.136503021080088985533782980458344
21,177.146430344379252717430692912116958,176.0,1.146430344379252717430692912116958
22,194.355888781389494938386863045788066,193.2,1.155888781389494938386863045788066
23,212.364920744463601100659338156679815,211.2,1.164920744463601100659338156679815
24,231.173563132039321562937722956816653,230.0,1.173563132039321562937722956816653
25,250.781848245435297794144787411526163,249.6,1.181848245435297794144787411526163
26,271.189804522658649982507632632450355,270.0,1.189804522658649982507632632450355
27,292.397457131367552763195315476581816,291.2,1.197457131367552763195315476581816
28,314.404828452230274972924631704107041,313.2,1.204828452230274972924631704107041
29,337.211938476127131521343389434467227,336.0,1.211938476127131521343389434467227
30,360.818805132992307901740536998502704,359.6,1.218805132992307901740536998502704
31,385.225444565946579365002178743315203,384.0,1.225444565946579365002178743315203
32,410.431871361294047197054631959668307,409.2,1.231871361294047197054631959668307
33,436.438098742646366736676864046573554,435.2,1.238098742646366736676864046573554
34,463.244138735687395504988281422815509,462.0,1.244138735687395504988281422815509
35,490.850002308751994752663171720573713,489.6,1.250002308751994752663171720573713
36,519.255699493359238852720590563463406,518.0,1.255699493359238852720590563463406
37,548.461239488036202418494868540411962,547.2,1.261239488036202418494868540411962
38,578.466630748138076283466630351805672,577.2,1.266630748138076283466630351805672
39,609.271881063872514830287386715319468,608.0,1.271881063872514830287386715319468
40,640.876997628340296372921785632287645,639.6,1.276997628340296372921785632287645
41,673.281987097087628022219758067567275,672.0,1.281987097087628022219758067567275
42,706.486855640410433863813205983049804,705.2,1.286855640410433863813205983049804
43,740.491608989444478932386789253733552,739.2,1.291608989444478932386789253733552
44,775.296252476907087450926410918772585,774.0,1.296252476907087450926410918772585
45,810.900791073218644234599755038500283,809.6,1.300791073218644234599755038500283
46,847.305229418618931876369247181242698,846.0,1.305229418618931876369247181242698
47,884.509571851799879719139169271991675,883.2,1.309571851799879719139169271991675
48,922.513822435498714255017790910438522,921.2,1.313822435498714255017790910438522
49,961.317984979430838048401669480047427,960.0,1.317984979430838048401669480047427
50,1000.92206306088764156595502762799579,999.6,1.32206306088764156595502762799579
51,1041.32606004327898533410051374029089,1040.0,1.32606004327898533410051374029089
52,1082.52997909286174463035164478789201,1081.2,1.32997909286174463035164478789201
53,1124.53382319386335879628244705560262,1123.2,1.33382319386335879628244705560262
54,1167.33759516218176612848313246882547,1166.0,1.33759516218176612848313246882547
55,1210.94129765781962981134686676045188,1209.6,1.34129765781962981134686676045188
56,1255.34493319619068578541431712113391,1254.0,1.34493319619068578541431712113391
57,1300.54850415841884447988951504058686,1299.2,1.34850415841884447988951504058686
58,1346.55201280073588115165449930847377,1345.2,1.35201280073588115165449930847377
59,1393.35546126307079562583945310991528,1392.0,1.35546126307079562583945310991528
60,1440.95885157691289772530633118199593,1439.6,1.35885157691289772530633118199593
61,1489.36218567252111044890260913923452,1488.0,1.36218567252111044890260913923452
62,1538.56546538554368195323099440291166,1537.2,1.36546538554368195323099440291166
63,1588.56869246310525550366277304061430,1587.2,1.36869246310525550366277304061430
64,1639.37186856941193408040241560526400,1638.0,1.37186856941193408040241560526400
65,1690.97499529091944148543991851792190,1689.6,1.37499529091944148543991851792190
66,1743.37807414110463445717493737965556,1742.0,1.37807414110463445717493737965556
67,1796.58110656487635800817219420186381,1795.2,1.38110656487635800817219420186381
68,1850.58409394265788004070029412168206,1849.2,1.38409394265788004070029412168206
69,1905.38703759416982862398021327926159,1904.0,1.38703759416982862398021327926159
70,1960.98993878193962704880678308561129,1959.6,1.38993878193962704880678308561129
71,2017.39279871456082307147582044618005,2016.0,1.39279871456082307147582044618005
72,2074.59561854972341051657071234865462,2073.2,1.39561854972341051657071234865462
73,2132.59839939703418840175907300421735,2131.2,1.39839939703418840175907300421735
74,2191.40114232064438389919802711508830,2190.0,1.40114232064438389919802711508830
75,2251.00384834170013434704395636008400,2249.6,1.40384834170013434704395636008400
76,2311.40651844062997396780780122016135,2310.0,1.40651844062997396780780122016135
77,2372.60915355928216855187912381248306,2371.2,1.40915355928216855187912381248306
78,2434.61175460292357556636228647717181,2433.2,1.41175460292357556636228647717181
79,2497.41432244211066032937607286880151,2496.0,1.41432244211066032937607286880151
80,2561.01685791444236076432391814837067,2559.6,1.41685791444236076432391814837067
81,2625.41936182620364390716537006173638,2624.0,1.41936182620364390716537006173638
82,2690.62183495390783588916615379225707,2689.2,1.42183495390783588916615379225707
83,2756.62427804574511838381465769141152,2755.2,1.42427804574511838381465769141152
84,2823.42669182294396021487663476698302,2822.0,1.42669182294396021487663476698302
85,2891.02907698105169354638633358673648,2889.6,1.42907698105169354638633358673648
86,2959.43143419113992820998310410297802,2958.0,1.43143419113992820998310410297802
87,3028.63376410094004025420262220232988,3027.2,1.43376410094004025420262220232988
88,3098.63606733591354742259636235846850,3097.2,1.43606733591354742259636235846850
89,3169.43834450026180076539145537142008,3168.0,1.43834450026180076539145537142008
90,3241.04059617787907837267384403385881,3239.6,1.44059617787907837267384403385881
91,3313.44282293325284576502700764888157,3312.0,1.44282293325284576502700764888157
92,3386.64502531231465918001946947115724,3385.2,1.44502531231465918001946947115724
93,3460.64720384324492573787866167608058,3459.2,1.44720384324492573787866167608058
94,3535.44935903723449154095068547807788,3534.0,1.44935903723449154095068547807788
95,3611.05149138920580760751649388818850,3609.6,1.45149138920580760751649388818850
96,3687.45360137849622171841869731420911,3686.0,1.45360137849622171841869731420911
97,3764.65568946950575991284345638825724,3763.2,1.45568946950575991284345638825724
98,3842.65775611231158849530745748630235,3841.2,1.45775611231158849530745748630235
99,3921.45980174325119394371061338959312,3920.0,1.45980174325119394371061338959312
100,4001.06182678547617176789931573354173,3999.6,1.46182678547617176789931573354173
101,4081.46383164947838606403040558894331,4080.0,1.46383164947838606403040558894331
102,4162.66581673359013593530509039388657,4161.2,1.46581673359013593530509039388657
103,4244.66778242445985703602914788806668,4243.2,1.46778242445985703602914788806668
104,4327.46972909750477923124522208724444,4326.0,1.46972909750477923124522208724444
105,4411.07165711734186829042637618511393,4409.6,1.47165711734186829042637618511393
106,4495.47356683819828876947612461776894,4494.0,1.47356683819828876947612461776894
107,4580.67545860430254715332489482293664,4579.2,1.47545860430254715332489482293664
108,4666.67733275025739509185846464843058,4665.2,1.47733275025739509185846464843058
109,4753.47918960139550396837971037127153,4752.0,1.47918960139550396837971037127153
110,4841.08102947411885961968005053473928,4839.6,1.48102947411885961968005053473928
111,4929.48285267622276016559834836340519,4928.0,1.48285267622276016559834836340519
112,5018.68465950720525047231161903842143,5017.2,1.48465950720525047231161903842143
113,5108.68645025856277123780783779015982,5107.2,1.48645025856277123780783779015982
114,5199.48822521407275193023474028983902,5198.0,1.48822521407275193023474028983902
115,5291.08998465006383636131599252429138,5289.6,1.48998465006383636131599252429138
116,5383.49172883567438134537788112603706,5382.0,1.49172883567438134537788112603706
117,5476.69345803309983718152290367172317,5475.2,1.49345803309983718152290367172317
118,5570.69517249782957766538104567592278,5569.2,1.49517249782957766538104567592278
119,5665.49687247887371362315331395643365,5664.0,1.49687247887371362315331395643365
120,5761.09855821898039811842701239090106,5759.6,1.49855821898039811842701239090106
121,5857.50022995484409321499809443772808,5856.0,1.50022995484409321499809443772808
122,5954.70188791730524926580312833038762,5953.2,1.50188791730524926580312833038762
123,6052.70353233154181550513137876258401,6051.2,1.50353233154181550513137876258401
124,6151.50516341725298304147890625135811,6150.0,1.50516341725298304147890625135811
125,6251.10678138883553178214341363406434,6249.6,1.50678138883553178214341363406434
126,6351.50838645555313762336106841593240,6350.0,1.50838645555313762336106841593240
127,6452.70997882169897566190010029919286,6451.2,1.50997882169897566190010029919286
128,6554.71155868675193259683607371420793,6553.2,1.51155868675193259683607371420793
129,6657.51312624552672941699568526574303,6656.0,1.51312624552672941699568526574303
130,6761.11468168831823708768860909936006,6759.6,1.51468168831823708768860909936006
131,6865.51622520104025254622885970272005,6864.0,1.51622520104025254622885970272005
132,6970.71775696535898733854629585484142,6969.2,1.51775696535898733854629585484142
133,7076.71927715882150944760513362020091,7075.2,1.51927715882150944760513362020091
134,7183.52078595497936758838713264997353,7182.0,1.52078595497936758838713264997353
135,7291.12228352350760913585491304271840,7289.6,1.52228352350760913585491304271840
136,7399.52377003031939916478049268424810,7398.0,1.52377003031939916478049268424810
137,7508.72524563767643477238029338837076,7507.2,1.52524563767643477238029338837076
138,7618.72671050429533524270756040966790,7617.2,1.52671050429533524270756040966790
139,7729.52816478545018650584735798995270,7728.0,1.52816478545018650584735798995270
140,7841.12960863307140289899102750530047,7839.6,1.52960863307140289899102750530047
141,7953.53104219584106467897719944072413,7952.0,1.53104219584106467897719944072413
142,8066.73246561928488166261912032321291,8065.2,1.53246561928488166261912032321291
143,8180.73387904586092472096898397723770,8179.2,1.53387904586092472096898397723770
144,8295.53528261504525967403282184648278,8294.0,1.53528261504525967403282184648278
145,8411.13667646341461394469056004552953,8409.6,1.53667646341461394469056004552953
146,8527.53806072472619846182473291902846,8526.0,1.53806072472619846182473291902846
147,8644.73943552999479909969548744994389,8643.2,1.53943552999479909969548744994389
148,8762.74080100756725298256618479404580,8761.2,1.54080100756725298256618479404580
149,8881.54215728319441145550942101292812,8880.0,1.54215728319441145550942101292812
150,9001.14350448010069336224644651537418,8999.6,1.54350448010069336224644651537418
151,9121.54484271905132454424873461317570,9120.0,1.54484271905132454424873461317570
152,9242.74617211841735386024625214501603,9241.2,1.54617211841735386024625214501603
153,9364.74749279423853467580996997667687,9363.2,1.54749279423853467580996997667687
154,9487.54880486028415572222440615567802,9486.0,1.54880486028415572222440615567802
155,9611.15010842811189956061600109015474,9609.6,1.55010842811189956061600109015474
156,9735.55140360712480651767315938096963,9734.0,1.55140360712480651767315938096963
157,9860.75269050462641513953386295122397,9859.2,1.55269050462641513953386295122397
158,9986.75396922587415098191402579460117,9985.2,1.55396922587415098191402579460117
159,10113.5552398741310274092820162538207,10112.0,1.5552398741310274092820162538207
160,10241.1565025507157247405888761040641,10239.6,1.5565025507157247405888761040641
161,10369.5577573550511062376451210765861,10368.0,1.5577573550511062376451210765861
162,10498.7590043847112303972152902959223,10497.2,1.5590043847112303972152902959223
163,10628.7602437354669144000995881663130,10627.2,1.5602437354669144000995881663130
164,10759.5614755013299033537673065176076,10758.0,1.5614755013299033537673065176076
165,10891.1626997745956939287295038200850,10889.6,1.5626997745956939287295038200850
166,11023.5639166458850629042096933424754,11022.0,1.5639166458850629042096933424754
167,11156.7651262041843478554016798070987,11155.2,1.5651262041843478554016798070987
168,11290.7663285368845226711978147793532,11289.2,1.5663285368845226711978147793532
169,11425.5675237298191129644482971198140,11424.0,1.5675237298191129644482971198140
170,11561.1687118673009911178367582195870,11559.6,1.5687118673009911178367582195870
171,11697.5698930321580911598029290372745,11696.0,1.5698930321580911598029290372745
172,11834.7710673057680813371398836972204,11833.2,1.5710673057680813371398836972204
173,11972.7722347680920297865665459962261,11971.2,1.5722347680920297865665459962261
174,12111.5733954977070991487590409200657,12110.0,1.5733954977070991487590409200657
175,12251.1745495718383041097436669078895,12249.6,1.5745495718383041097436669078895
176,12391.5756970663893615759739987597417,12390.0,1.5756970663893615759739987597417
177,12532.7768380559726667435992500895310,12531.2,1.5768380559726667435992500895310
178,12674.7779726139384242162897371911364,12673.2,1.5779726139384242162897371911364
179,12817.5791008124029606165348634877539,12816.0,1.5791008124029606165348634877539
180,12961.1802227222762496367821098699946,12959.6,1.5802227222762496367821098699946
181,13105.5813384132886721789727522414749,13104.0,1.5813384132886721789727522414749
182,13250.7824479540170392778292101329021,13249.2,1.5824479540170392778292101329021
183,13396.7835514119099008571373649479025,13395.2,1.5835514119099008571373649479025
184,13543.5846488533121645605293761589979,13542.0,1.5846488533121645605293761589979
185,13691.1857403434890464648594805617315,13689.6,1.5857403434890464648594805617315
186,13839.5868259466493746447616320064905,13838.0,1.5868259466493746447616320064905
187,13988.7879057259682693888552118576242,13987.2,1.5879057259682693888552118576242
188,14138.7889797436092155038824249330830,14137.2,1.5889797436092155038824249330830
189,14289.5900480607455504378338723366515,14288.0,1.5900480607455504378338723366515
190,14441.1911107375813838731057165084382,14439.6,1.5911107375813838731057165084382
191,14593.5921678333719680122056871598615,14592.0,1.5921678333719680122056871598615
192,14746.7932194064435349381755198424082,14745.2,1.5932194064435349381755198424082
193,14900.7942655142126193535419307184512,14899.2,1.5942655142126193535419307184512
194,15055.5953062132048800385420917566746,15054.0,1.5953062132048800385420917566746
195,15211.1963415590734379609453324556723,15209.6,1.5963415590734379609453324556723
196,15367.5973716066167447293332077324171,15366.0,1.5973716066167447293332077324171
197,15524.7983964097959957651207463812154,15523.2,1.5983964097959957651207463812154
198,15682.7994160217521023552596077217770,15681.2,1.5994160217521023552596077217770
199,15841.6004304948222354194380281147794,15840.0,1.6004304948222354194380281147794
200,16001.2014398805559549319382101590975,15999.6,1.6014398805559549319382101590975
201,16161.6024442297309359745294358560870,16160.0,1.6024442297309359745294358560870
202,16322.8034435923683047965075770829371,16321.2,1.6034435923683047965075770829371
203,16484.8044380177475955365627804336167,16483.2,1.6044380177475955365627804336167
204,16647.6054275544213392213360792532900,16646.0,1.6054275544213392213360792532900
205,16811.2064122502292950059767188806063,16809.6,1.6064122502292950059767188806063
206,16975.6073921523123366753963108854902,16974.0,1.6073921523123366753963108854902
207,17140.8083673071260002768449841432925,17139.2,1.6083673071260002768449841432925
208,17306.8093377604537071052135490635720,17305.2,1.6093377604537071052135490635720
209,17473.6103035574196677838887464801779,17472.0,1.6103035574196677838887464801779
210,17641.2112647425014789367600663317145,17639.6,1.6112647425014789367600663317145
211,17809.6122213595424198103340188697300,17808.0,1.6122213595424198103340188697300
212,17978.8131734517634590730774525839075,17977.2,1.6131734517634590730774525839075
213,18148.8141210617749761698770888844891,18147.2,1.6141210617749761698770888844891
214,18319.6150642315882122072985486266810,18318.0,1.6150642315882122072985486266810
215,18491.2160030026264495758687182895061,18489.6,1.6160030026264495758687182895061
216,18663.6169374157359342638315077480829,18662.0,1.6169374157359342638315077480829
217,18836.8178675111965448214118175179780,18835.2,1.6178675111965448214118175179780
218,19010.8187933287322169480300471522005,19009.2,1.6187933287322169480300471522005
219,19185.6197149075211269753952644464457,19184.0,1.6197149075211269753952644464457
220,19361.2206322862056467545972283591401,19359.6,1.6206322862056467545972283591401
221,19537.6215455029020678494790476352692,19536.0,1.6215455029020678494790476352692
222,19714.8224545952101122336479637267830,19713.2,1.6224545952101122336479637267830
223,19892.8233596002222230519473553612598,19891.2,1.6233596002222230519473553612598
224,20071.6242605545326505056799041875452,20070.0,1.6242605545326505056799041875452
225,20251.2251574942463354181160025890255,20249.6,1.6251574942463354181160025890255
226,20431.6260504549875940182199755128417,20430.0,1.6260504549875940182199755128417
227,20612.8269394719086125854319206298619,20611.2,1.6269394719086125854319206298619
228,20794.8278245796977537656959188655745,20793.2,1.6278245796977537656959188655745
229,20977.6287058125876817108693453498265,20976.0,1.6287058125876817108693453498265
230,21161.2295832043633107277409070024020,21159.6,1.6295832043633107277409070024020
231,21345.6304567883695792259112502026741,21344.0,1.6304567883695792259112502026741
232,21530.8313265975190593734399565076988,21529.2,1.6313265975190593734399565076988
233,21716.8321926642993974457464700494951,21715.2,1.6321926642993974457464700494951
234,21903.6330550207806010138136642636261,21902.0,1.6330550207806010138136642636261
235,22091.2339136986221661427768232968648,22089.6,1.6339136986221661427768232968648
236,22279.6347687290800542996488501513817,22278.0,1.6347687290800542996488501513817
237,22468.8356201430135225902907648478961,22467.2,1.6356201430135225902907648478961
238,22658.8364679708918090566207035515691,22657.2,1.6364679708918090566207035515691
