Eigenstate,Energy,Kinetic Energy,Potential Energy
1,0.500000051379020969290991539257838141,0.0,0.500000051379020969290991539257838141
2,1.84623127318362485071843456936590495,1.2,0.64623127318362485071843456936590495
3,3.93633859602181671130639101178562891,3.2,0.73633859602181671130639101178562891
4,6.79966733424963538019384200724681874,6.0,0.79966733424963538019384200724681874
5,10.4480501419874183125976250674306892,9.6,0.8480501419874183125976250674306892
6,14.8870715245851951741194596227394859,14.0,0.8870715245851951741194596227394859
7,20.1197287708151941186581950406249627,19.2,0.9197287708151941186581950406249627
8,26.1477946735019064251577256966634002,25.2,0.9477946735019064251577256966634002
9,32.9723977381348600768454205773136861,32.0,0.9723977381348600768454205773136861
10,40.5942982257909155386432867065004865,39.6,0.9942982257909155386432867065004865
11,49.0140317141929253791667018283070155,48.0,1.0140317141929253791667018283070155
12,58.2319893070040024985573471589418132,57.2,1.0319893070040024985573471589418132
13,68.2484651435101356313315834252596964,67.2,1.0484651435101356313315834252596964
14,79.0636859315443525528138559371797512,78.0,1.0636859315443525528138559371797512
15,90.6778300633621046244638924652837783,89.6,1.0778300633621046244638924652837783
16,103.091040420571478689253674055411864,102.0,1.091040420571478689253674055411864
17,116.303433207656114369133873175955894,115.2,1.103433207656114369133873175955894
18,130.315104203046415530070744132742001,129.2,1.115104203046415530070744132742001
19,145.126133282293527993725183741567089,144.0,1.126133282293527993725183741567089
20,160.736587755779376903910229060481283,159.6,1.136587755779376903910229060481283
21,177.146524874881558216952879177149379,176.0,1.146524874881558216952879177149379
22,194.355993743223329698442453496457257,193.2,1.155993743223329698442453496457257
23,212.365036794710434214910502862050275,211.2,1.165036794710434214910502862050275
24,231.173690951041927963070993886142217,230.0,1.173690951041927963070993886142217
25,250.781988538627780446941606063723818,249.6,1.181988538627780446941606063723818
26,271.189958022530692316590953243916354,270.0,1.189958022530692316590953243916354
27,292.397624599576903659548564429297899,291.2,1.197624599576903659548564429297899
28,314.405010681879100880075152052945282,313.2,1.205010681879100880075152052945282
29,337.212136294219721353498623231027602,336.0,1.212136294219721353498623231027602
30,360.819019403093723270133863514437246,359.6,1.219019403093723270133863514437246
31,385.225676191064248051755808235273344,384.0,1.225676191064248051755808235273344
32,410.432121287007051486925229899563543,409.2,1.232121287007051486925229899563543
33,436.438367960510339034218622677953059,435.2,1.238367960510339034218622677953059
34,463.244428286946571202594129277992130,462.0,1.244428286946571202594129277992130
35,490.850313288394169456329614962259232,489.6,1.250313288394169456329614962259232
36,519.256033054554232888603795671021779,518.0,1.256033054554232888603795671021779
37,548.461596847004068927468811654091103,547.2,1.261596847004068927468811654091103
38,578.467013189499843388958973253334962,577.2,1.267013189499843388958973253334962
39,609.272289946543900538652750987178025,608.0,1.272289946543900538652750987178025
40,640.877434392037787306789015393174353,639.6,1.277434392037787306789015393174353
41,673.282453269526826098938680120360376,672.0,1.282453269526826098938680120360376
42,706.487352845288962330492131293071471,705.2,1.287352845288962330492131293071471
43,740.492138955316386413049053542400489,739.2,1.292138955316386413049053542400489
44,775.296817047073072089050490556998024,774.0,1.296817047073072089050490556998024
45,810.901392216777130497854758786430561,809.6,1.301392216777130497854758786430561
46,847.305869242847806848978651572248078,846.0,1.305869242847806848978651572248078
47,884.510252616068457054997918960662077,883.2,1.310252616068457054997918960662077
48,922.514546566945405847361198221127814,921.2,1.314546566945405847361198221127814
49,961.318755090685550261974464694317973,960.0,1.318755090685550261974464694317973
50,1000.92288197017095415176031424741538,999.6,1.32288197017095415176031424741538
51,1041.32693079727512813908409627294671,1040.0,1.32693079727512813908409627294671
52,1082.53090499284237374186025266574258,1081.2,1.33090499284237374186025266574258
53,1124.53480782563819912843536729191471,1123.2,1.33480782563819912843536729191471
54,1167.33864243057563652969573389524612,1166.0,1.33864243057563652969573389524612
55,1210.94241182653020383021668320246520,1209.6,1.34241182653020383021668320246520
56,1255.34611893407689138527236816586736,1254.0,1.34611893407689138527236816586736
57,1300.54976659351859402986437015584858,1299.2,1.34976659351859402986437015584858
58,1346.55335758363082984450698171172557,1345.2,1.35335758363082984450698171172557
59,1393.35689464162830602698550812421941,1392.0,1.35689464162830602698550812421941
60,1440.96038048497352735958324320310525,1439.6,1.36038048497352735958324320310525
61,1489.36381783580880346016244993498718,1488.0,1.36381783580880346016244993498718
62,1538.56720944901931360743271134632054,1537.2,1.36720944901931360743271134632054
63,1588.57055814525400589030120987780074,1587.2,1.37055814525400589030120987780074
64,1639.37386685068485946559014265763861,1638.0,1.37386685068485946559014265763861
65,1690.97713864593745376256578129705537,1689.6,1.37713864593745376256578129705537
66,1743.38037682757676478567514871517817,1742.0,1.38037682757676478567514871517817
67,1796.58358498694042251699449996041067,1795.2,1.38358498694042251699449996041067
68,1850.58676711323520788576030890030131,1849.2,1.38676711323520788576030890030131
69,1905.38992773108023885620997303334115,1904.0,1.38992773108023885620997303334115
70,1960.99307208782434118407469915876127,1959.6,1.39307208782434118407469915876127
71,2017.39620641427281249352059308245004,2016.0,1.39620641427281249352059308245004
72,2074.59933829626869974221279083593158,2073.2,1.39933829626869974221279083593158
73,2132.60247721829415618515163364930579,2131.2,1.40247721829415618515163364930579
74,2191.40563538255618384901288078923273,2190.0,1.40563538255618384901288078923273
75,2251.00882898578596374110697050217255,2249.6,1.40882898578596374110697050217255
76,2311.41208029026520419129269568523817,2310.0,1.41208029026520419129269568523817
77,2372.61542114650827401750578492383308,2371.2,1.41542114650827401750578492383308
78,2434.61889934275346952822991889821342,2433.2,1.41889934275346952822991889821342
79,2497.42259091205950154960427049969173,2496.0,1.42259091205950154960427049969173
80,2561.02662634088199833575707265225342,2559.6,1.42662634088199833575707265225342
81,2625.43125396956292591103844181410500,2624.0,1.43125396956292591103844181410500
82,2690.63702439588784948886209542396710,2689.2,1.43702439588784948886209542396710
83,2756.64551187994096874986459936651568,2755.2,1.44551187994096874986459936651568
84,2823.46443489333912455907245827189132,2822.0,1.46443489333912455907245827189132
