Eigenstate,Energy,Kinetic Energy,Potential Energy
1,0.500000000289853373353252765119938230,0.0,0.500000000289853373353252765119938230
2,1.84623093954314553224486147340897367,1.2,0.64623093954314553224486147340897367
3,3.93633761526275093224818484016477755,3.2,0.73633761526275093224818484016477755
4,6.79966528939069901402740546613842556,6.0,0.79966528939069901402740546613842556
5,10.4480465953390333086527103201172370,9.6,0.8480465953390333086527103201172370
6,14.8870660279020640470209996693577396,14.0,0.8870660279020640470209996693577396
7,20.1197208685368351380588033107668770,19.2,0.9197208685368351380588033107668770
8,26.1477839036305583405272018811840486,25.2,0.9477839036305583405272018811840486
9,32.9723836321958225889375339612743913,32.0,0.9723836321958225889375339612743913
10,40.5942803083855435740026032682786204,39.6,0.9942803083855435740026032682786204
11,49.0140095023440752818250171152007354,48.0,1.0140095023440752818250171152007354
12,58.2319623093788117596993487769020974,57.2,1.0319623093788117596993487769020974
13,68.2484328595580349393366442742233298,67.2,1.0484328595580349393366442742233298
14,79.0636478505672235911298558109756251,78.0,1.0636478505672235911298558109756251
15,90.6777856635233272328375820227778625,89.6,1.0777856635233272328375820227778625
16,103.090989167845267268041834883513651,102.0,1.090989167845267268041834883513651
17,116.303374554715477983086110394621591,115.2,1.103374554715477983086110394621591
18,130.315037588086130771876894988945989,129.2,1.115037588086130771876894988945989
19,145.126058127783128967494884441279677,144.0,1.126058127783128967494884441279677
20,160.736503467140056563671409979213561,159.6,1.136503467140056563671409979213561
21,177.146430839079884361200900721706784,176.0,1.146430839079884361200900721706784
22,194.355889327273716798467853770407698,193.2,1.155889327273716798467853770407698
23,212.364921344077321716193873345925245,211.2,1.164921344077321716193873345925245
24,231.173563787931556496977434624709903,230.0,1.173563787931556496977434624709903
25,250.781848960158297622235400913832203,249.6,1.181848960158297622235400913832203
26,271.189805298768030992070827207920894,270.0,1.189805298768030992070827207920894
27,292.397457971422429889093303152030546,291.2,1.197457971422429889093303152030546
28,314.404829358793396615005151334841462,313.2,1.204829358793396615005151334841462
29,337.211939451765015977446484184399535,336.0,1.211939451765015977446484184399535
30,360.818806180275381214347133855178925,359.6,1.218806180275381214347133855178925
31,385.225445687449314428031665060153823,384.0,1.225445687449314428031665060153823
32,410.431872559595104005830767253289643,409.2,1.231872559595104005830767253289643
33,436.438100020328733691963907073120187,435.2,1.238100020328733691963907073120187
34,463.244140095338531703505991760222507,462.0,1.244140095338531703505991760222507
35,490.850003752963973213237252635860174,489.6,1.250003752963973213237252635860174
36,519.255701024728890640384437703104791,518.0,1.255701024728890640384437703104791
37,548.461241109165261639288688905695542,547.2,1.261241109165261639288688905695542
38,578.466632461633325931014682500952834,577.2,1.266632461633325931014682500952834
39,609.271882872345933471948784337775503,608.0,1.271882872345933471948784337775503
40,640.876999534409205668762178673179279,639.6,1.276999534409205668762178673179279
41,673.281989103374841074511277461448432,672.0,1.281989103374841074511277461448432
42,706.486857749544404398447612886651049,705.2,1.286857749544404398447612886651049
43,740.491611204059451316641623419201641,739.2,1.291611204059451316641623419201641
44,775.296254799643247554580703519221606,774.0,1.296254799643247554580703519221606
45,810.900793506722271143552935334565466,809.6,1.300793506722271143552935334565466
46,847.305231965542550469750969549279010,846.0,1.305231965542550469750969549279010
47,884.509574514802414122468997125283719,883.2,1.309574514802414122468997125283719
48,922.513825217245642183332043255151096,921.2,1.313825217245642183332043255151096
49,961.317987882594346054447749802423249,960.0,1.317987882594346054447749802423249
50,1000.92206608814678120959331423176905,999.6,1.32206608814678120959331423176905
51,1041.32606319731983028997619206302484,1040.0,1.32606319731983028997619206302484
52,1082.52998237637754875172312343261082,1081.2,1.32998237637754875172312343261082
53,1124.53382660955471515363716017002275,1123.2,1.33382660955471515363716017002275
54,1167.33759871275676704224947308147806,1166.0,1.33759871275676704224947308147806
55,1210.94130134599402789863328240277302,1209.6,1.34130134599402789863328240277302
56,1255.34493702468805604128395717191919,1254.0,1.34493702468805604128395717191919
57,1300.54850812997074741421761425765629,1299.2,1.34850812997074741421761425765629
58,1346.55201691808202700312513539441570,1345.2,1.35201691808202700312513539441570
59,1393.35546552895920967511994547288662,1392.0,1.35546552895920967511994547288662
60,1440.95885599410008672990024071279347,1439.6,1.35885599410008672990024071279347
61,1489.36219024377223022262739108114122,1488.0,1.36219024377223022262739108114122
62,1538.56547011363270611369832471044261,1537.2,1.36547011363270611369832471044261
63,1588.56869735081514541156009544397133,1587.2,1.36869735081514541156009544397133
64,1639.37187361953480999478730018346689,1638.0,1.37187361953480999478730018346689
65,1690.97500050625675495966647977969370,1689.6,1.37500050625675495966647977969370
66,1743.37807952446734200047337027609075,1742.0,1.37807952446734200047337027609075
67,1796.58111211908509603830308857925437,1795.2,1.38111211908509603830308857925437
68,1850.58409967054314115350367503821208,1849.2,1.38409967054314115350367503821208
69,1905.38704349857213920603987169991414,1904.0,1.38704349857213920603987169991414
70,1960.98994486570972625984769406337378,1959.6,1.38994486570972625984769406337378
71,2017.39280498055984322351752086170902,2016.0,1.39280498055984322351752086170902
72,2074.59562500082305887726177015928042,2073.2,1.39562500082305887726177015928042
73,2132.59840603611693044972848397437999,2131.2,1.39840603611693044972848397437999
74,2191.40114915060362805967089272541254,2190.0,1.40114915060362805967089272541254
75,2251.00385536544041823638789822303091,2249.6,1.40385536544041823638789822303091
76,2311.40652566106715217609870463811873,2310.0,1.40652566106715217609870463811873
77,2372.60916097934360199300524727036816,2371.2,1.40916097934360199300524727036816
78,2434.61176222554832242562181483688459,2433.2,1.41176222554832242562181483688459
79,2497.41433027024966863896642892294367,2496.0,1.41433027024966863896642892294367
80,2561.01686595105866263757055915572764,2559.6,1.41686595105866263757055915572764
81,2625.41937007427255146279784094419789,2624.0,1.41937007427255146279784094419789
82,2690.62184341641713889741469632316972,2689.2,1.42184341641713889741469632316972
83,2756.62428672569528366657609184392941,2755.2,1.42428672569528366657609184392941
84,2823.42670072334833283268263450574499,2822.0,1.42670072334833283268263450574499
85,2891.02908610493669980540049545767987,2889.6,1.42908610493669980540049545767987
86,2959.43144354154528052275600393011183,2958.0,1.43144354154528052275600393011183
87,3028.63377368091894388842767404880584,3027.2,1.43377368091894388842767404880584
88,3098.63607714853290917263221283979357,3097.2,1.43607714853290917263221283979357
89,3169.43835454860243958185050029975578,3168.0,1.43835454860243958185050029975578
90,3241.04060646503593798592086136025715,3239.6,1.44060646503593798592086136025715
91,3313.44283346233520933898905360556669,3312.0,1.44283346233520933898905360556669
92,3386.64503608644636603327407477180266,3385.2,1.44503608644636603327407477180266
93,3460.64721486556459016956808396915369,3459.2,1.44721486556459016956808396915369
94,3535.44937031089572379966054012740444,3534.0,1.44937031089572379966054012740444
95,3611.05150291737743704186157529107676,3609.6,1.45150291737743704186157529107676
96,3687.45361316436252214869478843409417,3686.0,1.45361316436252214869478843409417
97,3764.65570151626667726373521597155110,3763.2,1.45570151626667726373521597155110
98,3842.65776842318297073028340073152317,3841.2,1.45776842318297073028340073152317
99,3921.45981432146502334239596058901837,3920.0,1.45981432146502334239596058901837
100,4001.06183963428079958838607882073147,3999.6,1.46183963428079958838607882073147
101,4081.46384477213876963277153895456984,4080.0,1.46384477213876963277153895456984
102,4162.66583013338807820793889294352810,4161.2,1.46583013338807820793889294352810
103,4244.66779610469424867319500814720588,4243.2,1.46779610469424867319500814720588
104,4327.46974306149184323418509130684425,4326.0,1.46974306149184323418509130684425
105,4411.07167136841540724191053545512547,4409.6,1.47167136841540724191053545512547
106,4495.47358137970993472635651076598334,4494.0,1.47358137970993472635651076598334
107,4580.67547343962201423779880782016204,4579.2,1.47547343962201423779880782016204
108,4666.67734788277273482932178092821254,4665.2,1.47734788277273482932178092821254
109,4753.47920503451336342056373329927846,4752.0,1.47920503451336342056373329927846
110,4841.08104521126474236259744979358073,4839.6,1.48104521126474236259744979358073
111,4929.48286872084129016267456394775415,4928.0,1.48286872084129016267456394775415
112,5018.68467586276043889394734673091671,5017.2,1.48467586276043889394734673091671
113,5108.68646692853828627950578728402629,5107.2,1.48646692853828627950578728402629
114,5199.48824220197219168233227772699804,5198.0,1.48824220197219168233227772699804
115,5291.09000195941100478429336304731921,5289.6,1.49000195941100478429336304731921
116,5383.49174647001356740565990885685065,5382.0,1.49174647001356740565990885685065
117,5476.69347599599609720366156508704999,5475.2,1.49347599599609720366156508704999
118,5570.69519079286902095749806603032716,5569.2,1.49519079286902095749806603032716
119,5665.49689110966379143353485202238816,5664.0,1.49689110966379143353485202238816
120,5761.09857718915019598219773496182587,5759.6,1.49857718915019598219773496182587
121,5857.50024926804462675086246313794378,5856.0,1.50024926804462675086246313794378
122,5954.70190757720976348392324620984973,5953.2,1.50190757720976348392324620984973
123,6052.70355234184608768831860998078084,6051.2,1.50355234184608768831860998078084
124,6151.50518378167562926300699977984832,6150.0,1.50518378167562926300699977984832
125,6251.10680211111831712465058947088540,6249.6,1.50680211111831712465058947088540
126,6351.50840753946129016449061654951322,6350.0,1.50840753946129016449061654951322
127,6452.71000027102150429353945963958630,6451.2,1.51000027102150429353945963958630
128,6554.71158050530194874605291098639254,6553.2,1.51158050530194874605291098639254
129,6657.51314843714177273803517012575476,6656.0,1.51314843714177273803517012575476
130,6761.11470425686060519569017200289749,6759.6,1.51470425686060519569017200289749
131,6865.51624815039733486464556009307197,6864.0,1.51624815039733486464556009307197
132,6970.71778029944360313360600508802031,6969.2,1.51778029944360313360600508802031
133,7076.71930088157225012453426360877331,7075.2,1.51930088157225012453426360877331
134,7183.52081007036094332553982709395374,7182.0,1.52081007036094332553982709395374
135,7291.12230803551119993433751948809258,7289.6,1.52230803551119993433751948809258
136,7399.52379494296301039264501175901024,7398.0,1.52379494296301039264501175901024
137,7508.72527095500525728397969759405723,7507.2,1.52527095500525728397969759405723
138,7618.72673623038211015535664357329636,7617.2,1.52673623038211015535664357329636
139,7729.52819092439557471752330669063788,7728.0,1.52819092439557471752330669063788
140,7841.12963518900435943243381358805884,7839.6,1.52963518900435943243381358805884
141,7953.53106917291921793921202079007798,7952.0,1.53106917291921793921202079007798
142,8066.73249302169491769662781001284417,8065.2,1.53249302169491769662781001284417
143,8180.73390687781897656997884124833650,8179.2,1.53390687781897656997884124833650
144,8295.53531088079730191067589740506541,8294.0,1.53531088079730191067589740506541
145,8411.13670516723686248910983420077353,8409.6,1.53670516723686248910983420077353
146,8527.53808987092551577267548226812432,8526.0,1.53808987092551577267548226812432
147,8644.73946512290910483790103527273441,8643.2,1.53946512290910483790103527273441
148,8762.74083105156594024764470827297789,8761.2,1.54083105156594024764470827297789
149,8881.54218778267876869629711609682061,8880.0,1.54218778267876869629711609682061
150,9001.14353543950433206588963362698528,8999.6,1.54353543950433206588963362698528
151,9121.54487414284061280944538509271081,9120.0,1.54487414284061280944538509271081
152,9242.74620401109185596286451279350588,9241.2,1.54620401109185596286451279350588
153,9364.74752516033145673721888427505282,9363.2,1.54752516033145673721888427505282
154,9487.54883770436279759292675689194158,9486.0,1.54883770436279759292675689194158
155,9611.15014175477811303408623280959686,9609.6,1.55014175477811303408623280959686
156,9735.55143742101545999167121056983585,9734.0,1.55143742101545999167121056983585
157,9860.75272481041386484458999889706174,9859.2,1.55272481041386484458999889706174
158,9986.75400402826671889916562662050375,9985.2,1.55400402826671889916562662050375
159,10113.5552751778734860023859407060116,10112.0,1.5552751778734860023859407060116
160,10241.1565383605897886290441511837137,10239.6,1.5565383605897886290441511837137
161,10369.5577936758759309415293603129280,10368.0,1.5577936758759309415293603129280
162,10498.7590412213439182860771815626685,10497.2,1.5590412213439182860771815626685
163,10628.7602810928030279815535070045719,10627.2,1.5602810928030279815535070045719
164,10759.5615133843039860402132008729665,10758.0,1.5615133843039860402132008729665
165,10891.1627381881817984235656415131030,10889.6,1.5627381881817984235656415131030
166,11023.5639555950972873519254499416295,11022.0,1.5639555950972873519254499416295
167,11156.7651656940773799030333055125500,11155.2,1.5651656940773799030333055125500
168,11290.7663685725541915918037002285853,11289.2,1.5663685725541915918037002285853
169,11425.5675643164029499965104898081388,11424.0,1.5675643164029499965104898081388
170,11561.1687530099787981778339672823266,11559.6,1.5687530099787981778339672823266
171,11697.5699347361525180886156152725156,11696.0,1.5699347361525180886156152725156
172,11834.7711095763452118444564963317864,11833.2,1.5711095763452118444564963317864
173,11972.7722776105619762610540787675193,11971.2,1.5722776105619762610540787675193
174,12111.5734389174246065054489420277185,12110.0,1.5734389174246065054489420277185
175,12251.1745935742033628498653698431419,12249.6,1.5745935742033628498653698431419
176,12391.5757416568478302383469471440250,12390.0,1.5757416568478302383469471440250
177,12532.7768832400169039306739064422629,12531.2,1.5768832400169039306739064422629
178,12674.7780183971079303820086684239438,12673.2,1.5780183971079303820086684239438
179,12817.5791472002850298073734580865736,12816.0,1.5791472002850298073734580865736
180,12961.1802697205066313816258474610021,12959.6,1.5802697205066313816258474610021
181,13105.5813860275522437278948200248401,13104.0,1.5813860275522437278948200248401
182,13250.7824961900484883943580838366823,13249.2,1.5824961900484883943580838366823
183,13396.7836002754944193732476868786535,13395.2,1.5836002754944193732476868786535
184,13543.5846983502861529083534171258302,13542.0,1.5846983502861529083534171258302
185,13691.1857904797408294040120623459016,13689.6,1.5857904797408294040120623459016
186,13839.5868767281199284091864161066439,13838.0,1.5868767281199284091864161066439
187,13988.7879571586519604822627305524078,13987.2,1.5879571586519604822627305524078
188,14138.7890318335545513781392472175419,14137.2,1.5890318335545513781392472175419
189,14289.5901008140559422940985177984160,14288.0,1.5901008140559422940985177984160
190,14441.1911641604159218310876206343976,14439.6,1.5911641604159218310876206343976
191,14593.5922219319462088986555259578746,14592.0,1.5922219319462088986555259578746
192,14746.7932741870303029516031625757721,14745.2,1.5932741870303029516031625757721
193,14900.7943209831428198682033547229233,14899.2,1.5943209831428198682033547229233
194,15055.5953623768683268169498771174033,15054.0,1.5953623768683268169498771174033
195,15211.1963984239196940505385592186811,15209.6,1.5963984239196940505385592186811
196,15367.5974291791559773254991149557882,15366.0,1.5974291791559773254991149557882
197,15524.7984546965998453294993347442955,15523.2,1.5984546965998453294993347442955
198,15682.7994750294545662851831292912161,15681.2,1.5994750294545662851831292912161
199,15841.6004902301205665714775714434492,15840.0,1.6004902301205665714775714434492
200,16001.2015003502115753098394403065344,15999.6,1.6015003502115753098394403065344
201,16161.6025054405703658993375472668223,16160.0,1.6025054405703658993375472668223
202,16322.8035055512841078844157032213026,16321.2,1.6035055512841078844157032213026
203,16484.8045007316993398179566483377532,16483.2,1.6045007316993398179566483377532
204,16647.6054910304365747426841788211840,16646.0,1.6054910304365747426841788211840
205,16811.2064764954045482646137990889803,16809.6,1.6064764954045482646137990889803
206,16975.6074571738141222458910209195321,16974.0,1.6074571738141222458910209195321
207,17140.8084331121918499965288326476938,17139.2,1.6084331121918499965288326476938
208,17306.8094043563932171955906227603676,17305.2,1.6094043563932171955906227603676
209,17473.6103709516155642940508502333939,17472.0,1.6103709516155642940508502333939
210,17641.2113329424107019046074845466984,17639.6,1.6113329424107019046074845466984
211,17809.6122903726972265473578617823678,17808.0,1.6122903726972265473578617823678
212,17978.8132432857725469887062507582054,17977.2,1.6132432857725469887062507582054
213,18148.8141917243246255619347460531661,18147.2,1.6141917243246255619347460531661
214,18319.6151357304434494559727764814887,18318.0,1.6151357304434494559727764814887
215,18491.2160753456322311897625764182344,18489.6,1.6160753456322311897625764182344
216,18663.6170106108183522381719389840627,18662.0,1.6170106108183522381719389840627
217,18836.8179415663640537803302976839171,18835.2,1.6179415663640537803302976839171
218,19010.8188682520768835550260284147528,19009.2,1.6188682520768835550260284147528
219,19185.6197907072199021086510183323146,19184.0,1.6197907072199021086510183323146
220,19361.2207089705216609567463193700089,19359.6,1.6207089705216609567463193700089
221,19537.6216230801859505747552954013416,19536.0,1.6216230801859505747552954013416
222,19714.8225330739013354290625100272855,19713.2,1.6225330739013354290625100272855
223,19892.8234389888504696232874363247371,19891.2,1.6234389888504696232874363247371
224,20071.6243408617192082336912618327694,20070.0,1.6243408617192082336912618327694
225,20251.2252387287055169052489931498039,20249.6,1.6252387287055169052489931498039
226,20431.6261326255281832617939528633175,20430.0,1.6261326255281832617939528633175
227,20612.8270225874353387890236076651875,20611.2,1.6270225874353387890236076651875
228,20794.8279086492127930170050897834856,20793.2,1.6279086492127930170050897834856
229,20977.6287908451921871712713336031228,20976.0,1.6287908451921871712713336031228
230,21161.2296692092589719962177019518851,21159.6,1.6296692092589719962177019518851
231,21345.6305437748602115580827077576980,21344.0,1.6305437748602115580827077576980
232,21530.8314145750122234550145495718765,21529.2,1.6314145750122234550145495718765
233,21716.8322816423080504388922213010271,21715.2,1.6322816423080504388922213010271
234,21903.6331450089247796147410552324259,21902.0,1.6331450089247796147410552324259
235,22091.2340047066307024092423398908349,22089.6,1.6340047066307024092423398908349
236,22279.6348607667923250281572258352587,22278.0,1.6348607667923250281572258352587
237,22468.8357132203812330445243285933303,22467.2,1.6357132203812330445243285933303
238,22658.8365620979808118710629157888952,22657.2,1.6365620979808118710629157888952
