Eigenstate,Energy,Kinetic Energy,Potential Energy
1,0.500000000245407937854867779935628566,0.0,0.500000000245407937854867779935628566
2,1.84623093925302346943734695580823477,1.2,0.64623093925302346943734695580823477
3,3.93633761441051605262658081206745637,3.2,0.73633761441051605262658081206745637
4,6.79966528761552049827615573712546380,6.0,0.79966528761552049827615573712546380
5,10.4480465922639050714612127389061387,9.6,0.8480465922639050714612127389061387
6,14.8870660231432831584816222015633255,14.0,0.8870660231432831584816222015633255
7,20.1197208617074783522877821522303656,19.2,0.9197208617074783522877821522303656
8,26.1477838943419173151540774674299615,25.2,0.9477838943419173151540774674299615
9,32.9723836200580578041386008515050207,32.0,0.9723836200580578041386008515050207
10,40.5942802930080038096725466119164482,39.6,0.9942802930080038096725466119164482
11,49.0140094833354596278969764863234725,48.0,1.0140094833354596278969764863234725
12,58.2319622863472513564389538037232320,57.2,1.0319622863472513564389538037232320
13,68.2484328321111309905245349937037928,67.2,1.0484328321111309905245349937037928
14,79.0636478183120601839056807939825218,78.0,1.0636478183120601839056807939825218
15,90.6777856260664689300784608388274122,89.6,1.0777856260664689300784608388274122
16,103.090989124792747106347665959232156,102.0,1.090989124792747106347665959232156
17,116.303374505672779200078678973280513,115.2,1.103374505672779200078678973280513
18,130.315037532658164298201520782542460,129.2,1.115037532658164298201520782542460
19,145.126058065574207970972003093028470,144.0,1.126058065574207970972003093028470
20,160.736503397753868883311289140378795,159.6,1.136503397753868883311289140378795
21,177.146430762119463389825713311041069,176.0,1.146430762119463389825713311041069
22,194.355889242341411194772784123413989,193.2,1.155889242341411194772784123413989
23,212.364921250774764210755527385520685,211.2,1.164921250774764210755527385520685
24,231.173563685859631978936430129705997,230.0,1.173563685859631978936430129705997
25,250.781848848917110640301070937167403,249.6,1.181848848917110640301070937167403
26,271.189805177956872766596809552554944,270.0,1.189805177956872766596809552554944
27,292.397457840639744905882496684816967,291.2,1.197457840639744905882496684816967
28,314.404829217636748852764864120115990,313.2,1.204829217636748852764864120115990
29,337.211939299831054807162060100719987,336.0,1.211939299831054807162060100719987
30,360.818806017159806998760876564100216,359.6,1.218806017159806998760876564100216
31,385.225445512746843841875567745856011,384.0,1.225445512746843841875567745856011
32,410.431872372899435091758486638920825,409.2,1.231872372899435091758486638920825
33,436.438099821232510662764162477486507,435.2,1.238099821232510662764162477486507
34,463.244139883433309497806379674966502,462.0,1.244139883433309497806379674966502
35,490.850003527840181809272524669486812,489.6,1.250003527840181809272524669486812
36,519.255700785975799130324959918013309,518.0,1.255700785975799130324959918013309
37,548.461240856370942064969468862703273,547.2,1.261240856370942064969468862703273
38,578.466632194384616880574573596619901,577.2,1.266632194384616880574573596619901
39,609.271882590228403435809206946505544,608.0,1.271882590228403435809206946505544
40,640.876999237007116152489338025568574,639.6,1.276999237007116152489338025568574
41,673.281988790271109465373719827757696,672.0,1.281988790271109465373719827757696
42,706.486857420320566581868846167105916,705.2,1.286857420320566581868846167105916
43,740.491610858295624038231084862303331,739.2,1.291610858295624038231084862303331
44,775.296254436918090522985949877623465,774.0,1.296254436918090522985949877623465
45,810.900793126612948868996389817244894,809.6,1.300793126612948868996389817244894
46,847.305231567624693832783705157903037,846.0,1.305231567624693832783705157903037
47,884.509574098650081667182804602482305,883.2,1.309574098650081667182804602482305
48,922.513824782431281129011432205589911,921.2,1.313824782431281129011432205589911
49,961.317987428688753019409730611196768,960.0,1.317987428688753019409730611196768
50,1000.92206561471906264074983399530240,999.6,1.32206561471906264074983399530240
51,1041.32606270393736259145786419926122,1040.0,1.32606270393736259145786419926122
52,1082.52998186260593810572046852304084,1081.2,1.32998186260593810572046852304084
53,1124.53382607495775702644395897829839,1123.2,1.33382607495775702644395897829839
54,1167.33759815689640536832997041403928,1166.0,1.33759815689640536832997041403928
55,1210.94130076843031393537932267242405,1209.6,1.34130076843031393537932267242405
56,1255.34493642497910688697751614944180,1254.0,1.34493642497910688697751614944180
57,1300.54850750767270418156820321223878,1299.2,1.34850750767270418156820321223878
58,1346.55201627274901264060832575689381,1345.2,1.35201627274901264060832575689381
59,1393.35546486014328642820252424532770,1392.0,1.35546486014328642820252424532770
60,1440.95885530135121323409825317211743,1439.6,1.35885530135121323409825317211743
61,1489.36218952663821822020457407080634,1488.0,1.36218952663821822020457407080634
62,1538.56546937165917678567423186182584,1537.2,1.36546937165917678567423186182584
63,1588.56869658354548531655906139907973,1587.2,1.36869658354548531655906139907973
64,1639.37187282651012660611986432815402,1638.0,1.37187282651012660611986432815402
65,1690.97499968701583179189495325505857,1689.6,1.37499968701583179189495325505857
66,1743.37807867854659331657156001177442,1742.0,1.37807867854659331657156001177442
67,1796.58111124601852112837757317103475,1795.2,1.38111124601852112837757317103475
68,1850.58409876986227817589860588665127,1849.2,1.38409876986227817589860588665127
69,1905.38704256980601858150024632789762,1904.0,1.38704256980601858150024632789762
70,1960.98994390838482360926696844681129,1959.6,1.38994390838482360926696844681129
71,2017.39280399420003183964301384490564,2016.0,1.39280399420003183964301384490564
72,2074.59562398494956172057693720428162,2073.2,1.39562398494956172057693720428162
73,2132.59840499024827165857365555003654,2131.2,1.39840499024827165857365555003654
74,2191.40114807425558396450331398153249,2190.0,1.40114807425558396450331398153249
75,2251.00385425812596786791830241860868,2249.6,1.40385425812596786791830241860868
76,2311.40652452229642725687442378252603,2310.0,1.40652452229642725687442378252603
77,2372.60915980862383640183973673197365,2371.2,1.40915980862383640183973673197365
78,2434.61176102238380112409573670201384,2433.2,1.41176102238380112409573670201384
79,2497.41432903414167604904801403485646,2496.0,1.41432903414167604904801403485646
80,2561.01686468150543045922126749819263,2559.6,1.41686468150543045922126749819263
81,2625.41936877076920592024346741265576,2624.0,1.41936877076920592024346741265576
82,2690.62184207845564740257220548149991,2689.2,1.42184207845564740257220548149991
83,2756.62428535276440088793281892830158,2755.2,1.42428535276440088793281892830158
84,2823.42669931493354615772584666476129,2822.0,1.42669931493354615772584666476129
85,2891.02908466052017418449256432152003,2889.6,1.42908466052017418449256432152003
86,2959.43144206060580268214307060972193,2958.0,1.43144206060580268214307060972193
87,3028.63377216293186589985756569047168,3027.2,1.43377216293186589985756569047168
88,3098.63607559297009136684025786551167,3097.2,1.43607559297009136684025786551167
89,3169.43835295493219279295009296700536,3168.0,1.43835295493219279295009296700536
90,3241.04060483272296511350876288533824,3239.6,1.44060483272296511350876288533824
91,3313.44283179084054621454265181707934,3312.0,1.44283179084054621454265181707934
92,3386.64503437522732157718078489297922,3385.2,1.44503437522732157718078489297922
93,3460.64721311407468582488349611958837,3459.2,1.44721311407468582488349611958837
94,3535.44936851858463222844351867708144,3534.0,1.44936851858463222844351867708144
95,3611.05150108369092006967970239107054,3609.6,1.45150108369092006967970239107054
96,3687.45361128874236794263343888105768,3686.0,1.45361128874236794263343888105768
97,3764.65569959815063672897644644268770,3763.2,1.45569959815063672897644644268770
98,3842.65776646200469311004900974789356,3841.2,1.45776646200469311004900974789356
99,3921.45981231665399100576901549674812,3920.0,1.45981231665399100576901549674812
100,4001.06183758526226199024015511294314,3999.6,1.46183758526226199024015511294314
101,4081.46384267833367642974445851627418,4080.0,1.46384267833367642974445851627418
102,4162.66582799421301151408840076754575,4161.2,1.46582799421301151408840076754575
103,4244.66779391956135443866812966957721,4243.2,1.46779391956135443866812966957721
104,4327.46974082980876172991832783357340,4326.0,1.46974082980876172991832783357340
105,4411.07166908958520263305872981907004,4409.6,1.47166908958520263305872981907004
106,4495.47357905313102371681865774858433,4494.0,1.47357905313102371681865774858433
107,4580.67547106468809376787337218205956,4579.2,1.47547106468809376787337218205956
108,4666.67734545887270880817998331813727,4665.2,1.47734545887270880817998331813727
109,4753.47920256103126847487703954474917,4752.0,1.47920256103126847487703954474917
110,4841.08104268757967258229453898993752,4839.6,1.48104268757967258229453898993752
111,4929.48286614632732082443424837050541,4928.0,1.48286614632732082443424837050541
112,5018.68467323678654914265553832508707,5017.2,1.48467323678654914265553832508707
113,5108.68646425046828074751792007448939,5107.2,1.48646425046828074751792007448939
114,5199.48823947116462102598604757616069,5198.0,1.48823947116462102598604757616069
115,5291.08999917521908511671086925142586,5289.6,1.48999917521908511671086925142586
116,5383.49174363178509860446324926439787,5382.0,1.49174363178509860446324926439787
117,5476.69347310307338007179965833846585,5475.2,1.49347310307338007179965833846585
118,5570.69518784458877321494785186127229,5569.2,1.49518784458877321494785186127229
119,5665.49688810535706251719230770071784,5664.0,1.49688810535706251719230770071784
120,5761.09857412814228063081912022790415,5759.6,1.49857412814228063081912022790415
121,5857.50024614965497735144645050706810,5856.0,1.50024614965497735144645050706810
122,5954.70190440075190115544577895001542,5953.2,1.50190440075190115544577895001542
123,6052.70354910662751207824157403979247,6051.2,1.50354910662751207824157403979247
124,6151.50518048699772703147915326906864,6150.0,1.50518048699772703147915326906864
125,6251.10679875627626909080283574465839,6249.6,1.50679875627626909080283574465839
126,6351.50840412374397708870051103998700,6350.0,1.50840412374397708870051103998700
127,6452.70999679371141126899968974493241,6451.2,1.50999679371141126899968974493241
128,6554.71157696567506817242351001706944,6553.2,1.51157696567506817242351001706944
129,6657.51314483446750584939212714341404,6656.0,1.51314483446750584939212714341404
130,6761.11470059040166211440127523064224,6759.6,1.51470059040166211440127523064224
131,6865.51624441940963315220888366676858,6864.0,1.51624441940963315220888366676858
132,6970.71777650317616480887464794387592,6969.2,1.51777650317616480887464794387592
133,7076.71929701926709711912672889939350,7075.2,1.51929701926709711912672889939350
134,7183.52080614125299134559225880214266,7182.0,1.52080614125299134559225880214266
135,7291.12230403882815069709787893639718,7289.6,1.52230403882815069709787893639718
136,7399.52379087792524220573500392946132,7398.0,1.52379087792524220573500392946132
137,7508.72526682082571393445983559933540,7507.2,1.52526682082571393445983559933540
138,7618.72673202626618807502166891435988,7617.2,1.52673202626618807502166891435988
139,7729.52818664954100839012914224321988,7728.0,1.52818664954100839012914224321988
140,7841.12963084260110500781411880100788,7839.6,1.52963084260110500781411880100788
141,7953.53106475414933501847800592139131,7952.0,1.53106475414933501847800592139131
142,8066.73248852973244925186449933281995,8065.2,1.53248852973244925186449933281995
143,8180.73390231182982696104751565460683,8179.2,1.53390231182982696104751565460683
144,8295.53530623993911296091067619853648,8294.0,1.53530623993911296091067619853648
145,8411.13670045065888758085305200643533,8409.6,1.53670045065888758085305200643533
146,8527.53808507776849192273063619791072,8526.0,1.53808507776849192273063619791072
147,8644.73946025230512271209541044358348,8643.2,1.53946025230512271209541044358348
148,8762.74082610263831207278461484671142,8761.2,1.54082610263831207278461484671142
149,8881.54218275454189402686251854720468,8880.0,1.54218275454189402686251854720468
150,9001.14353033126356136186092861219207,8999.6,1.54353033126356136186092861219207
151,9121.54486895359210878066889461283419,9120.0,1.54486895359210878066889461283419
152,9242.74619873992245263435842462456492,9241.2,1.54619873992245263435842462456492
153,9364.74751980631851618878497913276762,9363.2,1.54751980631851618878497913276762
154,9487.54883226657406432537263533820567,9486.0,1.54883226657406432537263533820567
155,9611.15013623227156591327382713711581,9609.6,1.55013623227156591327382713711581
156,9735.55143181283916172048959066351802,9734.0,1.55143181283916172048959066351802
157,9860.75271911560580891180274605121443,9859.2,1.55271911560580891180274605121443
158,9986.75399824585467395290608115245009,9985.2,1.55399824585467395290608115245009
159,10113.5552693068748375948653159742692,10112.0,1.5552693068748375948653159742692
160,10241.1565324000113782777949246673662,10239.6,1.5565324000113782777949246673662
161,10369.5577876247138924512347773516739,10368.0,1.5577876247138924512347773516739
162,10498.7590350785835112737281294418738,10497.2,1.5590350785835112737281294418738
163,10628.7602748574184685463319338914483,10627.2,1.5602748574184685463319338914483
164,10759.5615070552582745181209639404357,10758.0,1.5615070552582745181209639404357
165,10891.1627317644265441654033494307460,10889.6,1.5627317644265441654033494307460
166,11023.5639490755725304617694738807574,11022.0,1.5639490755725304617694738807574
167,11156.7651590777114098728658043797877,11155.2,1.5651590777114098728658043797877
168,11290.7663618582633627664165011466927,11289.2,1.5663618582633627664165011466927
169,11425.5675575030914938012265363821088,11424.0,1.5675575030914938012265363821088
170,11561.1687460965386320399695105131721,11559.6,1.5687460965386320399695105131721
171,11697.5699277214630509819448425254427,11696.0,1.5699277214630509819448425254427
172,11834.7711024592731463842278860522261,11833.2,1.5711024592731463842278860522261
173,11972.7722703899611072753519140920369,11971.2,1.5722703899611072753519140920369
174,12111.5734315921356160068879214489784,12110.0,1.5734315921356160068879214489784
175,12251.1745861430536113297490921347441,12249.6,1.5745861430536113297490921347441
176,12391.5757341186511442035157471085492,12390.0,1.5757341186511442035157471085492
177,12532.7768755935733596013038168881445,12531.2,1.5768755935733596013038168881445
178,12674.7780106412036334666097869209036,12673.2,1.5780106412036334666097869209036
179,12817.5791393336918912691620702919179,12816.0,1.5791393336918912691620702919179
180,12961.1802617419821391083142996677409,12959.6,1.5802617419821391083142996677409
181,13105.5813779358392300147516631301399,13104.0,1.5813779358392300147516631301399
182,13250.7824879838748931481375239465817,13249.2,1.5824879838748931481375239465817
183,13396.7835919535730489422687823405911,13395.2,1.5835919535730489422687823405911
184,13543.5846899113144344416276457463505,13542.0,1.5846899113144344416276457463505
185,13691.1857819224005606398626067005788,13689.6,1.5857819224005606398626067005788
186,13839.5868680510770227912826872628716,13838.0,1.5868680510770227912826872628716
187,13988.7879483605561874983965523091396,13987.2,1.5879483605561874983965523091396
188,14138.7890229130392720143980896356915,14137.2,1.5890229130392720143980896356915
189,14289.5900917697378394943437002518478,14288.0,1.5900917697378394943437002518478
190,14441.1911549908947258488169510208146,14439.6,1.5911549908947258488169510208146
191,14593.5922126358044174254195538270501,14592.0,1.5922126358044174254195538270501
192,14746.7932647628328959031451359129344,14745.2,1.5932647628328959031451359129344
193,14900.7943114294369687064124207692464,14899.2,1.5943114294369687064124207692464
194,15055.5953526921830982825387102540002,15054.0,1.5953526921830982825387102540002
195,15211.1963886067657481780873922890128,15209.6,1.5963886067657481780873922890128
196,15367.5974192280252596091423029394145,15366.0,1.5974192280252596091423029394145
197,15524.7984446099652729040623033795711,15523.2,1.5984446099652729040623033795711
198,15682.7994648057697079840074734304705,15681.2,1.5994648057697079840074734304705
199,15841.6004798678193167184927762731761,15840.0,1.6004798678193167184927762731761
200,16001.2014898477078210996519929499123,15999.6,1.6014898477078210996519929499123
201,16161.6024947962576482152038507889191,16160.0,1.6024947962576482152038507889191
202,16322.8034947635352753999428167339109,16321.2,1.6034947635352753999428167339109
203,16484.8044897988661962242314185183599,16483.2,1.6044897988661962242314185183599
204,16647.6054799508495189382604190448983,16646.0,1.6054799508495189382604190448983
205,16811.2064652673722073413835278976507,16809.6,1.6064652673722073413835278976507
206,16975.6074457956229770993307083456726,16974.0,1.6074457956229770993307083456726
207,17140.8084215821058533841323777330587,17139.2,1.6084215821058533841323777330587
208,17306.8093926726534040624791542879991,17305.2,1.6093926726534040624791542879991
209,17473.6103591124396541797774093310783,17472.0,1.6103591124396541797774093310783
210,17641.2113209459926932400466367484366,17639.6,1.6113209459926932400466367484366
211,17809.6122782172069826452829175075570,17808.0,1.6122782172069826452829175075570
212,17978.8132309693553735262019693677846,17977.2,1.6132309693553735262019693677846
213,18148.8141792451008393471679213479727,18147.2,1.6141792451008393471679213479727
214,18319.6151230865079382660381183182526,18318.0,1.6151230865079382660381183182526
215,18491.2160625350540044603330795599417,18489.6,1.6160625350540044603330795599417
216,18663.6169976316400823795033812119667,18662.0,1.6169976316400823795033812119667
217,18836.8179284166016078877921064801754,18835.2,1.6179284166016078877921064801754
218,19010.8188549297188452757472932347819,19009.2,1.6188549297188452757472932347819
219,19185.6197772102270834190787976903634,19184.0,1.6197772102270834190787976903634
220,19361.2206952968266035988955922819193,19359.6,1.6206952968266035988955922819193
221,19537.6216092276924168916885423631350,19536.0,1.6216092276924168916885423631350
222,19714.8225190404837883326633265258064,19713.2,1.6225190404837883326633265258064
223,19892.8234247723535414196623992425513,19891.2,1.6234247723535414196623992425513
224,20071.6243264599571580235622321261160,20070.0,1.6243264599571580235622321261160
225,20251.2252241394616762684556249209331,20249.6,1.6252241394616762684556249209331
226,20431.6261178465543899265152401399063,20430.0,1.6261178465543899265152401399063
227,20612.8270076164513579775323339441810,20611.2,1.6270076164513579775323339441810
228,20794.8278934839057261506805166745397,20793.2,1.6278934839057261506805166745397
229,20977.6287754832158676081999379164559,20976.0,1.6287754832158676081999379164559
230,21161.2296536482333474650049508172151,21159.6,1.6296536482333474650049508172151
231,21345.6305280123707129414620243522460,21344.0,1.6305280123707129414620243522460
232,21530.8313986086091195664645929377536,21529.2,1.6313986086091195664645929377536
233,21716.8322654695057884247417229456265,21715.2,1.6322654695057884247417229456265
234,21903.6331286272013106031457543536609,21902.0,1.6331286272013106031457543536609
235,22091.2339881134267920159455111892553,22089.6,1.6339881134267920159455111892553
236,22279.6348439595108483170693736469803,22278.0,1.6348439595108483170693736469803
237,22468.8356961963864535288785661167076,22467.2,1.6356961963864535288785661167076
238,22658.8365448545976441281977072322411,22657.2,1.6365448545976441281977072322411
