Eigenstate,Energy,Kinetic Energy,Potential Energy
1,0.500000000014336213650454494329272784,0.0,0.500000000014336213650454494329272784
2,1.84623093774469393268373876494473915,1.2,0.64623093774469393268373876494473915
3,3.93633760997985707260276427535862082,3.2,0.73633760997985707260276427535862082
4,6.79966527838678490482709993125368119,6.0,0.79966527838678490482709993125368119
5,10.4480465762774517095263029750090707,9.6,0.8480465762774517095263029750090707
6,14.8870659984049245073368445147444570,14.0,0.8870659984049245073368445147444570
7,20.1197208262066244277133735449514415,19.2,0.9197208262066244277133735449514415
8,26.1477838460591069334555120166254228,25.2,0.9477838460591069334555120166254228
9,32.9723835569684279998029325615552565,32.0,0.9723835569684279998029325615552565
10,40.5942802130830206330323001011209651,39.6,0.9942802130830206330323001011209651
11,49.0140093845438304268337342520037154,48.0,1.0140093845438304268337342520037154
12,58.2319621666554199013139450135842284,57.2,1.0319621666554199013139450135842284
13,68.2484326894835454432118061133964610,67.2,1.0484326894835454432118061133964610
14,79.0636476507113102832238180460434491,78.0,1.0636476507113102832238180460434491
15,90.6777854314533442220672007110064067,89.6,1.0777854314533442220672007110064067
16,103.090988901126245522083133615402953,102.0,1.090988901126245522083133615402953
17,116.303374250910083277688768923871676,115.2,1.103374250910083277688768923871676
18,130.315037244754595648057870599178380,129.2,1.115037244754595648057870599178380
19,145.126057742483166694719513881323407,144.0,1.126057742483166694719513881323407
20,160.736503037426762319426893752290618,159.6,1.136503037426762319426893752290618
21,177.146430362505627108216468923239311,176.0,1.146430362505627108216468923239311
22,194.355888801388024238121084490548112,193.2,1.155888801388024238121084490548112
23,212.364920766426759975711358403788643,211.2,1.164920766426759975711358403788643
24,231.173563156059605726024465596101859,230.0,1.173563156059605726024465596101859
25,250.781848271605224345605306520670164,249.6,1.181848271605224345605306520670164
26,271.189804551070757836599580780619941,270.0,1.189804551070757836599580780619941
27,292.397457162114403141346278700913691,291.2,1.197457162114403141346278700913691
28,314.404828485404451950286218602768671,313.2,1.204828485404451950286218602768671
29,337.211938511821242616209696454325522,336.0,1.211938511821242616209696454325522
30,360.818805171298984699762688389794896,359.6,1.218805171298984699762688389794896
31,385.225444606958478171899781189675051,384.0,1.225444606958478171899781189675051
32,410.431871405103849714860394940690980,409.2,1.231871405103849714860394940690980
33,436.438098789346780759569207003715765,435.2,1.238098789346780759569207003715765
34,463.244138785371155631551208801245014,462.0,1.244138785371155631551208801245014
35,490.850002361511863112022349392018565,489.6,1.250002361511863112022349392018565
36,519.255699549288005842482368820403527,518.0,1.255699549288005842482368820403527
37,548.461239547226687452792493285172119,547.2,1.261239547226687452792493285172119
38,578.466630810683128549718320954614211,577.2,1.266630810683128549718320954614211
39,609.271881129865014053511771658134130,608.0,1.271881129865014053511771658134130
40,640.876997697873153586650491807555973,639.6,1.276997697873153586650491807555973
41,673.281987170253786345204681561325923,672.0,1.281987170253786345204681561325923
42,706.486855717302869281854829799244173,705.2,1.286855717302869281854829799244173
43,740.491609070156201084715716999338309,739.2,1.291609070156201084715716999338309
44,775.296252561531140420657630861048425,774.0,1.296252561531140420657630861048425
45,810.900791161848107342851630424587477,809.6,1.300791161848107342851630424587477
46,847.305229511346920479699674896094610,846.0,1.305229511346920479699674896094610
47,884.509571948719546010001949467583770,883.2,1.309571948719546010001949467583770
48,922.513822536703248064984841771575835,921.2,1.313822536703248064984841771575835
49,961.317985085013467653932680723146618,960.0,1.317985085013467653932680723146618
50,1000.92206317094163449652664016380838,999.6,1.32206317094163449652664016380838
51,1041.32606015789764918253309071623949,1040.0,1.32606015789764918253309071623949
52,1082.52997921213842786519386912469062,1081.2,1.32997921213842786519386912469062
53,1124.53382331789145157613299444310149,1123.2,1.33382331789145157613299444310149
54,1167.33759529105470111814503466514788,1166.0,1.33759529105470111814503466514788
55,1210.94129779163088299972428422101755,1209.6,1.34129779163088299972428422101755
56,1255.34493333503377730507366899182735,1254.0,1.34493333503377730507366899182735
57,1300.54850430238733942821749430054379,1299.2,1.34850430238733942821749430054379
58,1346.55201294992339041355477952808604,1345.2,1.35201294992339041355477952808604
59,1393.35546141757097669791790645702884,1392.0,1.35546141757097669791790645702884
60,1440.95885173681945554150166230936042,1439.6,1.35885173681945554150166230936042
61,1489.36218583792779820752548835676590,1488.0,1.36218583792779820752548835676590
62,1538.56546555654430194538023810602086,1537.2,1.36546555654430194538023810602086
63,1588.56869263979365994299191023211898,1587.2,1.36869263979365994299191023211898
64,1639.37186875188202593421421720702187,1638.0,1.37186875188202593421421720702187
65,1690.97499547926517530709026288938168,1689.6,1.37499547926517530709026288938168
66,1743.37807433542001721977069507854335,1742.0,1.37807433542001721977069507854335
67,1796.58110676525544993955080047364493,1795.2,1.38110676525544993955080047364493
68,1850.58409414919479545968132283547907,1849.2,1.38409414919479545968132283547907
69,1905.38703780695873677788166976522024,1904.0,1.38703780695873677788166976522024
70,1960.98993900107475295222088733538690,1959.6,1.38993900107475295222088733538690
71,2017.39279894013644834630103803424655,2016.0,1.39279894013644834630103803424655
72,2074.59561878183387423329842315523058,2073.2,1.39561878183387423329842315523058
73,2132.59839963577388792201487624887937,2131.2,1.39839963577388792201487624887937
74,2191.40114256610777571953902469890700,2190.0,1.40114256610777571953902469890700
75,2251.00384859398173494401465374495610,2249.6,1.40384859398173494401465374495610
76,2311.40651869982436064425835896162270,2310.0,1.40651869982436064425835896162270
77,2372.60915382548398028455076365257526,2371.2,1.40915382548398028455076365257526
78,2434.61175487622751385474558553106756,2433.2,1.41175487622751385474558553106756
79,2497.41432272261149004584873978885526,2496.0,1.41432272261149004584873978885526
80,2561.01685820223491100557539681561131,2559.6,1.41685820223491100557539681561131
81,2625.41936212138280884691637860036011,2624.0,1.41936212138280884691637860036011
82,2690.62183525656857563219188269178489,2689.2,1.42183525656857563219188269178489
83,2756.62427835598245982128096942553818,2755.2,1.42427835598245982128096942553818
84,2823.42669214085299788099914436518775,2822.0,1.42669214085299788099914436518775
85,2891.02907730672759047642277806602658,2889.6,1.42907730672759047642277806602658
86,2959.43143452467791679956984373715553,2958.0,1.43143452467791679956984373715553
87,3028.63376444243542312004659351018349,3027.2,1.43376444243542312004659351018349
88,3098.63606768546169826453416558212981,3097.2,1.43606768546169826453416558212981
89,3169.43834485795816522982764563042332,3168.0,1.43834485795816522982764563042332
90,3241.04059654381917491741084205709990,3239.6,1.44059654381917491741084205709990
91,3313.44282330753226652549936982789891,3312.0,1.44282330753226652549936982789891
92,3386.64502569502907083694554169967263,3385.2,1.44502569502907083694554169967263
93,3460.64720423449007038634294147531818,3459.2,1.44720423449007038634294147531818
94,3535.44935943710618756093046659585069,3534.0,1.44935943710618756093046659585069
95,3611.05149179779995053586663036961937,3609.6,1.45149179779995053586663036961937
96,3687.45360179590878512232851562370778,3686.0,1.45360179590878512232851562370778
97,3764.65568989583279626478012972893232,3763.2,1.45568989583279626478012972893232
98,3842.65775654764923004946028474690467,3841.2,1.45775654764923004946028474690467
99,3921.45980218769565361395091538707682,3920.0,1.45980218769565361395091538707682
100,4001.06182723912374400727078164093752,3999.6,1.46182723912374400727078164093752
101,4081.46383211242544774578494993318361,4080.0,1.46383211242544774578494993318361
102,4162.66581720593314723549941892455514,4161.2,1.46581720593314723549941892455514
103,4244.66778290629536231769736998612847,4243.2,1.46778290629536231769736998612847
104,4327.46972958892940793016308722872299,4326.0,1.46972958892940793016308722872299
105,4411.07165761845233580248273994496324,4409.6,1.47165761845233580248273994496324
106,4495.47356734909139733966747878331820,4494.0,1.47356734909139733966747878331820
107,4580.67545912507518676638889783674509,4579.2,1.47545912507518676638889783674509
108,4666.67733328100654436456252827745372,4665.2,1.47733328100654436456252827745372
109,4753.47919014221823104348085839922324,4752.0,1.47919014221823104348085839922324
110,4841.08103002511232306157234571934480,4839.6,1.48103002511232306157234571934480
111,4929.48285323748420985766433596766916,4928.0,1.48285323748420985766433596766916
112,5018.68466007883202851599433281686361,5017.2,1.48466007883202851599433281686361
113,5108.68645084065231285342001787475926,5107.2,1.48645084065231285342001787475926
114,5199.48822580672258635952204373067636,5198.0,1.48822580672258635952204373067636
115,5291.08998525337158777179106524071456,5289.6,1.48998525337158777179106524071456
116,5383.49172944973776973644227206755657,5382.0,1.49172944973776973644227206755657
117,5476.69345865801667929239389031495604,5475.2,1.49345865801667929239389031495604
118,5570.69517313369778788484056302278468,5569.2,1.49517313369778788484056302278468
119,5665.49687312579130490113624912629993,5664.0,1.49687312579130490113624912629993
120,5761.09855887704548287946624081352142,5759.6,1.49855887704548287946624081352142
121,5857.50023062415488427354373259098905,5856.0,1.50023062415488427354373259098905
122,5954.70188859796006074343354949216047,5953.2,1.50188859796006074343354949216047
123,6052.70353302363906374967365640695455,6051.2,1.50353302363906374967365640695455
124,6151.50516412089118754805641078348784,6150.0,1.50516412089118754805641078348784
125,6251.10678210411331611616841256536254,6249.6,1.50678210411331611616841256536254
126,6351.50838718256923034549024241389033,6350.0,1.50838718256923034549024241389033
127,6452.70997956055221125497098364697953,6451.2,1.50997956055221125497098364697953
128,6554.71155943754125239480253316032676,6553.2,1.51155943754125239480253316032676
129,6657.51312700835118253588060675665304,6656.0,1.51312700835118253588060675665304
130,6761.11468246327698135857206760631978,6759.6,1.51468246327698135857206760631978
131,6865.51622598823255545029013625277777,6864.0,1.51622598823255545029013625277777
132,6970.71775776488422694417821434722836,6969.2,1.51775776488422694417821434722836
133,7076.71927797077917534961918686786886,7075.2,1.51927797077917534961918686786886
134,7183.52078677946906184932807081440515,7182.0,1.52078677946906184932807081440515
135,7291.12228436062904722944350118996954,7289.6,1.52228436062904722944350118996954
136,7399.52377088017241092150317300570617,7398.0,1.52377088017241092150317300570617
137,7508.72524650036096532724468535475166,7507.2,1.52524650036096532724468535475166
138,7618.72671137991144598518273379758007,7617.2,1.52671137991144598518273379758007
139,7729.52816567409805603200791957023514,7728.0,1.52816567409805603200791957023514
140,7841.12960953485132796588419118388439,7839.6,1.52960953485132796588419118388439
141,7953.53104311085346116123201012962128,7952.0,1.53104311085346116123201012962128
142,8066.73246654763028551131716732032506,8065.2,1.53246654763028551131716732032506
143,8180.73387998763999292479599251238984,8179.2,1.53387998763999292479599251238984
144,8295.53528357035877122273060335919523,8294.0,1.53528357035877122273060335919523
145,8411.13667743236347079482886746021003,8409.6,1.53667743236347079482886746021003
146,8527.53806170741142650491269941823631,8526.0,1.53806170741142650491269941823631
147,8644.73943652651754913265238910967842,8643.2,1.53943652651754913265238910967842
148,8762.74080201802880168057132390064384,8761.2,1.54080201802880168057132390064384
149,8881.54215830769616234725110418588230,8880.0,1.54215830769616234725110418588230
150,9001.14350551874417780758998720592162,8999.6,1.54350551874417780758998720592162
151,9121.54484377193820271434365912568962,9120.0,1.54484377193820271434365912568962
152,9242.74617318564941572009283650777394,9241.2,1.54617318564941572009283650777394
153,9364.74749387591770096930541285782932,9363.2,1.54749387591770096930541285782932
154,9487.54880595651247895970898697678629,9486.0,1.54880595651247895970898697678629
155,9611.15010953899156500893967844752372,9609.6,1.55010953899156500893967844752372
156,9735.55140473275813319280320328896610,9734.0,1.55140473275813319280320328896610
157,9860.75269164511585680172409902155212,9859.2,1.55269164511585680172409902155212
158,9986.75397038132229713345648216997480,9985.2,1.55397038132229713345648216997480
159,10113.5552410446406042948617586167216,10112.0,1.5552410446406042948617586167216
160,10241.1565037363895963502629920653180,10239.6,1.5565037363895963502629920653180
161,10369.5577585559922753124668460515645,10368.0,1.5577585559922753124668460515645
162,10498.7590056010228394375244150396602,10497.2,1.5590056010228394375244150396602
163,10628.7602449672522466765003247365677,10627.2,1.5602449672522466765003247365677
164,10759.5614767486923839208149175439264,10758.0,1.5614767486923839208149175439264
165,10891.1627010376388906413471745291688,10889.6,1.5627010376388906413471745291688
166,11023.5639179247126874368570542164411,11022.0,1.5639179247126874368570542164411
167,11156.7651274989002567240166034879204,11155.2,1.5651274989002567240166034879204
168,11290.7663298475927182579332490414153,11289.2,1.5663298475927182579332490414153
169,11425.5675250566237445452258538325481,11424.0,1.5675250566237445452258538325481
170,11561.1687132103063558927390347433409,11559.6,1.5687132103063558927390347433409
171,11697.5698943914686352863264885343990,11696.0,1.5698943914686352863264885343990
172,11834.7710686814884009663310976664549,11833.2,1.5710686814884009663310976664549
173,11972.7722361603268721020624083575025,11971.2,1.5722361603268721020624083575025
174,12111.5733969065613634087553305299337,12110.0,1.5733969065613634087553305299337
175,12251.1745509974170426919128660104580,12249.6,1.5745509974170426919128660104580
176,12391.5756985087977810253554962361316,12390.0,1.5756985087977810253554962361316
177,12532.7768395153161288234844527173884,12531.2,1.5768395153161288234844527173884
178,12674.7779740903224469621248289429290,12673.2,1.5779740903224469621248289429290
179,12817.5791023059332193928640636472206,12816.0,1.5791023059332193928640636472206
180,12961.1802242330585781972543989743281,12959.6,1.5802242330585781972543989743281
181,13105.5813399414290637294351216056248,13104.0,1.5813399414290637294351216056248
182,13250.7824494996216475425295886863261,13249.2,1.5824494996216475425295886863261
183,13396.7835529750850411480605646616782,13395.2,1.5835529750850411480605646616782
184,13543.5846504341643148498893965705696,13542.0,1.5846504341643148498893965705696
185,13691.1857419421248484607717847201162,13689.6,1.5857419421248484607717847201162
186,13839.5868275631756348701189009257470,13838.0,1.5868275631756348701189009257470
187,13988.7879073604919602634304110392941,13987.2,1.5879073604919602634304110392941
188,14138.7889813962374764296830121692670,14137.2,1.5889813962374764296830121692670
189,14289.5900497315856888877311228865390,14288.0,1.5900497315856888877311228865390
190,14441.1911124267408764827632884073629,14439.6,1.5911124267408764827632884073629
191,14593.5921695409584616753316034797724,14592.0,1.5921695409584616753316034797724
192,14746.7932211325648479051219443499123,14745.2,1.5932211325648479051219443499123
193,14900.7942672589767423332771486314540,14899.2,1.5942672589767423332771486314540
194,15055.5953079767199773040193360113168,15054.0,1.5953079767199773040193360113168
195,15211.1963433414478484578930925793787,15209.6,1.5963433414478484578930925793787
196,15367.5973734079589831884918786425091,15366.0,1.5973734079589831884918786425091
197,15524.7983982302147538179505816747773,15523.2,1.5983982302147538179505816747773
198,15682.7994178613562496531449991341556,15681.2,1.5994178613562496531449991341556
199,15841.6004323537208207564133897767104,15840.0,1.6004323537208207564133897767104
200,16001.2014417588582073709607530059075,15999.6,1.6014417588582073709607530059075
201,16161.6024461275462659773242621375212,16160.0,1.6024461275462659773242621375212
202,16322.8034455098063053570107746902803,16321.2,1.6034455098063053570107746902803
203,16484.8044399549180433179881431675851,16483.2,1.6044399549180433179881431675851
204,16647.6054295114341956968914025490802,16646.0,1.6054295114341956968914025490802
205,16811.2064142271947076032555331715695,16809.6,1.6064142271947076032555331715695
206,16975.6073941493406399244712884777849,16974.0,1.6073941493406399244712884777849
207,17140.8083693243277169620892136100718,17139.2,1.6083693243277169620892136100718
208,17306.8093397979395494208760918801795,17305.2,1.6093397979395494208760918801795
209,17473.6103056153005384934510030473535,17472.0,1.6103056153005384934510030473535
210,17641.2112668208884725360996181611496,17639.6,1.6112668208884725360996181611496
211,17809.6122234585468236947227617103753,17808.0,1.6122234585468236947227617103753
212,17978.8131755714967547080409165977123,17977.2,1.6131755714967547080409165977123
213,18148.8141232023488402659421508656421,18147.2,1.6141232023488402659421508656421
214,18319.6150663931145178986566392133185,18318.0,1.6150663931145178986566392133185
215,18491.2160051852172676029820030507235,18489.6,1.6160051852172676029820030507235
216,18663.6169396195035341600095230752410,18662.0,1.6169396195035341600095230752410
217,18836.8178697362533961033862485796791,18835.2,1.6178697362533961033862485796791
218,19010.8187955751909903105554105427348,19009.2,1.6187955751909903105554105427348
219,19185.6197171754946954899035642156657,19184.0,1.6197171754946954899035642156657
220,19361.2206345758070870719346205967302,19359.6,1.6206345758070870719346205967302
221,19537.6215478142446614067528050802636,19536.0,1.6215478142446614067528050802636
222,19714.8224569284073464652121864290188,19713.2,1.6224569284073464652121864290188
223,19892.8233619553877926045559747369505,19891.2,1.6233619553877926045559747369505
224,20071.6242629317804584578357040875948,20070.0,1.6242629317804584578357040875948
225,20251.2251598936904945036446130354352,20249.6,1.6251598936904945036446130354352
226,20431.6260528767424278540977848229226,20430.0,1.6260528767424278540977848229226
227,20612.8269419160886569038971785709406,20611.2,1.6269419160886569038971785709406
228,20794.8278270464177576506723841535950,20793.2,1.6278270464177576506723841535950
229,20977.6287083019626088387319773886744,20976.0,1.6287083019626088387319773886744
230,21161.2295857165083406124533269082455,21159.6,1.6295857165083406124533269082455
231,21345.6304593234001084685647904164542,21344.0,1.6304593234001084685647904164542
232,21530.8313291555507029162243397043417,21529.2,1.6313291555507029162243397043417
233,21716.8321952454479898303822955684958,21715.2,1.6321952454479898303822955684958
234,21903.6330576251621976444770738865643,21902.0,1.6330576251621976444770738865643
235,22091.2339163263530445535468503528751,22089.6,1.6339163263530445535468503528751
236,22279.6347713802767154265080919983789,22278.0,1.6347713802767154265080919983789
237,22468.8356228177926920477103729193633,22467.2,1.6356228177926920477103729193633
238,22658.8364706693704384187606260586250,22657.2,1.6364706693704384187606260586250
