Eigenstate,Energy,Kinetic Energy,Potential Energy
1,0.500000000034054814058701578824409471,0.0,0.500000000034054814058701578824409471
2,1.84623093787340664279978883664874681,1.2,0.64623093787340664279978883664874681
3,3.93633761035794010287056429297583169,3.2,0.73633761035794010287056429297583169
4,6.79966527917428820122867315138136558,6.0,0.79966527917428820122867315138136558
5,10.4480465776415675015837301557082554,9.6,0.8480465776415675015837301557082554
6,14.8870660005157704071945968592437516,14.0,0.8870660005157704071945968592437516
7,20.1197208292356893041511639657008916,19.2,0.9197208292356893041511639657008916
8,26.1477838501786024121129536771826118,25.2,0.9477838501786024121129536771826118
9,32.9723835623509865748693211228340916,32.0,0.9723835623509865748693211228340916
10,40.5942802199015421366745191207396755,39.6,0.9942802199015421366745191207396755
11,49.0140093929713983385037913741929190,48.0,1.0140093929713983385037913741929190
12,58.2319621768652532462395375060103701,57.2,1.0319621768652532462395375060103701
13,68.2484327016489700656164334324495120,67.2,1.0484327016489700656164334324495120
14,79.0636476650057412695829217467282448,78.0,1.0636476650057412695829217467282448
15,90.6777854480502750508236656485729558,89.6,1.0777854480502750508236656485729558
16,103.090988920199241438454004207205173,102.0,1.090988920199241438454004207205173
17,116.303374272632777416708816678848701,115.2,1.103374272632777416708816678848701
18,130.315037269300687000536019309038926,129.2,1.115037269300687000536019309038926
19,145.126057770026419342580191411620465,144.0,1.126057770026419342580191411620465
20,160.736503068141005566407962482725617,159.6,1.136503068141005566407962482725617
21,177.146430396564756255637277948713097,176.0,1.146430396564756255637277948713097
22,194.355888838966001834343974669568678,193.2,1.155888838966001834343974669568678
23,212.364920807697617419506770226379364,211.2,1.164920807697617419506770226379364
24,231.173563201197445138538085150963843,230.0,1.173563201197445138538085150963843
25,250.781848320784220649155021727174317,249.6,1.181848320784220649155021727174317
26,271.189804604465160994881258539876173,270.0,1.189804604465160994881258539876173
27,292.397457219898540527183129363641404,291.2,1.197457219898540527183129363641404
28,314.404828547752730815350004006209447,313.2,1.204828547752730815350004006209447
29,337.211938578908152643179119852134205,336.0,1.211938578908152643179119852134205
30,360.818805243299100621836627435943980,359.6,1.218805243299100621836627435943980
31,385.225444684046462447906502187553601,384.0,1.225444684046462447906502187553601
32,410.431871487454455250712618680192949,409.2,1.231871487454455250712618680192949
33,436.438098877134853668728460637312249,435.2,1.238098877134853668728460637312249
34,463.244138878771638028638681329335749,462.0,1.244138878771638028638681329335749
35,490.850002460699795934858894367409013,489.6,1.250002460699795934858894367409013
36,519.255699654438531698738056245133396,518.0,1.255699654438531698738056245133396
37,548.461239658515053488135437510674317,547.2,1.261239658515053488135437510674317
38,578.466630928284689334917087291848954,577.2,1.266630928284689334917087291848954
39,609.271881253955234488398225741965487,608.0,1.271881253955234488398225741965487
40,640.876997828627611819215175051969761,639.6,1.276997828627611819215175051969761
41,673.281987307848176704393300840981734,672.0,1.281987307848176704393300840981734
42,706.486855861913005222876686325438037,705.2,1.286855861913005222876686325438037
43,740.491609221958018145873877756138403,739.2,1.291609221958018145873877756138403
44,775.296252720700699190874938567119682,774.0,1.296252720700699190874938567119682
45,810.900791328561596439203039517008478,809.6,1.300791328561596439203039517008478
46,847.305229685780659534375175407822019,846.0,1.305229685780659534375175407822019
47,884.509572131049988666219631019076429,883.2,1.309572131049988666219631019076429
48,922.513822727106984981453905497907765,921.2,1.313822727106984981453905497907765
49,961.317985283667229517533992796189296,960.0,1.317985283667229517533992796189296
50,1000.92206337802229504293595910424959,999.6,1.32206337802229504293595910424959
51,1041.32606037358222822456115508366893,1040.0,1.32606037358222822456115508366893
52,1082.52997943660409432865943688022566,1081.2,1.32997943660409432865943688022566
53,1124.53382355131552654312090873272891,1123.2,1.33382355131552654312090873272891
54,1167.33759553361466087753240467894377,1166.0,1.33759553361466087753240467894377
55,1210.94129804350436210488464343071116,1209.6,1.34129804350436210488464343071116
56,1255.34493359639857163869221849226013,1254.0,1.34493359639857163869221849226013
57,1300.54850457342140927417070509872406,1299.2,1.34850457342140927417070509872406
58,1346.55201323080486353582535253558678,1345.2,1.35201323080486353582535253558678
59,1393.35546170847815142653143254652635,1392.0,1.35546170847815142653143254652635
60,1440.95885203793080386548493544799576,1439.6,1.35885203793080386548493544799576
61,1489.36218614942196887489835201753336,1488.0,1.36218614942196887489835201753336
62,1538.56546587860012357020341193423906,1537.2,1.36546587860012357020341193423906
63,1588.56869297259014411950256917478754,1587.2,1.36869297259014411950256917478754
64,1639.37186909559837035808938796848605,1638.0,1.37186909559837035808938796848605
65,1690.97499583408076690388554466713830,1689.6,1.37499583408076690388554466713830
66,1743.37807470151443528058839853600669,1742.0,1.37807470151443528058839853600669
67,1796.58110714280846926399752363171846,1795.2,1.38110714280846926399752363171846
68,1850.58409453838638950618031884702409,1849.2,1.38409453838638950618031884702409
69,1905.38703820796908082141021640271143,1904.0,1.38703820796908082141021640271143
70,1960.98993941408422724954709756064689,1959.6,1.38993941408422724954709756064689
71,2017.39279936532564130879865265557668,2016.0,1.39279936532564130879865265557668
72,2074.59561921938358560742156447774259,2073.2,1.39561921938358560742156447774259
73,2132.59840008586513197751813711127743,2131.2,1.39840008586513197751813711127743
74,2191.40114302892178444553118456665868,2190.0,1.40114302892178444553118456665868
75,2251.00384906969996125293713501428253,2249.6,1.40384906969996125293713501428253
76,2311.40651918862848158388201282867453,2310.0,1.40651918862848158388201282867453
77,2372.60915432755590025808696699788087,2371.2,1.40915432755590025808696699788087
78,2434.61175539174936784916978449906099,2433.2,1.41175539174936784916978449906099
79,2497.41432325176564686853664423944978,2496.0,1.41432325176564686853664423944978
80,2561.01685874520397652935384137970083,2559.6,1.41685874520397652935384137970083
81,2625.41936267834962926363271898309495,2624.0,1.41936267834962926363271898309495
82,2690.62183582771624071490743439669817,2689.2,1.42183582771624071490743439669817
83,2756.62427894149430619519554282652962,2755.2,1.42427894149430619519554282652962
84,2823.42669274091261230321525266483405,2822.0,1.42669274091261230321525266483405
85,2891.02907792151881312465950490940639,2889.6,1.42907792151881312465950490940639
86,2959.43143515438484456993765255541407,2958.0,1.43143515438484456993765255541407
87,3028.63376508724241293399572227495084,3027.2,1.43376508724241293399572227495084
88,3098.63606834555337038509043266484361,3097.2,1.43606834555337038509043266484361
89,3169.43834553351940658723068760634164,3168.0,1.43834553351940658723068760634164
90,3241.04059723503514244427093223030464,3239.6,1.44059723503514244427093223030464
91,3313.44282401458839050159011309422642,3312.0,1.44282401458839050159011309422642
92,3386.64502641811105824375076609019133,3385.2,1.44502641811105824375076609019133
93,3460.64720497378390827147717558255095,3459.2,1.44720497378390827147717558255095
94,3535.44936019279814641255339658199185,3534.0,1.44936019279814641255339658199185
95,3611.05149257007658766721294556218047,3609.6,1.45149257007658766721294556218047
96,3687.45360258495694806647545554685869,3686.0,1.45360258495694806647545554685869
97,3764.65569070183962617977613055038888,3763.2,1.45569070183962617977613055038888
98,3842.65775737080216513393888782890247,3841.2,1.45775737080216513393888782890247
99,3921.45980302818243253335520820879044,3920.0,1.45980302818243253335520820879044
100,4001.06182809713240933081440704831753,3999.6,1.46182809713240933081440704831753
101,4081.46383298814434939427672494820030,4080.0,1.46383298814434939427672494820030
102,4162.66581809955094594015945637986265,4161.2,1.46581809955094594015945637986265
103,4244.66778381800103309009344199464699,4243.2,1.46778381800103309009344199464699
104,4327.46973051891224354339700702355976,4326.0,1.46973051891224354339700702355976
105,4411.07165856690195028375723406282019,4409.6,1.47165856690195028375723406282019
106,4495.47356831619772947436501730467346,4494.0,1.47356831619772947436501730467346
107,4580.67546011102850361379479363295911,4579.2,1.47546011102850361379479363295911
108,4666.67733428599744478536546924822934,4665.2,1.47733428599744478536546924822934
109,4753.47919116643764923918497023165000,4752.0,1.47919116643764923918497023165000
110,4841.08103106875153212595568153991403,4839.6,1.48103106875153212595568153991403
111,4929.48285430073482534041962345785174,4928.0,1.48285430073482534041962345785174
112,5018.68466116188601199868868023351800,5017.2,1.48466116188601199868868023351800
113,5108.68645194370197553791111895566139,5107.2,1.48645194370197553791111895566139
114,5199.48822692996059266896935546300520,5198.0,1.48822692996059266896935546300520
115,5291.08998639699095896440131125515853,5289.6,1.48998639699095896440131125515853
116,5383.49173061393188753208948976072142,5382.0,1.49173061393188753208948976072142
117,5476.69345984297928951225515100805938,5475.2,1.49345984297928951225515100805938
118,5570.69517433962300410418944045252249,5569.2,1.49517433962300410418944045252249
119,5665.49687435287361211543691523619366,5664.0,1.49687435287361211543691523619366
120,5761.09856012547974118391210240522243,5759.6,1.49856012547974118391210240522243
121,5857.50023189413633255618535417054131,5856.0,1.50023189413633255618535417054131
122,5954.70188988968432039204159263497533,5953.2,1.50188988968432039204159263497533
123,6052.70353433730214237248346748973678,6051.2,1.50353433730214237248346748973678
124,6151.50516545668948270854182535093641,6150.0,1.50516545668948270854182535093641
125,6251.10678346224361908199330065107368,6249.6,1.50678346224361908199330065107368
126,6351.50838856322872985178732041821820,6350.0,1.50838856322872985178732041821820
127,6452.70998096393849728209829729209404,6451.2,1.50998096393849728209829729209404
128,6554.71156086385231996072910274033546,6553.2,1.51156086385231996072910274033546
129,6657.51312845778543550335359374548224,6656.0,1.51312845778543550335359374548224
130,6761.11468393603323625721889697113827,6759.6,1.51468393603323625721889697113827
131,6865.51622748451004531380992586519659,6864.0,1.51622748451004531380992586519659
132,6970.71775928488260516277804111680071,6969.2,1.51775928488260516277804111680071
133,7076.71927951469851953785149042439794,7075.2,1.51927951469851953785149042439794
134,7183.52078834750987772948673441839761,7182.0,1.52078834750987772948673441839761
135,7291.12228595299227253067716784448891,7289.6,1.52228595299227253067716784448891
136,7399.52377249705941929480522201397811,7398.0,1.52377249705941929480522201397811
137,7508.72524814197357027648060060898576,7507.2,1.52524814197357027648060060898576
138,7618.72671304645190481431652245281334,7617.2,1.52671304645190481431652245281334
139,7729.52816736576907380869033703805790,7728.0,1.52816736576907380869033703805790
140,7841.12961125185606150156670068863263,7839.6,1.52961125185606150156670068863263
141,7953.53104485339552300797135560173678,7952.0,1.53104485339552300797135560173678
142,8066.73246831591374797543673213012197,8065.2,1.53246831591374797543673213012197
143,8180.73388178186939209757112759911022,8179.2,1.53388178186939209757112759911022
144,8295.53528539073911102826633491279633,8294.0,1.53528539073911102826633491279633
145,8411.13667927910022705529940601691938,8409.6,1.53667927910022705529940601691938
146,8527.53806358071055102333350581337921,8526.0,1.53806358071055102333350581337921
147,8644.73943842658547379335664233775918,8643.2,1.53943842658547379335664233775918
148,8762.74080394507244256756376663207460,8761.2,1.54080394507244256756376663207460
149,8881.54216026192292388061361571571721,8880.0,1.54216026192292388061361571571721
150,9001.14350750036195689811421587768293,8999.6,1.54350750036195689811421587768293
151,9121.54484578115539293656752931389934,9120.0,1.54484578115539293656752931389934
152,9242.74617522267491150391875029863421,9241.2,1.54617522267491150391875029863421
153,9364.74749594096090181037941251382081,9363.2,1.54749594096090181037941251382081
154,9487.54880804978329364874123081963845,9486.0,1.54880804978329364874123081963845
155,9611.15011166070041588014800513434910,9609.6,1.55011166070041588014800513434910
156,9735.55140688311596039166286534971148,9734.0,1.55140688311596039166286534971148
157,9860.75269382433412257220787967992358,9859.2,1.55269382433412257220787967992358
158,9986.75397258961299012495094218531914,9985.2,1.55397258961299012495094218531914
159,10113.5552432822162438889465363020169,10112.0,1.5552432822162438889465363020169
160,10241.1565060034632370075415183576665,10239.6,1.5565060034632370075415183576665
161,10369.5577608527775109396381754937580,10368.0,1.5577608527775109396381754937580
162,10498.7590079277338077748873265320516,10497.2,1.5590079277338077748873265320516
163,10628.7602473241036337060820136382602,10627.2,1.5602473241036337060820136382602
164,10759.5614791358994282953183069692564,10758.0,1.5614791358994282953183069692564
165,10891.1627034554173881341121419820473,10889.6,1.5627034554173881341121419820473
166,11023.5639203732789954130322719076245,11022.0,1.5639203732789954130322719076245
167,11156.7651299784712986331402148197132,11155.2,1.5651299784712986331402148197132
168,11290.7663323583859881481221626291214,11289.2,1.5663323583859881481221626291214
169,11425.5675275988573115991746300552615,11424.0,1.5675275988573115991746300552615
170,11561.1687157841988689857312908499676,11559.6,1.5687157841988689857312908499676
171,11697.5698969972393275664627947163520,11696.0,1.5698969972393275664627947163520
172,11834.7710713193570944571792481965294,11833.2,1.5710713193570944571792481965294
173,11972.7722388305139823279372560315896,11971.2,1.5722388305139823279372560315896
174,12111.5733996092879040428371050037788,12110.0,1.5733996092879040428371050037788
175,12251.1745537329046302274143788686904,12249.6,1.5745537329046302274143788686904
176,12391.5757012772686394699503242046049,12390.0,1.5757012772686394699503242046049
177,12532.7768423169930944172097097296097,12531.2,1.5768423169930944172097097296097
178,12674.7779769254289729189739002259221,12673.2,1.5779769254289729189739002259221
179,12817.5791051746933806662862075069491,12816.0,1.5791051746933806662862075069491
180,12961.1802271356970762697798926690417,12959.6,1.5802271356970762697798926690417
181,13105.5813428781712314266462929727766,13104.0,1.5813428781712314266462929727766
182,13250.7824524706934538715997522990940,13249.2,1.5824524706934538715997522990940
183,13396.7835559807130961610846237853652,13395.2,1.5835559807130961610846237853652
184,13543.5846534745758745322316634853575,13542.0,1.5846534745758745322316634853575
185,13691.1857450175478196446583746868222,13689.6,1.5857450175478196446583746868222
186,13839.5868306738385801737035981197710,13838.0,1.5868306738385801737035981197710
187,13988.7879105066241030555650909970401,13987.2,1.5879105066241030555650909970401
188,14138.7889845780687058206251881701839,14137.2,1.5889845780687058206251881701839
189,14289.5900529493465647460232149579793,14288.0,1.5900529493465647460232149579793
190,14441.1911156806626344785200774456689,14439.6,1.5911156806626344785200774456689
191,14593.5921728312730183501740961589573,14592.0,1.5921728312730183501740961589573
192,14746.7932244595048057689979262933127,14745.2,1.5932244595048057689979262933127
193,14900.7942706227753949884105333369796,14899.2,1.5942706227753949884105333369796
194,15055.5953113776113145962324003248001,15054.0,1.5953113776113145962324003248001
195,15211.1963467796665616555476465179752,15209.6,1.5963467796665616555476465179752
196,15367.5973768837404701892974137753959,15366.0,1.5973768837404701892974137753959
197,15524.7984017437951243838894921510056,15523.2,1.5984017437951243838894921510056
198,15682.7994214129723306737668476415037,15681.2,1.5994214129723306737668476415037
199,15841.6004359436101615407525384880003,15840.0,1.6004359436101615407525384880003
200,16001.2014453872590849683334348879000,15999.6,1.6014453872590849683334348879000
201,16161.6024497946976905272634114493843,16160.0,1.6024497946976905272634114493843
202,16322.8034492159480254685992253393945,16321.2,1.6034492159480254685992253393945
203,16484.8044437002905514788525694594449,16483.2,1.6044437002905514788525694594449
204,16647.6054332962787337121219484286134,16646.0,1.6054332962787337121219484286134
205,16811.2064180517532720645179221070283,16809.6,1.6064180517532720645179221070283
206,16975.6073980138559877095806870045940,16974.0,1.6073980138559877095806870045940
207,17140.8083732290433707653172283976174,17139.2,1.6083732290433707653172283976174
208,17306.8093437430998033142645608947820,17305.2,1.6093437430998033142645608947820
209,17473.6103096011504635194085550388552,17472.0,1.6103096011504635194085550388552
210,17641.2112708476739223315593253162232,17639.6,1.6112708476739223315593253162232
211,17809.6122275265144401471414126555412,17808.0,1.6122275265144401471414126555412
212,17978.8131796808939736435229295236324,17977.2,1.6131796808939736435229295236324
213,18148.8141273534238971697735468111758,18147.2,1.6141273534238971697735468111758
214,18319.6150705861164536685368029851609,18318.0,1.6150705861164536685368029851609
215,18491.2160094203959343352434900350570,18489.6,1.6160094203959343352434900350570
216,18663.6169438971096009691186756931867,18662.0,1.6169438971096009691186756931867
217,18836.8178740565383549750197108147067,18835.2,1.6178740565383549750197108147067
218,19010.8187999384071619885503288832670,19009.2,1.6187999384071619885503288832670
219,19185.6197215818952353973817911012747,19184.0,1.6197215818952353973817911012747
220,19361.2206390256459912669036660280411,19359.6,1.6206390256459912669036660280411
221,19537.6215523077767725724891432370607,19536.0,1.6215523077767725724891432370607
222,19714.8224614658883599357348997682341,19713.2,1.6224614658883599357348997682341
223,19892.8233665370742624255015795227635,19891.2,1.6233665370742624255015795227635
224,20071.6242675579298034830475157423507,20070.0,1.6242675579298034830475157423507
225,20251.2251645645610045277930126793305,20249.6,1.6251645645610045277930126793305
226,20431.6260575925932697816501536947354,20430.0,1.6260575925932697816501536947354
227,20612.8269466771798809547592849172806,20611.2,1.6269466771798809547592849172806
228,20794.8278318530103036028257908844632,20793.2,1.6278318530103036028257908844632
229,20977.6287131543183123081948182493298,20976.0,1.6287131543183123081948182493298
230,21161.2295906148899393708946933236511,21159.6,1.6295906148899393708946933236511
231,21345.6304642680712487989059328395204,21344.0,1.6304642680712487989059328395204
232,21530.8313341467759460065627910263788,21529.2,1.6313341467759460065627910263788
233,21716.8322002834928182065779224515818,21715.2,1.6322002834928182065779224515818
234,21903.6330627102930216417422997672470,21902.0,1.6330627102930216417422997672470
235,22091.2339214588372088273859998782749,22089.6,1.6339214588372088273859998782749
236,22279.6347765603825055033540848294402,22278.0,1.6347765603825055033540848294402
237,22468.8356280457893409156102218180245,22467.2,1.6356280457893409156102218180245
238,22658.8364759455281331584639817904238,22657.2,1.6364759455281331584639817904238
