Eigenstate,Energy,Kinetic Energy,Potential Energy
1,0.500000000141346048515399814745065610,0.0,0.500000000141346048515399814745065610
2,1.84623093857375216263972501898795587,1.2,0.64623093857375216263972501898795587
3,3.93633761241516796198578793389428415,3.2,0.73633761241516796198578793389428415
4,6.79966528345931430545579294437618170,6.0,0.79966528345931430545579294437618170
5,10.4480465850642318187190686405046381,9.6,0.8480465850642318187190686405046381
6,14.8870660120019136802255012713619665,14.0,0.8870660120019136802255012713619665
7,20.1197208457187182605425831897708008,19.2,0.9197208457187182605425831897708008
8,26.1477838725959826166593788288346460,25.2,0.9477838725959826166593788288346460
9,32.9723835916426212609842194161402367,32.0,0.9723835916426212609842194161402367
10,40.5942802570089582943528623756333836,39.6,0.9942802570089582943528623756333836
11,49.0140094388373128347589044370850291,48.0,1.0140094388373128347589044370850291
12,58.2319622324333326171953318676533573,57.2,1.0319622324333326171953318676533573
13,68.2484327678636957571504496858124891,67.2,1.0484327678636957571504496858124891
14,79.0636477428123355769104375891363033,78.0,1.0636477428123355769104375891363033
15,90.6777855383946636899228030588260068,89.6,1.0777855383946636899228030588260068
16,103.090989024028039141323569215648076,102.0,1.090989024028039141323569215648076
17,116.303374390893288517042401338701085,115.2,1.103374390893288517042401338701085
18,130.315037402940916086226878290559691,129.2,1.115037402940916086226878290559691
19,145.126057919995088856863183131924817,144.0,1.126057919995088856863183131924817
20,160.736503235387578324984614760838154,159.6,1.136503235387578324984614760838154
21,177.146430582039461520455438535283023,176.0,1.146430582039461520455438535283023
22,194.355889043619864014086835595389496,193.2,1.155889043619864014086835595389496
23,212.364921032482486747557963918478616,211.2,1.164921032482486747557963918478616
24,231.173563447066029866863786715093690,230.0,1.173563447066029866863786715093690
25,250.781848588690120424587344022117899,249.6,1.181848588690120424587344022117899
26,271.189804895362901173272438185910633,270.0,1.189804895362901173272438185910633
27,292.397457534743607243791523712677034,291.2,1.197457534743607243791523712677034
28,314.404828887501606674959507585612297,313.2,1.204828887501606674959507585612297
29,337.211938944518352926316472826727292,336.0,1.211938944518352926316472826727292
30,360.818805635729209927690897026741415,359.6,1.218805635729209927690897026741415
31,385.225445104256171712652609812799784,384.0,1.225445104256171712652609812799784
32,410.431871936404599093605339962426865,409.2,1.231871936404599093605339962426865
33,436.438099355787448028759593783886925,435.2,1.238099355787448028759593783886925
34,463.244139388089918062583708098964152,462.0,1.244139388089918062583708098964152
35,490.850003001648254153786655289428610,489.6,1.250003001648254153786655289428610
36,519.255700227982956324956920295650503,518.0,1.255700227982956324956920295650503
37,548.461240265622567018424427412088300,547.2,1.261240265622567018424427412088300
38,578.466631569923787298978101392048933,577.2,1.266631569923787298978101392048933
39,609.271881931095824393944242115775380,608.0,1.271881931095824393944242115775380
40,640.876998542241052277112997848268367,639.6,1.276998542241052277112997848268367
41,673.281988058907316728909866709297776,672.0,1.281988058907316728909866709297776
42,706.486856651392223703413368385067579,705.2,1.286856651392223703413368385067579
43,740.491610050833263487673813857044654,739.2,1.291610050833263487673813857044654
44,775.296253589949529123100674112604924,774.0,1.296253589949529123100674112604924
45,810.900792239163217989542802276537716,809.6,1.300792239163217989542802276537716
46,847.305230638715969169974429929195460,846.0,1.305230638715969169974429929195460
47,884.509573127301612601272835749885470,883.2,1.309573127301612601272835749885470
48,922.513823767659319652248404376115498,921.2,1.313823767659319652248404376115498
49,961.317986369506482226127626154268178,960.0,1.317986369506482226127626154268178
50,1000.92206451013652477098433511375873,999.6,1.32206451013652477098433511375873
51,1041.32606155296138661909931157814011,1040.0,1.32606155296138661909931157814011
52,1082.52998066424006686189302732270557,1081.2,1.32998066424006686189302732270557
53,1124.53382482820217384850069847140707,1123.2,1.33382482820217384850069847140707
54,1167.33759686074786026457812882717647,1166.0,1.33759686074786026457812882717647
55,1210.94129942188204925539395816713813,1209.6,1.34129942188204925539395816713813
56,1255.34493502702078248712147940150921,1254.0,1.34493502702078248712147940150921
57,1300.54850605729032207510928549647097,1299.2,1.34850605729032207510928549647097
58,1346.55201476892484112160724300962036,1345.2,1.35201476892484112160724300962036
59,1393.35546330185578365813773068760180,1392.0,1.35546330185578365813773068760180
60,1440.95885368757495027999178335845727,1439.6,1.35885368757495027999178335845727
61,1489.36218785634380153281715858851744,1488.0,1.36218785634380153281715858851744
62,1538.56546764381317010614593101921956,1537.2,1.36546764381317010614593101921956
63,1588.56869479711033099968272220564588,1587.2,1.36869479711033099968272220564588
64,1639.37187098044406634824815356307127,1638.0,1.37187098044406634824815356307127
65,1690.97499778027282675129583172900342,1689.6,1.37499778027282675129583172900342
66,1743.37807671007624361386302823644412,1742.0,1.37807671007624361386302823644412
67,1796.58110921476598471448704355805036,1795.2,1.38110921476598471448704355805036
68,1850.58409667476818905480825716307970,1849.2,1.38409667476818905480825716307970
69,1905.38704040980640437485234128653593,1904.0,1.38704040980640437485234128653593
70,1960.98994168241102244971747734501452,1959.6,1.38994168241102244971747734501452
71,2017.39280170117860857966147424686608,2016.0,1.39280170117860857966147424686608
72,2074.59562162380222344320098201007775,2073.2,1.39562162380222344320098201007775
73,2132.59840255989178247643218990414207,2131.2,1.39840255989178247643218990414207
74,2191.40114557360167909322764387106951,2190.0,1.40114557360167909322764387106951
75,2251.00385168608126695986124392711770,2249.6,1.40385168608126695986124392711770
76,2311.40652187776234698085682244045115,2310.0,1.40652187776234698085682244045115
77,2372.60915709049650225443835252960339,2371.2,1.40915709049650225443835252960339
78,2434.61175822955395845777873989178893,2433.2,1.41175822955395845777873989178893
79,2497.41432616549460030225241332514038,2496.0,1.41432616549460030225241332514038
80,2561.01686173592083657325161056831023,2559.6,1.41686173592083657325161056831023
81,2625.41936574712115692765119738890684,2624.0,1.41936574712115692765119738890684
82,2690.62183897561246217145202946906853,2689.2,1.42183897561246217145202946906853
83,2756.62428216958856100634467515428761,2755.2,1.42428216958856100634467515428761
84,2823.42669605028160194221880107336068,2822.0,1.42669605028160194221880107336068
85,2891.02908131324264979647061376669571,2889.6,1.42908131324264979647061376669571
86,2959.43143862954710033557156629164971,2958.0,1.43143862954710033557156629164971
87,3028.63376864693016914356278681586902,3027.2,1.43376864693016914356278681586902
88,3098.63607199085726742440366867180542,3097.2,1.43607199085726742440366867180542
89,3169.43834926553369394294289376614070,3168.0,1.43834926553369394294289376614070
90,3241.04060105485772909255111717148582,3239.6,1.44060105485772909255111717148582
91,3313.44282792332089562540498857364901,3312.0,1.44282792332089562540498857364901
92,3386.64503041685886228387295073570657,3385.2,1.44503041685886228387295073570657
93,3460.64720906365620431639943893991302,3459.2,1.44720906365620431639943893991302
94,3535.44936437490799193254592349278431,3534.0,1.44936437490799193254592349278431
95,3611.05149684554095659781950053422742,3609.6,1.45149684554095659781950053422742
96,3687.45360695489678324680382524469838,3686.0,1.45360695489678324680382524469838
97,3764.65569516737989215099935713292541,3763.2,1.45569516737989215099935713292541
98,3842.65776193307190130348426301159487,3841.2,1.45776193307190130348426301159487
99,3921.45980768831480671032164032139970,3920.0,1.45980768831480671032164032139970
100,4001.06183285626477163822114881742038,3999.6,1.46183285626477163822114881742038
101,4081.46383784741828656381145398174670,4080.0,1.46383784741828656381145398174670
102,4162.66582306011233599515897560550050,4161.2,1.46582306011233599515897560550050
103,4244.66778888100010042255640513194243,4243.2,1.46778888100010042255640513194243
104,4327.46973568550361439089648389922395,4326.0,1.46973568550361439089648389922395
105,4411.07166383824470861218858403983003,4409.6,1.47166383824470861218858403983003
106,4495.47357369345547327253500048004532,4494.0,1.47357369345547327253500048004532
107,4580.67546559536940160592853986254675,4579.2,1.47546559536940160592853986254675
108,4666.67733987859429356768000571674282,4665.2,1.47733987859429356768000571674282
109,4753.47919686846793084675148870902702,4752.0,1.47919686846793084675148870902702
110,4841.08103688139747203614708764504202,4839.6,1.48103688139747203614708764504202
111,4929.48286022518345091931552006229124,4928.0,1.48286022518345091931552006229124
112,5018.68466719932921139688755864328258,5017.2,1.48466719932921139688755864328258
113,5108.68645809533655704227725576865641,5107.2,1.48645809533655704227725576865641
114,5199.48823319698834451692181662418904,5198.0,1.48823319698834451692181662418904
115,5291.08999278061870962743359102410860,5289.6,1.48999278061870962743359102410860
116,5383.49173711537156647529057526035277,5382.0,1.49173711537156647529057526035277
117,5476.69346646344798843668643016395035,5475.2,1.49346646344798843668643016395035
118,5570.69518108034303867905741586205991,5569.2,1.49518108034303867905741586205991
119,5665.49688121507258420708796979302702,5664.0,1.49688121507258420708796979302702
120,5761.09856711039060158876394124819418,5759.6,1.49856711039060158876394124819418
121,5857.50023900299744424479931077401820,5856.0,1.50023900299744424479931077401820
122,5954.70189712373952227163111486348987,5953.2,1.50189712373952227163111486348987
123,6052.70354169780081357524681679941729,6051.2,1.50354169780081357524681679941729
124,6151.50517294488660741330120864087052,6150.0,1.50517294488660741330120864087052
125,6251.10679107939985187671895628599650,6249.6,1.50679107939985187671895628599650
126,6351.50839631061046164468226661383519,6350.0,1.50839631061046164468226661383519
127,6452.70998884281792176901869927516395,6451.2,1.50998884281792176901869927516395
128,6554.71156887550750065681655495768809,6553.2,1.51156887550750065681655495768809
129,6657.51313660350037334685789516800203,6656.0,1.51313660350037334685789516800203
130,6761.11469221709793779359430498514534,6759.6,1.51469221709793779359430498514534
131,6865.51623590222059146827452529328338,6864.0,1.51623590222059146827452529328338
132,6970.71776784054122060963397674429196,6969.2,1.51776784054122060963397674429196
133,7076.71928820961364267497278453711114,7075.2,1.51928820961364267497278453711114
134,7183.52079718299623126649473494516818,7182.0,1.52079718299623126649473494516818
135,7291.12229493037093469943652908936107,7289.6,1.52229493037093469943652908936107
136,7399.52378161765789569098900785722453,7398.0,1.52378161765789569098900785722453
137,7508.72525740712586634107145754671523,7507.2,1.52525740712586634107145754671523
138,7618.72672245749859896403027618074560,7617.2,1.52672245749859896403027618074560
139,7729.52817692405739122443033598890709,7728.0,1.52817692405739122443033598890709
140,7841.12962095873994858414142350339799,7839.6,1.52962095873994858414142350339799
141,7953.53105471023572251043351819106340,7952.0,1.53105471023572251043351819106340
142,8066.73247832407787482153103152092230,8065.2,1.53247832407787482153103152092230
143,8180.73389194273200989590809803757456,8179.2,1.53389194273200989590809803757456
144,8295.53529570568180929197280106483494,8294.0,1.53529570568180929197280106483494
145,8411.13668974951169913703082057780964,8409.6,1.53668974951169913703082057780964
146,8527.53807420798667277567184858635832,8526.0,1.53807420798667277567184858635832
147,8644.73944921212938296475689405203966,8643.2,1.53944921212938296475689405203966
148,8762.74081489029461894415444245574670,8761.2,1.54081489029461894415444245574670
149,8881.54217136824127018430238660065713,8880.0,1.54217136824127018430238660065713
150,9001.14351876920188045159608194107937,8999.6,1.54351876920188045159608194107937
151,9121.54485721394988810598459343458597,9120.0,1.54485721394988810598459343458597
152,9242.74618682086464293007190912715224,9241.2,1.54618682086464293007190912715224
153,9364.74750770599428843954870615487418,9363.2,1.54750770599428843954870615487418
154,9487.54881998311659357432930463505161,9486.0,1.54881998311659357432930463505161
155,9611.15012376379781200652244262383285,9609.6,1.55012376379781200652244262383285
156,9735.55141915744964693173651167350003,9734.0,1.55141915744964693173651167350003
157,9860.75270627138439239046393960175794,9859.2,1.55270627138439239046393960175794
158,9986.75398521086832293778862396487924,9985.2,1.55398521086832293778862396487924
159,10113.5552560791733953343951703706975,10112.0,1.5552560791733953343951703706975
160,10241.1565189776273285965688143010426,10239.6,1.5565189776273285965688143010426
161,10369.5577740056621209014555307401215,10368.0,1.5577740056621209014555307401215
162,10498.7590212608610628088377330127019,10497.2,1.5590212608610628088377330127019
163,10628.7602608390043016528819374787186,10627.2,1.5602608390043016528819374787186
164,10759.5614928341130117406130698154541,10758.0,1.5614928341130117406130698154541
165,10891.1627173384922189574971723097455,10889.6,1.5627173384922189574971723097455
166,11023.5639344427723302958876310490592,11022.0,1.5639344427723302958876310490592
167,11156.7651442359494155388249374352261,11155.2,1.5651442359494155388249374352261
168,11290.7663468054242837882782641666681,11289.2,1.5663468054242837882782641666681
169,11425.5675422370403999000961909524536,11424.0,1.5675422370403999000961909524536
170,11561.1687306151206805689650894645522,11559.6,1.5687306151206805689650894645522
171,11697.5699120225032102580202729351347,11696.0,1.5699120225032102580202729351347
172,11834.7710865405759148399575072339753,11833.2,1.5710865405759148399575072339753
173,11972.7722542493102283521683303325867,11971.2,1.5722542493102283521683303325867
174,12111.5734152272937887096117727079737,12110.0,1.5734152272937887096117727079737
175,12251.1745695517621963605552280635774,12249.6,1.5745695517621963605552280635774
176,12391.5757172986298655917439877312281,12390.0,1.5757172986298655917439877312281
177,12532.7768585425200017437465530871285,12531.2,1.5768585425200017437465530871285
178,12674.7779933567937334910854721592569,12673.2,1.5779933567937334910854721592569
179,12817.5791218135784266323192914630023,12816.0,1.5791218135784266323192914630023
180,12961.1802439837952103366974627612512,12959.6,1.5802439837952103366974627612512
181,13105.5813599371857384962016577416552,13104.0,1.5813599371857384962016577416552
182,13250.7824697423382138785922269466885,13249.2,1.5824697423382138785922269466885
183,13396.7835734667126981309708010443106,13395.2,1.5835734667126981309708010443106
184,13543.5846711766657318756374319786192,13542.0,1.5846711766657318756374319786192
185,13691.1857629374742867066140489355582,13689.6,1.5857629374742867066140489355582
186,13839.5868488133590700557034545886581,13838.0,1.5868488133590700557034545886581
187,13988.7879288675072067288416721638630,13987.2,1.5879288675072067288416721638630
188,14138.7890031620943125493190663442467,14137.2,1.5890031620943125493190663442467
189,14289.5900717583059838392271995479567,14288.0,1.5900717583059838392271995479567
190,14441.1911347163587183904787371418160,14439.6,1.5911347163587183904787371418160
191,14593.5921920955202871482298608478505,14592.0,1.5921920955202871482298608478505
192,14746.7932439541295729891879217988841,14745.2,1.5932439541295729891879217988841
193,14900.7942903496158948989396120332753,14899.2,1.5942903496158948989396120332753
194,15055.5953313385178308893742827957911,15054.0,1.5953313385178308893742827957911
195,15211.1963669765015575888588503644233,15209.6,1.5963669765015575888588503644233
196,15367.5973973183787201973672729718304,15366.0,1.5973973183787201973672729718304
197,15524.7984224181238471821962516861015,15523.2,1.5984224181238471821962516861015
198,15682.7994423288913238765605852992915,15681.2,1.5994423288913238765605852992915
199,15841.6004571030319378152459229668305,15840.0,1.6004571030319378152459229668305
200,16001.2014667921090097478463416089027,15999.6,1.6014667921090097478463416089027
201,16161.6024714469141213063396060026201,16160.0,1.6024714469141213063396060026201
202,16322.8034711174824527034961103769380,16321.2,1.6034711174824527034961103769380
203,16484.8044658531077411171883802383455,16483.2,1.6044658531077411171883802383455
204,16647.6054557023568713758638352034880,16646.0,1.6054557023568713758638352034880
205,16811.2064407130841089108929391717648,16809.6,1.6064407130841089108929391717648
206,16975.6074209324449879949055843025488,16974.0,1.6074209324449879949055843025488
207,17140.8083964069098611371592863118200,17139.2,1.6083964069098611371592863118200
208,17306.8093671822771238577726997996976,17305.2,1.6093671822771238577726997996976
209,17473.6103333036861205840894799253666,17472.0,1.6103333036861205840894799253666
210,17641.2112948156297431652164305338744,17639.6,1.6112948156297431652164305338744
211,17809.6122517619667293641461341625633,17808.0,1.6122517619667293641461341625633
212,17978.8132041859336715550498416120355,17977.2,1.6132041859336715550498416120355
213,18148.8141521301567400041013658574647,18147.2,1.6141521301567400041013658574647
214,18319.6150956366631357099953386745044,18318.0,1.6150956366631357099953386745044
215,18491.2160347468922720108770092147083,18489.6,1.6160347468922720108770092147083
216,18663.6169695017066989126351456175045,18662.0,1.6169695017066989126351456175045
217,18836.8178999414027740981031357241088,18835.2,1.6178999414027740981031357241088
218,19010.8188261057210895901326736158303,19009.2,1.6188261057210895901326736158303
219,19185.6197480338566573420018884244780,19184.0,1.6197480338566573420018884244780
220,19361.2206657644688662638178587592128,19359.6,1.6206657644688662638178587592128
221,19537.6215793356912085877518432132056,19536.0,1.6215793356912085877518432132056
222,19714.8224887851407927700275807076510,19713.2,1.6224887851407927700275807076510
223,19892.8233941499276364910630870700255,19891.2,1.6233941499276364910630870700255
224,20071.6242954666637548136430541633805,20070.0,1.6242954666637548136430541633805
225,20251.2251927714720460562569144337047,20249.6,1.6251927714720460562569144337047
226,20431.6260860999949789201462768749200,20430.0,1.6260860999949789201462768749200
227,20612.8269754874030895135233424690484,20611.2,1.6269754874030895135233424690484
228,20794.8278609684032900837907639818792,20793.2,1.6278609684032900837907639818792
229,20977.6287425772469966105460742091954,20976.0,1.6287425772469966105460742091954
230,21161.2296203477380799462621696912425,21159.6,1.6296203477380799462621696912425
231,21345.6304943132406422945764469600721,21344.0,1.6304943132406422945764469600721
232,21530.8313645066866294357827194754258,21529.2,1.6313645066866294357827194754258
233,21716.8322309605832736857192183594552,21715.2,1.6322309605832736857192183594552
234,21903.6330937070203837348232105868752,21902.0,1.6330937070203837348232105868752
235,22091.2339527776774745391683640558099,22089.6,1.6339527776774745391683640558099
236,22279.6348082038307469629876645696070,22278.0,1.6348082038307469629876645696070
237,22468.8356600163599207935578419775420,22467.2,1.6356600163599207935578419775420
238,22658.8365082457549228602200889340555,22657.2,1.6365082457549228602200889340555
