Eigenstate,Energy,Kinetic Energy,Potential Energy
1,0.500000000013626656346816826130246639,0.0,0.500000000013626656346816826130246639
2,1.84623093774006232036626512482110488,1.2,0.64623093774006232036626512482110488
3,3.93633760996625212155640481827206260,3.2,0.73633760996625212155640481827206260
4,6.79966527835844744916164706210635599,6.0,0.79966527835844744916164706210635599
5,10.4480465762283656667391963322973783,9.6,0.8480465762283656667391963322973783
6,14.8870659983289686517926641228796487,14.0,0.8870659983289686517926641228796487
7,20.1197208260976283464266044966979790,19.2,0.9197208260976283464266044966979790
8,26.1477838459108743937000456545860443,25.2,0.9477838459108743937000456545860443
9,32.9723835567747478442236100188171892,32.0,0.9723835567747478442236100188171892
10,40.5942802128376723362510228920142818,39.6,0.9942802128376723362510228920142818
11,49.0140093842405871389486565802483257,48.0,1.0140093842405871389486565802483257
12,58.2319621662880502107743309504690605,57.2,1.0319621662880502107743309504690605
13,68.2484326890458144425326169687996341,67.2,1.0484326890458144425326169687996341
14,79.0636476501969802334996751632291321,78.0,1.0636476501969802334996751632291321
15,90.6777854308561749754656345049045465,89.6,1.0777854308561749754656345049045465
16,103.090988900439994792328152640588488,102.0,1.090988900439994792328152640588488
17,116.303374250128506811679643210442341,115.2,1.103374250128506811679643210442341
18,130.315037243871447331202074689769352,129.2,1.115037243871447331202074689769352
19,145.126057741492198610619439559593232,144.0,1.126057741492198610619439559593232
20,160.736503036321724777381167098306011,159.6,1.136503036321724777381167098306011
21,177.146430361280268647543996659708906,176.0,1.146430361280268647543996659708906
22,194.355888800036091615476480967916399,193.2,1.155888800036091615476480967916399
23,212.364920764941998139704119878556549,211.2,1.164920764941998139704119878556549
24,231.173563154435757782213246218475518,230.0,1.173563154435757782213246218475518
25,250.781848269836031514091980757332962,249.6,1.181848269836031514091980757332962
26,271.189804549149959403859406467495159,270.0,1.189804549149959403859406467495159
27,292.397457160035736407514660724481835,291.2,1.197457160035736407514660724481835
28,314.404828483161652172824150122293240,313.2,1.204828483161652172824150122293240
29,337.211938509408042950652722854607705,336.0,1.211938509408042950652722854607705
30,360.818805168709116138098035810958732,359.6,1.218805168709116138098035810958732
31,385.225444604185669478996704837177663,384.0,1.225444604185669478996704837177663
32,410.431871402141827363288536446245657,409.2,1.231871402141827363288536446245657
33,436.438098786189268863070897862172073,435.2,1.238098786189268863070897862172073
34,463.244138782011875877380630948555336,462.0,1.244138782011875877380630948555336
35,490.850002357944534692323253589400353,489.6,1.250002357944534692323253589400353
36,519.255699545506345384843751935930577,518.0,1.255699545506345384843751935930577
37,548.461239543224408950096118417674336,547.2,1.261239543224408950096118417674336
38,578.466630806453943289371653486627744,577.2,1.266630806453943289371653486627744
39,609.271881125402630546143626805815511,608.0,1.271881125402630546143626805815511
40,640.876997693171277494333552464490563,639.6,1.276997693171277494333552464490563
41,673.281987165306120409258382514304330,672.0,1.281987165306120409258382514304330
42,706.486855712103113250273393995475929,705.2,1.286855712103113250273393995475929
43,740.491609064698051639258973917563275,739.2,1.291609064698051639258973917563275
44,775.296252555808291103636347275111050,774.0,1.296252555808291103636347275111050
45,810.900791155854248483634176564682024,809.6,1.300791155854248483634176564682024
46,847.305229505075739120962763284329256,846.0,1.305229505075739120962763284329256
47,884.509571942164725833744764237686977,883.2,1.309571942164725833744764237686977
48,922.513822529858469318322991564828990,921.2,1.313822529858469318322991564828990
49,961.317985077872407074685979667603731,960.0,1.317985077872407074685979667603731
50,1000.92206316349796523861265544266775,999.6,1.32206316349796523861265544266775
51,1041.32606015014504074117663858178171,1040.0,1.32606015014504074117663858178171
52,1082.52997920407054600196114178802010,1081.2,1.32997920407054600196114178802010
53,1124.53382330950195824379771044001872,1123.2,1.33382330950195824379771044001872
54,1167.33759528233725438539290109583364,1166.0,1.33759528233725438539290109583364
55,1210.94129778257913697570109973732404,1209.6,1.34129778257913697570109973732404
56,1255.34493332564138206378157069150002,1254.0,1.34493332564138206378157069150002
57,1300.54850429264794093276313302461507,1299.2,1.34850429264794093276313302461507
58,1346.55201293983063044025258010936936,1345.2,1.35201293983063044025258010936936
59,1393.35546140711849276025102426123460,1392.0,1.35546140711849276025102426123460
60,1440.95885172600088081394276717274894,1439.6,1.35885172600088081394276717274894
61,1489.36218582673676144921908750007607,1488.0,1.36218582673676144921908750007607
62,1538.56546554497442742368787694465672,1537.2,1.36546554497442742368787694465672
63,1588.56869262783856735690126522106459,1587.2,1.36869262783856735690126522106459
64,1639.37186873953533033761280528989922,1638.0,1.37186873953533033761280528989922
65,1690.97499546652048703190423308183772,1689.6,1.37499546652048703190423308183772
66,1743.37807432227094179896894176657501,1742.0,1.37807432227094179896894176657501
67,1796.58110675169558803001443449009230,1795.2,1.38110675169558803001443449009230
68,1850.58409413521774276493835470997474,1849.2,1.38409413521774276493835470997474
69,1905.38703779255808397070659389261752,1904.0,1.38703779255808397070659389261752
70,1960.98993898624408559709871545820617,1959.6,1.38993898624408559709871545820617
71,2017.39279892486934682175519210120830,2016.0,1.39279892486934682175519210120830
72,2074.59561876612391365408178742353007,2073.2,1.39561876612391365408178742353007
73,2132.59839961961463806116319498648252,2131.2,1.39839961961463806116319498648252
74,2191.40114254949280093028573753599996,2190.0,1.40114254949280093028573753599996
75,2251.00384857690459408156617369156403,2249.6,1.40384857690459408156617369156403
76,2311.40651868227860698742871678982538,2310.0,1.40651868227860698742871678982538
77,2372.60915380746316145725447224936870,2371.2,1.40915380746316145725447224936870
78,2434.61175485772517174734750788625732,2433.2,1.41175485772517174734750788625732
79,2497.41432270362116073636968622395039,2496.0,1.41432270362116073636968622395039
80,2561.01685818275012468075212055565771,2559.6,1.41685818275012468075212055565771
81,2625.41936210139708972311458629171213,2624.0,1.41936210139708972311458629171213
82,2690.62183523607544187617083428615212,2689.2,1.42183523607544187617083428615212
83,2756.62427833497542347080818370890451,2755.2,1.42427833497542347080818370890451
84,2823.42669211932556476531371176679131,2822.0,1.42669211932556476531371176679131
85,2891.02907728467326013654571921553672,2889.6,1.42907728467326013654571921553672
86,2959.43143450209018240845993354009335,2958.0,1.43143450209018240845993354009335
87,3028.63376441930777140260002744987084,3027.2,1.43376441930777140260002744987084
88,3098.63606766178760941742642309760228,3097.2,1.43606766178760941742642309760228
89,3169.43834483373111284119587496412553,3168.0,1.43834483373111284119587496412553
90,3241.04059651903262588637505732095809,3239.6,1.44059651903262588637505732095809
91,3313.44282328217968098152073673404104,3312.0,1.44282328217968098152073673404104
92,3386.64502566910390205901999678066337,3385.2,1.44502566910390205901999678066337
93,3460.64720420798576472202836982850729,3459.2,1.44720420798576472202836982850729
94,3535.44935941001618434520564398700969,3534.0,1.44935941001618434520564398700969
95,3611.05149177011768200982010773363444,3609.6,1.45149177011768200982010773363444
96,3687.45360176762767635167561562000627,3686.0,1.45360176762767635167561562000627
97,3764.65568986694626505820619846674557,3763.2,1.45568986694626505820619846674557
98,3842.65775651815068687678832437927504,3841.2,1.45775651815068687678832437927504
99,3921.45980215757850152413171191758541,3920.0,1.45980215757850152413171191758541
100,4001.06182720838137854619362152286442,3999.6,1.46182720838137854619362152286442
101,4081.46383208105125687390700250858138,4080.0,1.46383208105125687390700250858138
102,4162.66581717392051124529184801312173,4161.2,1.46581717392051124529184801312173
103,4244.66778287363765375090622734745540,4243.2,1.46778287363765375090622734745540
104,4327.46972955561999149488301645226095,4326.0,1.46972955561999149488301645226095
105,4411.07165758448456829004151681446153,4409.6,1.47165758448456829004151681446153
106,4495.47356731445862754131938841236195,4494.0,1.47356731445862754131938841236195
107,4580.67545908977075538981494678052495,4579.2,1.47545908977075538981494678052495
108,4666.67733324502378395017546978979302,4665.2,1.47733324502378395017546978979302
109,4753.47919010555046588053300184635233,4752.0,1.47919010555046588053300184635233
110,4841.08102998775286910406410161513008,4839.6,1.48102998775286910406410161513008
111,4929.48285319942637464005143660496538,4928.0,1.48285319942637464005143660496538
112,5018.68466004006911106869166802368400,5017.2,1.48466004006911106869166802368400
113,5108.68645080117760361809999594741151,5107.2,1.48645080117760361809999594741151
114,5199.48822576652936710420538700203416,5198.0,1.48822576652936710420538700203416
115,5291.08998521245313150572793873433782,5289.6,1.48998521245313150572793873433782
116,5383.49172940808734062478162095898625,5382.0,1.49172940808734062478162095898625
117,5476.69345861562753257063886315319324,5475.2,1.49345861562753257063886315319324
118,5570.69517309056316977308788185119384,5569.2,1.49517309056316977308788185119384
119,5665.49687308190445251809737058362825,5664.0,1.49687308190445251809737058362825
120,5761.09855883239962415626815309065667,5759.6,1.49855883239962415626815309065667
121,5857.50023057874323786730720583637644,5856.0,1.50023057874323786730720583637644
122,5954.70188855177583595062665857567490,5953.2,1.50188855177583595062665857567490
123,6052.70353297667546041923838089147482,6051.2,1.50353297667546041923838089147482
124,6151.50516407314139599430610297652728,6150.0,1.50516407314139599430610297652728
125,6251.10678205557051703145391518074654,6249.6,1.50678205557051703145391518074654
126,6351.50838713322659471263242392962191,6350.0,1.50838713322659471263242392962191
127,6452.70997951040290025945745301738656,6451.2,1.50997951040290025945745301738656
128,6554.71155938657841733674627898657603,6553.2,1.51155938657841733674627898657603
129,6657.51312695656796474173829976842973,6656.0,1.51312695656796474173829976842973
130,6761.11468241066651209261974971302332,6759.6,1.51468241066651209261974971302332
131,6865.51622593478795582585400613940109,6864.0,1.51622593478795582585400613940109
132,6970.71775771059860783461821479574380,6969.2,1.51775771059860783461821479574380
133,7076.71927791564563729906308964426019,7075.2,1.51927791564563729906308964426019
134,7183.52078672348069498315372782940346,7182.0,1.52078672348069498315372782940346
135,7291.12228430377893116450693631598658,7289.6,1.52228430377893116450693631598658
136,7399.52377082245361467611017082961065,7398.0,1.52377082245361467611017082961065
137,7508.72524644176654723086351664957744,7507.2,1.52524644176654723086351664957744
138,7618.72671132043445358789565612745930,7617.2,1.52671132043445358789565612745930
139,7729.52816561373152601369907219546751,7728.0,1.52816561373152601369907219546751
140,7841.12960947358828604516148842199636,7839.6,1.52960947358828604516148842199636
141,7953.53104304868692200408063784695682,7952.0,1.53104304868692200408063784695682
142,8066.73246648455325263948226138186201,8065.2,1.53246648455325263948226138186201
143,8180.73387992364545862389207844730009,8179.2,1.53387992364545862389207844730009
144,8295.53528350543971645007535311307126,8294.0,1.53528350543971645007535311307126
145,8411.13667736651286508699872434199706,8409.6,1.53667736651286508699872434199706
146,8527.53806164062222788501790747414622,8526.0,1.53806164062222788501790747414622
147,8644.73943645878270401732894922436157,8643.2,1.53943645878270401732894922436157
148,8762.74080194934124478668739271950597,8761.2,1.54080194934124478668739271950597
149,8881.54215823804881659832533022494329,8880.0,1.54215823804881659832533022494329
150,9001.14350544812995423991927057982755,8999.6,1.54350544812995423991927057982755
151,9121.54484370035000038283781081477214,9120.0,1.54484370035000038283781081477214
152,9242.74617311308012160381359481645982,9241.2,1.54617311308012160381359481645982
153,9364.74749380236018987670727002897000,9363.2,1.54749380236018987670727002897000
154,9487.54880588195961343357925430835130,9486.0,1.54880588195961343357925430835130
155,9611.15010946343619523103521290648523,9609.6,1.55010946343619523103521290648523
156,9735.55140465619309688818120659249724,9734.0,1.55140465619309688818120659249724
157,9860.75269156753397914276438044269358,9859.2,1.55269156753397914276438044269358
158,9986.75397030271639064357256697752353,9985.2,1.55397030271639064357256697752353
159,10113.5552409650034687518982104605281,10112.0,1.5552409650034687518982104605281
160,10241.1565036557140186895763019983606,10239.6,1.5565036557140186895763019983606
161,10369.5577584742710295296872284390211,10368.0,1.5577584742710295296872284390211
162,10498.7590055182486864909958357197157,10497.2,1.5590055182486864909958357197157
163,10628.7602448834179343893960652309102,10627.2,1.5602448834179343893960652309102
164,10759.5614766637906468829260066184977,10758.0,1.5614766637906468829260066184977
165,10891.1627009516624501105409139107088,10889.6,1.5627009516624501105409139107088
166,11023.5639178376542512402029561617211,11022.0,1.5639178376542512402029561617211
167,11156.7651274107525191585769671956083,11155.2,1.5651274107525191585769671956083
168,11290.7663297583483599912156353111968,11289.2,1.5663297583483599912156353111968
169,11425.5675249662754325152946600334875,11424.0,1.5675249662754325152946600334875
170,11561.1687131188467432079833929036132,11559.6,1.5687131188467432079833929036132
171,11697.5698942988903611248816847250624,11696.0,1.5698942988903611248816847250624
172,11834.7710685877840904751506817308866,11833.2,1.5710685877840904751506817308866
173,11972.7722360654891362956381628736765,11971.2,1.5722360654891362956381628736765
174,12111.5733968105827990674822474636452,12110.0,1.5733968105827990674822474636452
175,12251.1745509002902322600962707162636,12249.6,1.5745509002902322600962707162636
176,12391.5756984105152925088574108319965,12390.0,1.5756984105152925088574108319965
177,12532.7768394158705156870063359273384,12531.2,1.5768394158705156870063359273384
178,12674.7779739897062480261237465869129,12673.2,1.5779739897062480261237465869129
179,12817.5791022041389587300993785127160,12816.0,1.5791022041389587300993785127160
180,12961.1802241300787650289620223093446,12959.6,1.5802241300787650289620223093446
181,13105.5813398372561923211263640960329,13104.0,1.5813398372561923211263640960329
182,13250.7824493942481970994116354689216,13249.2,1.5824493942481970994116354689216
183,13396.7835528685034757100755702981391,13395.2,1.5835528685034757100755702981391
184,13543.5846503263670831863691854138365,13542.0,1.5846503263670831863691854138365
185,13691.1857418331043839647051350602966,13689.6,1.5857418331043839647051350602966
186,13839.5868274529243554520283499789140,13838.0,1.5868274529243554520283499789140
187,13988.7879072490022682448555305689430,13987.2,1.5879072490022682448555305689430
188,14138.7889812835017584362670663638633,14137.2,1.5889812835017584362670663638633
189,14289.5900496175963157419079936236219,14288.0,1.5900496175963157419079936236219
190,14441.1911123114902030960415598207109,14439.6,1.5911123114902030960415598207109
191,14593.5921694244388269401726851224835,14592.0,1.5921694244388269401726851224835
192,14746.7932210147685745864090512876804,14745.2,1.5932210147685745864090512876804
193,14900.7942671398961369593719719605018,14899.2,1.5942671398961369593719719605018
194,15055.5953078563473300574032248100071,15054.0,1.5953078563473300574032248100071
195,15211.1963432197754330653895221642354,15209.6,1.5963432197754330653895221642354
196,15367.5973732849790568110669934735677,15366.0,1.5973732849790568110669934735677
197,15524.7983981059195569400885312797579,15523.2,1.5983981059195569400885312797579
198,15682.7994177357380059717948491294489,15681.2,1.5994177357380059717948491294489
199,15841.6004322267717370695042828050166,15840.0,1.6004322267717370695042828050166
200,16001.2014416305704734654820205919755,15999.6,1.6014416305704734654820205919755
201,16161.6024459979120545169671747052148,16160.0,1.6024459979120545169671747052148
202,16322.8034453788177717693685752889203,16321.2,1.6034453788177717693685752889203
203,16484.8044398225673256813110010142615,16483.2,1.6044398225673256813110010142615
204,16647.6054293777134146263928913176664,16646.0,1.6054293777134146263928913176664
205,16811.2064140920959661369672561886160,16809.6,1.6064140920959661369672561886160
206,16975.6073940128560234086421909793849,16974.0,1.6073940128560234086421909793849
207,17140.8083691864492929361261642937177,17139.2,1.6083691864492929361261642937177
208,17306.8093396586593675018222438262422,17305.2,1.6093396586593675018222438262422
209,17473.6103054746106302599984508421977,17472.0,1.6103054746106302599984508421977
210,17641.2112666787808514121328452195923,17639.6,1.6112666787808514121328452195923
211,17809.6122233150134848323893530289151,17808.0,1.6122233150134848323893530289151
212,17978.8131754265296748703459752988512,17977.2,1.6131754265296748703459752988512
213,18148.8141230559399777088628305243330,18147.2,1.6141230559399777088628305243330
214,18319.6150662452558122527732279162286,18318.0,1.6150662452558122527732279162286
215,18491.2160050359006397546219051531429,18489.6,1.6160050359006397546219051531429
216,18663.6169394687208861319005309033724,18662.0,1.6169394687208861319005309033724
217,18836.8178695839966109348154026566046,18835.2,1.6178695839966109348154026566046
218,19010.8187954214519319370297965426313,19009.2,1.6187954214519319370297965426313
219,19185.6197170202652086223093220229032,19184.0,1.6197170202652086223093220229032
220,19361.2206344190789970751904243508706,19359.6,1.6206344190789970751904243508706
221,19537.6215476560097741779540682737138,19536.0,1.6215476560097741779540682737138
222,19714.8224567686574483112622177970750,19713.2,1.6224567686574483112622177970750
223,19892.8233617941146501192802720895610,19891.2,1.6233617941146501192802720895610
224,20071.6242627689758183985755572021732,20070.0,1.6242627689758183985755572021732
225,20251.2251597293460836673261627151413,20249.6,1.6251597293460836673261627151413
226,20431.6260527108499529527726875891519,20430.0,1.6260527108499529527726875891519
227,20612.8269417486398044397509315372090,20611.2,1.6269417486398044397509315372090
228,20794.8278268774041937904964259831566,20793.2,1.6278268774041937904964259831566
229,20977.6287081313759792878555884541213,20976.0,1.6287081313759792878555884541213
230,21161.2295855443402704881313692870180,21159.6,1.6295855443402704881313692870180
231,21345.6304591496422021728172715501441,21344.0,1.6304591496422021728172715501441
232,21530.8313289801945440081237860791019,21529.2,1.6313289801945440081237860791019
233,21716.8321950684851408977848772747911,21715.2,1.6321950684851408977848772747911
234,21903.6330574465842001751933979982449,21902.0,1.6330574465842001751933979982449
235,22091.2339161461514188059483219081470,22089.6,1.6339161461514188059483219081470
236,22279.6347711984429602995647175695926,22278.0,1.6347711984429602995647175695926
237,22468.8356226343182849504558340134352,22467.2,1.6356226343182849504558340134352
238,22658.8364704842468351391804348636219,22657.2,1.6364704842468351391804348636219
