Eigenstate,Energy,Kinetic Energy,Potential Energy
1,0.500000000041827953307662933624524537,0.0,0.500000000041827953307662933624524537
2,1.84623093792414571652721175141214715,1.2,0.64623093792414571652721175141214715
3,3.93633761050698236428930821320880403,3.2,0.73633761050698236428930821320880403
4,6.79966527948472714519204758211107807,6.0,0.79966527948472714519204758211107807
5,10.4480465781793133362098267914308603,9.6,0.8480465781793133362098267914308603
6,14.8870660013478881506483652249342483,14.0,0.8870660013478881506483652249342483
7,20.1197208304297865567225738799839990,19.2,0.9197208304297865567225738799839990
8,26.1477838518025741296060178012919339,25.2,0.9477838518025741296060178012919339
9,32.9723835644728964777756710021316480,32.0,0.9723835644728964777756710021316480
10,40.5942802225895626028250463443887995,39.6,0.9942802225895626028250463443887995
11,49.0140093962937778271886776668708503,48.0,1.0140093962937778271886776668708503
12,58.2319621808902977520626281485088428,57.2,1.0319621808902977520626281485088428
13,68.2484327064450322103056048754064934,67.2,1.0484327064450322103056048754064934
14,79.0636476706412137895737230950252739,78.0,1.0636476706412137895737230950252739
15,90.6777854545935869368501909193969993,89.6,1.0777854545935869368501909193969993
16,103.090988927718855741124496239703604,102.0,1.090988927718855741124496239703604
17,116.303374281197190135912019499709295,115.2,1.103374281197190135912019499709295
18,130.315037278978426701824724497044346,129.2,1.115037278978426701824724497044346
19,145.126057780886047274474456531370944,144.0,1.126057780886047274474456531370944
20,160.736503080251116131204564081106196,159.6,1.136503080251116131204564081106196
21,177.146430409993977735091950582110128,176.0,1.146430409993977735091950582110128
22,194.355888853782997302699902733726829,193.2,1.155888853782997302699902733726829
23,212.364920823971085796678822895190640,211.2,1.164920823971085796678822895190640
24,231.173563218996122349857959906154778,230.0,1.173563218996122349857959906154778
25,250.781848340176880867358031792498810,249.6,1.181848340176880867358031792498810
26,271.189804625520617946461415366746546,270.0,1.189804625520617946461415366746546
27,292.397457242685648849798664904739075,291.2,1.197457242685648849798664904739075
28,314.404828572340387456230961580186791,313.2,1.204828572340387456230961580186791
29,337.211938605365298290868626277404726,336.0,1.211938605365298290868626277404726
30,360.818805271694721165352721209617957,359.6,1.218805271694721165352721209617957
31,385.225444714449590458721650199065463,384.0,1.225444714449590458721650199065463
32,410.431871519934171483937131794477291,409.2,1.231871519934171483937131794477291
33,436.438098911760288580638482402370065,435.2,1.238098911760288580638482402370065
34,463.244138915611973308270512612091076,462.0,1.244138915611973308270512612091076
35,490.850002499824266047843073428088889,489.6,1.250002499824266047843073428088889
36,519.255699695916425441900634702774961,518.0,1.255699695916425441900634702774961
37,548.461239702415715553673637256142583,547.2,1.261239702415715553673637256142583
38,578.466630974677521883179203139346079,577.2,1.266630974677521883179203139346079
39,609.271881302909698728476163057230043,608.0,1.271881302909698728476163057230043
40,640.876997880213229596702118176391299,639.6,1.276997880213229596702118176391299
41,673.281987362134532095776013752390955,672.0,1.281987362134532095776013752390955
42,706.486855918969746136127572824328714,705.2,1.286855918969746136127572824328714
43,740.491609281854857926886498631292066,739.2,1.291609281854857926886498631292066
44,775.296252783507418235451588455147921,774.0,1.296252783507418235451588455147921
45,810.900791394348043810356888277413508,809.6,1.300791394348043810356888277413508
46,847.305229754616754584754473338613543,846.0,1.305229754616754584754473338613543
47,884.509572203005722665499187901803478,883.2,1.309572203005722665499187901803478
48,922.513822802252422748570839621812072,921.2,1.313822802252422748570839621812072
49,961.317985362072511057671613406240680,960.0,1.317985362072511057671613406240680
50,1000.92206345975763718918249101956829,999.6,1.32206345975763718918249101956829
51,1041.32606045871792628418950583182816,1040.0,1.32606045871792628418950583182816
52,1082.52997952521052373399088710228138,1081.2,1.32997952521052373399088710228138
53,1124.53382364346314450694995681276231,1123.2,1.33382364346314450694995681276231
54,1167.33759562937400805310239079715776,1166.0,1.33759562937400805310239079715776
55,1210.94129814294606425041451022675302,1209.6,1.34129814294606425041451022675302
56,1255.34493369959334128646409468150235,1254.0,1.34493369959334128646409468150235
57,1300.54850468044004740419613498600671,1299.2,1.34850468044004740419613498600671
58,1346.55201334171826125411515865074040,1345.2,1.35201334171826125411515865074040
59,1393.35546182335729164800043958251031,1392.0,1.35546182335729164800043958251031
60,1440.95885215684676300152834625185283,1439.6,1.35885215684676300152834625185283
61,1489.36218627244591852568142683004201,1488.0,1.36218627244591852568142683004201
62,1538.56546600580333222171052166151783,1537.2,1.36546600580333222171052166151783
63,1588.56869310404397884539552560187254,1587.2,1.36869310404397884539552560187254
64,1639.37186923137429852642844168839819,1638.0,1.37186923137429852642844168839819
65,1690.97499597425035788876960025184297,1689.6,1.37499597425035788876960025184297
66,1743.37807484614936217877377467888725,1742.0,1.37807484614936217877377467888725
67,1796.58110729198051061655717549687365,1795.2,1.38110729198051061655717549687365
68,1850.58409469216743102526773452495361,1849.2,1.38409469216743102526773452495361
69,1905.38703836643111712219435975576130,1904.0,1.38703836643111712219435975576130
70,1960.98993957729936358738665164057697,1959.6,1.38993957729936358738665164057697
71,2017.39279953336609532172568675324416,2016.0,1.39279953336609532172568675324416
72,2074.59561939232168906400630960092339,2073.2,1.39561939232168906400630960092339
73,2132.59840026377333253018817093317416,2131.2,1.39840026377333253018817093317416
74,2191.40114321187264738941970589237331,2190.0,1.40114321187264738941970589237331
75,2251.00384925776617129033636429919637,2249.6,1.40384925776617129033636429919637
76,2311.40651938188284459437899950439941,2310.0,1.40651938188284459437899950439941
77,2372.60915452607134507446027741461543,2371.2,1.40915452607134507446027741461543
78,2434.61175559559894803912666910560788,2433.2,1.41175559559894803912666910560788
79,2497.41432346102254252237134731467984,2496.0,1.41432346102254252237134731467984
80,2561.01685895994149605360871886016641,2559.6,1.41685895994149605360871886016641
81,2625.41936289864121118084483361067704,2624.0,1.41936289864121118084483361067704
82,2690.62183605363545546952422551292621,2689.2,1.42183605363545546952422551292621
83,2756.62427917311485796574404854276843,2755.2,1.42427917311485796574404854276843
84,2823.42669297830834082081028969619344,2822.0,1.42669297830834082081028969619344
85,2891.02907816476369549793701623548268,2889.6,1.42907816476369549793701623548268
86,2959.43143540355299711650028201092671,2958.0,1.43143540355299711650028201092671
87,3028.63376534240809301845849782680742,3027.2,1.43376534240809301845849782680742
88,3098.63606860679097826381522434831278,3097.2,1.43606860679097826381522434831278
89,3169.43834580090348725983887829888060,3168.0,1.43834580090348725983887829888060
90,3241.04059750864038751202452198486066,3239.6,1.44059750864038751202452198486066
91,3313.44282429448964003273224668246836,3312.0,1.44282429448964003273224668246836
92,3386.64502670438330264589739582344640,3385.2,1.44502670438330264589739582344640
93,3460.64720526650229017115234269736219,3459.2,1.44720526650229017115234269736219
94,3535.44936049203796254196134601033529,3534.0,1.44936049203796254196134601033529
95,3611.05149287591329075834103119676181,3609.6,1.45149287591329075834103119676181
96,3687.45360289746614875262249819697304,3686.0,1.45360289746614875262249819697304
97,3764.65569102109709490460167477318152,3763.2,1.45569102109709490460167477318152
98,3842.65775769688383406812947356776621,3841.2,1.45775769688383406812947356776621
99,3921.45980336116439749900456591807023,3920.0,1.45980336116439749900456591807023
100,4001.06182843709093173361515484174004,3999.6,1.46182843709093173361515484174004
101,4081.46383333515585816362192779776498,4080.0,1.46383333515585816362192779776498
102,4162.66581845369203947725313496060889,4161.2,1.46581845369203947725313496060889
103,4244.66778417934848122416981287843685,4243.2,1.46778417934848122416981287843685
104,4327.46973088754298949614905576339718,4326.0,1.46973088754298949614905576339718
105,4411.07165894289311264207589705799029,4409.6,1.47165894289311264207589705799029
106,4495.47356869962660417149104937570827,4494.0,1.47356869962660417149104937570827
107,4580.67546050197256591898612265100188,4579.2,1.47546050197256591898612265100188
108,4666.67733468453435130218360098493742,4665.2,1.47733468453435130218360098493742
109,4753.47919157264523991250481575672325,4752.0,1.47919157264523991250481575672325
110,4841.08103148270783225780389289538978,4839.6,1.48103148270783225780389289538978
111,4929.48285472251804761474733943690642,4928.0,1.48285472251804761474733943690642
112,5018.68466159157455851518537953392668,5017.2,1.48466159157455851518537953392668
113,5108.68645238137443985496703205485697,5107.2,1.48645238137443985496703205485697
114,5199.48822737569576185589472554136140,5198.0,1.48822737569576185589472554136140
115,5291.08998685086781566301158862016845,5289.6,1.48998685086781566301158862016845
116,5383.49173107602961202776637351707291,5382.0,1.49173107602961202776637351707291
117,5476.69346031337726181459421920980865,5475.2,1.49346031337726181459421920980865
118,5570.69517481840080603734586058005811,5569.2,1.49517481840080603734586058005811
119,5665.49687484011102941828171396675500,5664.0,1.49687484011102941828171396675500
120,5761.09856062125676562011226692228781,5759.6,1.49856062125676562011226692228781
121,5857.50023239853316403432185167849929,5856.0,1.50023239853316403432185167849929
122,5954.70189040278136909588028336788400,5953.2,1.50189040278136909588028336788400
123,6052.70353485918003090151484463496353,6051.2,1.50353485918003090151484463496353
124,6151.50516598742904822890628283606908,6150.0,1.50516598742904822890628283606908
125,6251.10678400192591548790964273294414,6249.6,1.50678400192591548790964273294414
126,6351.50838911193502993760307206824530,6350.0,1.50838911193502993760307206824530
127,6452.70998152175029492508131872219305,6451.2,1.50998152175029492508131872219305
128,6554.71156143085133231472092358827465,6553.2,1.51156143085133231472092358827465
129,6657.51312903405360520340588951219309,6656.0,1.51312903405360520340588951219309
130,6761.11468452165273363533536860150970,6759.6,1.51468452165273363533536860150970
131,6865.51622807956327062591691363200074,6864.0,1.51622807956327062591691363200074
132,6970.71775988945219082704819211396884,6969.2,1.51775988945219082704819211396884
133,7076.71928012886733238450564047006147,7075.2,1.51928012886733238450564047006147
134,7183.52078897136102126220033260045810,7182.0,1.52078897136102126220033260045810
135,7291.12228658660908919971851498763575,7289.6,1.52228658660908919971851498763575
136,7399.52377314052549278203379194025525,7398.0,1.52377314052549278203379194025525
137,7508.72524879537272779233481398083956,7507.2,1.52524879537272779233481398083956
138,7618.72671370986821940692130906421970,7617.2,1.52671370986821940692130906421970
139,7729.52816803928686668521598921207023,7728.0,1.52816803928686668521598921207023
140,7841.12961193555990436197148782708608,7839.6,1.52961193555990436197148782708608
141,7953.53104554737024039126153298314687,7952.0,1.53104554737024039126153298314687
142,8066.73246902024441961857866637795314,8065.2,1.53246902024441961857866637795314
143,8180.73388249664135530719129145322888,8179.2,1.53388249664135530719129145322888
144,8295.53528611603796306527621525490428,8294.0,1.53528611603796306527621525490428
145,8411.13668001501182753258334519064637,8409.6,1.53668001501182753258334519064637
146,8527.53806432732102431663874881092019,8526.0,1.53806432732102431663874881092019
147,8644.73943918398121146552598606123532,8643.2,1.53943918398121146552598606123532
148,8762.74080471334010580625245416189974,8761.2,1.54080471334010580625245416189974
149,8881.54216104114944594963321620149307,8880.0,1.54216104114944594963321620149307
150,9001.14350829063454560254747007466821,8999.6,1.54350829063454560254747007466821
151,9121.54484658256153310179949535895313,9120.0,1.54484658256153310179949535895313
152,9242.74617603530236746873066351630510,9241.2,1.54617603530236746873066351630510
153,9364.74749676489771993425298098626766,9363.2,1.54749676489771993425298098626766
154,9487.54880888511780483352236694789987,9486.0,1.54880888511780483352236694789987
155,9611.15011250752123810622029537692653,9609.6,1.55011250752123810622029537692653
156,9735.55140774151200126878239556630857,9734.0,1.55140774151200126878239556630857
157,9860.75269469439458190515231970394236,9859.2,1.55269469439458190515231970394236
158,9986.75397347142736249413705499760801,9985.2,1.55397347142736249413705499760801
159,10113.5552441758743212461718397749849,10112.0,1.5552441758743212461718397749849
160,10241.1565069090551112870069604331106,10239.6,1.5565069090551112870069604331106
161,10369.5577617703935766844102676057573,10368.0,1.5577617703935766844102676057573
162,10498.7590088574647647789593822698137,10497.2,1.5590088574647647789593822698137
163,10628.7602482660404896721957186389154,10627.2,1.5602482660404896721957186389154
164,10759.5614800901335015087082103603996,10758.0,1.5614800901335015087082103603996
165,10891.1627044220403101523371891715632,10889.6,1.5627044220403101523371891715632
166,11023.5639213523827137720597893189258,11022.0,1.5639213523827137720597893189258
167,11156.7651309701480795698494520711590,11155.2,1.5651309701480795698494520711590
168,11290.7663333627284193393958926979556,11289.2,1.5663333627284193393958926979556
169,11425.5675286159583049177488243158247,11424.0,1.5675286159583049177488243158247
170,11561.1687168141516632729745131612665,11559.6,1.5687168141516632729745131612665
171,11697.5698980401374914222584433220917,11696.0,1.5698980401374914222584433220917
172,11834.7710723752945290470853647474083,11833.2,1.5710723752945290470853647474083
173,11972.7722398995849242078002728623757,11971.2,1.5722398995849242078002728623757
174,12111.5734006915869280010374309587082,12110.0,1.5734006915869280010374309587082
175,12251.1745548285266521449235065486418,12249.6,1.5745548285266521449235065486418
176,12391.5757023863089191983806119849302,12390.0,1.5757023863089191983806119849302
177,12532.7768434395472386750398561453268,12531.2,1.5768434395472386750398561453268
178,12674.7779780615929382061347332590750,12673.2,1.5779780615929382061347332590750
179,12817.5791063245634761972930714388774,12816.0,1.5791063245634761972930714388774
180,12961.1802282993699669255998554304901,12959.6,1.5802282993699669255998554304901
181,13105.5813440557439407254899225486752,13104.0,1.5813440557439407254899225486752
182,13250.7824536622633669588292022925740,13249.2,1.5824536622633669588292022925740
183,13396.7835571863779628184314251056812,13395.2,1.5835571863779628184314251056812
184,13543.5846546944338122065195086604970,13542.0,1.5846546944338122065195086604970
185,13691.1857462516973164962281052271579,13689.6,1.5857462516973164962281052271579
186,13839.5868319223784981447392918134683,13838.0,1.5868319223784981447392918134683
187,13988.7879117696536809585222509479480,13987.2,1.5879117696536809585222509479480
188,14138.7889858556875624469637775585647,14137.2,1.5889858556875624469637775585647
189,14289.5900542416547019954504215319831,14288.0,1.5900542416547019954504215319831
190,14441.1911169877604405089493923553919,14439.6,1.5911169877604405089493923553919
191,14593.5921741532612707486096030011979,14592.0,1.5921741532612707486096030011979
192,14746.7932257964846747435544230977131,14745.2,1.5932257964846747435544230977131
193,14900.7942719748484465816823164050982,14899.2,1.5942719748484465816823164050982
194,15055.5953127448795139202255992265810,15054.0,1.5953127448795139202255992265810
195,15211.1963481622322761483929643447865,15209.6,1.5963481622322761483929643447865
196,15367.5973782817064728939624094193815,15366.0,1.5973782817064728939624094193815
197,15524.7984031572645972491115710149432,15523.2,1.5984031572645972491115710149432
198,15682.7994228420488678774303298239605,15681.2,1.5994228420488678774303298239605
199,15841.6004373883977728359354146430236,15840.0,1.6004373883977728359354146430236
200,16001.2014468478621990522515367525119,15999.6,1.6014468478621990522515367525119
201,16161.6024512712211584333420618083878,16160.0,1.6024512712211584333420618083878
202,16322.8034507084971239819046862903666,16321.2,1.6034507084971239819046862903666
203,16484.8044452089709865751179106710008,16483.2,1.6044452089709865751179106710008
204,16647.6054348211966440206043176269207,16646.0,1.6054348211966440206043176269207
205,16811.2064195930152323549264603843395,16809.6,1.6064195930152323549264603843395
206,16975.6073995715690124033168937399210,16974.0,1.6073995715690124033168937399210
207,17140.8083748033149174712717981293990,17139.2,1.6083748033149174712717981293990
208,17306.8093453340377763894174322508826,17305.2,1.6093453340377763894174322508826
209,17473.6103112088632176544810774923578,17472.0,1.6103112088632176544810774923578
210,17641.2112724722702661619701969983327,17639.6,1.6112724722702661619701969983327
211,17809.6122291681036398895205357372901,17808.0,1.6122291681036398895205357372901
212,17978.8131813395857567580398160893677,17977.2,1.6131813395857567580398160893677
213,18148.8141290293284560485396403600755,18147.2,1.6141290293284560485396403600755
214,18319.6150722793444493503436303291080,18318.0,1.6150722793444493503436303291080
215,18491.2160111310585002469012135024412,18489.6,1.6160111310585002469012135024412
216,18663.6169456253183466936624780962426,18662.0,1.6169456253183466936624780962426
217,18836.8178758024053700470539838814507,18835.2,1.6178758024053700470539838814507
218,19010.8188017020450197170035219797522,19009.2,1.6188017020450197170035219797522
219,19185.6197233634169967159475577392577,19184.0,1.6197233634169967159475577392577
220,19361.2206408251652086124468546998241,19359.6,1.6206408251652086124468546998241
221,19537.6215541254074937916978749609656,19536.0,1.6215541254074937916978749609656
222,19714.8224633017451322203031190608938,19713.2,1.6224633017451322203031190608938
223,19892.8233683912721362761292618848526,19891.2,1.6233683912721362761292618848526
224,20071.6242694305843367025487501215284,20070.0,1.6242694305843367025487501215284
225,20251.2251664557882662436051634140893,20249.6,1.6251664557882662436051634140893
226,20431.6260595025098444980405472793468,20430.0,1.6260595025098444980405472793468
227,20612.8269486059028726350285900985674,20611.2,1.6269486059028726350285900985674
228,20794.8278338006573397818109100622291,20793.2,1.6278338006573397818109100622291
229,20977.6287151210075482353767659769376,20976.0,1.6287151210075482353767659769376
230,21161.2295926007400621844206203196533,21159.6,1.6295926007400621844206203196533
231,21345.6304662732014817308373329858669,21344.0,1.6304662732014817308373329858669
232,21530.8313361713060526196654950093429,21529.2,1.6313361713060526196654950093429
233,21716.8322023275431066629727293524971,21715.2,1.6322023275431066629727293524971
234,21903.6330647739843490037384388181106,21902.0,1.6330647739843490037384388181106
235,22091.2339235422909853908230769285510,22089.6,1.6339235422909853908230769285510
236,22279.6347786637206991637817673368249,22278.0,1.6347786637206991637817673368249
237,22468.8356301691344815676381847813289,22467.2,1.6356301691344815676381847813289
238,22658.8364780890033171286184349397946,22657.2,1.6364780890033171286184349397946
