Eigenstate,Energy,Kinetic Energy,Potential Energy
1,0.500000002008114885891357810781796282,0.0,0.500000002008114885891357810781796282
2,1.84623095075969157804579978905131022,1.2,0.64623095075969157804579978905131022
3,3.93633764821332522729838148241055388,3.2,0.73633764821332522729838148241055388
4,6.79966535803118950674719521935169673,6.0,0.79966535803118950674719521935169673
5,10.4480467142565275586532209363384989,9.6,0.8480467142565275586532209363384989
6,14.8870662119504378117882619670190349,14.0,0.8870662119504378117882619670190349
7,20.1197211327043809196755684067416222,19.2,0.9197211327043809196755684067416222
8,26.1477842629865388697260149667115667,25.2,0.9477842629865388697260149667115667
9,32.9723841018672384113212019314967071,32.0,0.9723841018672384113212019314967071
10,40.5942809035468403132404787050497106,39.6,0.9942809035468403132404787050497106
11,49.0140102382129499209687271979558868,48.0,1.0140102382129499209687271979558868
12,58.2319632012151347676557437993151893,57.2,1.0319632012151347676557437993151893
13,68.2484339226644767981596875947102756,67.2,1.0484339226644767981596875947102756
14,79.0636491002908705513867015318114837,78.0,1.0636491002908705513867015318114837
15,90.6777871152579023907982481627561736,89.6,1.0777871152579023907982481627561736
16,103.090990837033740591999156242734198,102.0,1.090990837033740591999156242734198
17,116.303376456852938221506937317125253,115.2,1.103376456852938221506937317125253
18,130.315039738722842006842329719582260,129.2,1.115039738722842006842329719582260
19,145.126060542527723516511390771749578,144.0,1.126060542527723516511390771749578
20,160.736506161662833344239713638764663,159.6,1.136506161662833344239713638764663
21,177.146433829116192642783862216453508,176.0,1.146433829116192642783862216453508
22,194.355892628627412170898671998277471,193.2,1.155892628627412170898671998277471
23,212.364924972624285628107948975417744,211.2,1.164924972624285628107948975417744
24,231.173567759623273753681974202645221,230.0,1.173567759623273753681974202645221
25,250.781853291025488314702902654252854,249.6,1.181853291025488314702902654252854
26,271.189810004924334787039603031668003,270.0,1.189810004924334787039603031668003
27,292.397463069068141652305697213243503,291.2,1.197463069068141652305697213243503
28,314.404834864219253099107672406881065,313.2,1.204834864219253099107672406881065
29,337.211945381356033870750188188647944,336.0,1.211945381356033870750188188647944
30,360.818812550514747275107670549236977,359.6,1.218812550514747275107670549236977
31,385.225452514922328760961578341412977,384.0,1.225452514922328760961578341412977
32,410.431879860993177800649578692140038,409.2,1.231879860993177800649578692140038
33,436.438107812453442957133294139533180,435.2,1.238107812453442957133294139533180
34,463.244148395105728705504521536142699,462.0,1.244148395105728705504521536142699
35,490.850012577407957482597438292379419,489.6,1.250012577407957482597438292379419
36,519.255710391006641537347300861956999,518.0,1.255710391006641537347300861956999
37,548.461251034560734589582711220878899,547.2,1.261251034560734589582711220878899
38,578.466642963561814549827526859111036,577.2,1.266642963561814549827526859111036
39,609.271893968358499894582407858450764,608.0,1.271893968358499894582407858450764
40,640.877011242197181501978725578178236,639.6,1.277011242197181501978725578178236
41,673.282001440774401474929259011046958,672.0,1.282001440774401474929259011046958
42,706.486870734541217874885663282452662,705.2,1.286870734541217874885663282452662
43,740.491624854793407943107948558369561,739.2,1.291624854793407943107948558369561
44,775.296269134413268370533654039908702,774.0,1.296269134413268370533654039908702
45,810.900808543991201608819816023634430,809.6,1.300808543991201608819816023634430
46,847.305247723942140933683920278697713,846.0,1.305247723942140933683920278697713
47,884.509591013138390361025464423374897,883.2,1.309591013138390361025464423374897
48,922.513842474502869154240051325187915,921.2,1.313842474502869154240051325187915
49,961.318005917942088119824924670195907,960.0,1.318005917942088119824924670195907
50,1000.92208492094406217767360942065158,999.6,1.32208492094406217767360942065158
51,1041.32608284712089673329309812875928,1040.0,1.32608284712089673329309812875928
52,1082.53000286293744016847049921917771,1081.2,1.33000286293744016847049921917771
53,1124.53384795283494465228602763310298,1123.2,1.33384795283494465228602763310298
54,1167.33762093293111634709826306322029,1166.0,1.33762093293111634709826306322029
55,1210.94132446345446059608309716669339,1209.6,1.34132446345446059608309716669339
56,1255.34496106005075311352402704215374,1254.0,1.34496106005075311352402704215374
57,1300.54853310408226923894474005306542,1299.2,1.34853310408226923894474005306542
58,1346.55204285202560613518816913738912,1345.2,1.35204285202560613518816913738912
59,1393.35549244406117886882476546996142,1392.0,1.35549244406117886882476546996142
60,1440.95888391193644680945073996690759,1439.6,1.35888391193644680945073996690759
61,1489.36221918617536256307710539652141,1488.0,1.36221918617536256307710539652141
62,1538.56550010269823465617361292181370,1537.2,1.36550010269823465617361292181370
63,1588.56872840890895330467927078556671,1587.2,1.36872840890895330467927078556671
64,1639.37190576930021612949061828237988,1638.0,1.37190576930021612949061828237988
65,1690.97503377062185584743119372581684,1689.6,1.37503377062185584743119372581684
66,1743.37811392665252463545410648109874,1742.0,1.37811392665252463545410648109874
67,1796.58114768261072758271696289641148,1795.2,1.38114768261072758271696289641148
68,1850.58413641923744149294187154118235,1849.2,1.38413641923744149294187154118235
69,1905.38708145657924263777620928403726,1904.0,1.38708145657924263777620928403726
70,1960.98998405749793880301578564571751,1959.6,1.38998405749793880301578564571751
71,2017.39284543093010227577625329386942,2016.0,1.39284543093010227577625329386942
72,2074.59566673491760218866423396301035,2073.2,1.39566673491760218866423396301035
73,2132.59844907942818164153139530865705,2131.2,1.39844907942818164153139530865705
74,2191.40119352898330618425493981848372,2190.0,1.40119352898330618425493981848372
75,2251.00390110510887915491015589970405,2249.6,1.40390110510887915491015589970405
76,2311.40657278862296982352124234027498,2310.0,1.40657278862296982352124234027498
77,2372.60920952177339790642298818960879,2371.2,1.40920952177339790642298818960879
78,2434.61181221023685223195105704192936,2433.2,1.41181221023685223195105704192936
79,2497.41438172499017453280945622878937,2496.0,1.41438172499017453280945622878937
80,2561.01691890406350123015314439156191,2559.6,1.41691890406350123015314439156191
81,2625.41942455418410674907411948039831,2624.0,1.41942455418410674907411948039831
82,2690.62189945231903047159368528072679,2689.2,1.42189945231903047159368528072679
83,2756.62434434712388071729956986236740,2755.2,1.42434434712388071729956986236740
84,2823.42675996030458486882418661719576,2822.0,1.42675996030458486882418661719576
85,2891.02914698789829550294104232806984,2889.6,1.42914698789829550294104232806984
86,2959.43150610147914654344034773461622,2958.0,1.43150610147914654344034773461622
87,3028.63383794929409600306583812185113,3027.2,1.43383794929409600306583812185113
88,3098.63614315733366852711013818007143,3097.2,1.43614315733366852711013818007143
89,3169.43842233034202747339573675817575,3168.0,1.43842233034202747339573675817575
90,3241.04067605277046307228615802006513,3239.6,1.44067605277046307228615802006513
91,3313.44290488967806178531815643678869,3312.0,1.44290488967806178531815643678869
92,3386.64510938758303371199018257042992,3385.2,1.44510938758303371199018257042992
93,3460.64729007526791266926765767928528,3459.2,1.44729007526791266926765767928528
94,3535.44944746454160067134894669984332,3534.0,1.44944746454160067134894669984332
95,3611.05158205096100741671309065992499,3609.6,1.45158205096100741671309065992499
96,3687.45369431451483360272721364891123,3686.0,1.45369431451483360272721364891123
97,3764.65578472027186258339881100639832,3763.2,1.45578472027186258339881100639832
98,3842.65785371899595205104153905870100,3841.2,1.45785371899595205104153905870100
99,3921.45990174772976399225994855688330,3920.0,1.45990174772976399225994855688330
100,4001.06192923034912487239651721067648,3999.6,1.46192923034912487239651721067648
101,4081.46393657808977874522529086257391,4080.0,1.46393657808977874522529086257391
102,4162.66592419004817045943057908104009,4161.2,1.46592419004817045943057908104009
103,4244.66789245365778827222183086325500,4243.2,1.46789245365778827222183086325500
104,4327.46984174514248797125098524498309,4326.0,1.46984174514248797125098524498309
105,4411.07177242994812759105867161383764,4409.6,1.47177242994812759105867161383764
106,4495.47368486315375110843100283309072,4494.0,1.47368486315375110843100283309072
107,4580.67557938986348148522156775290221,4579.2,1.47557938986348148522156775290221
108,4666.67745634558020425784600584835219,4665.2,1.47745634558020425784600584835219
109,4753.47931605656205435358958749562794,4752.0,1.47931605656205435358958749562794
110,4841.08115884016265647286899456324791,4839.6,1.48115884016265647286899456324791
111,4929.48298500515600359939938409221335,4928.0,1.48298500515600359939938409221335
112,5018.68479485204680885588602496829805,5017.2,1.48479485204680885588602496829805
113,5108.68658867336711048201146766034931,5107.2,1.48658867336711048201146766034931
114,5199.48836675395986105471189247051509,5198.0,1.48836675395986105471189247051509
115,5291.09012937125019172969377695459328,5289.6,1.49012937125019172969377695459328
116,5383.49187679550499406588827444991337,5382.0,1.49187679550499406588827444991337
117,5476.69360929008143040338547335700242,5475.2,1.49360929008143040338547335700242
118,5570.69532711166494286412038444981588,5569.2,1.49532711166494286412038444981588
119,5665.49703051049729746927215377554945,5664.0,1.49703051049729746927215377554945
120,5761.09871973059517417273092441717416,5759.6,1.49871973059517417273092441717416
121,5857.50039500995977550027506425146611,5856.0,1.50039500995977550027506425146611
122,5954.70205658077790773916404831889215,5953.2,1.50205658077790773916404831889215
123,6052.70370466961495660952979932302814,6051.2,1.50370466961495660952979932302814
124,6151.50533949760016186113755514465061,6150.0,1.50533949760016186113755514465061
125,6251.10696128060456587810282872654905,6249.6,1.50696128060456587810282872654905
126,6351.50857022941199639641780065273086,6350.0,1.50857022941199639641780065273086
127,6452.71016654988342309629687767469971,6451.2,1.51016654988342309629687767469971
128,6554.71175044311500549588817586312721,6553.2,1.51175044311500549588817586312721
129,6657.51332210559013776931192904747687,6656.0,1.51332210559013776931192904747687
130,6761.11488172932577801930089102394519,6759.6,1.51488172932577801930089102394519
131,6865.51642950201333444073857139168302,6864.0,1.51642950201333444073857139168302
132,6970.71796560715436616711477828783454,6969.2,1.51796560715436616711477828783454
133,7076.71949022419134516775580344247801,7075.2,1.51949022419134516775580344247801
134,7183.52100352863371467200383616984213,7182.0,1.52100352863371467200383616984213
135,7291.12250569217946190116091409911720,7289.6,1.52250569217946190116091409911720
136,7399.52399688283241964583985622334612,7398.0,1.52399688283241964583985622334612
137,7508.72547726501549839691509003205536,7507.2,1.52547726501549839691509003205536
138,7618.72694699968003764148338165756105,7617.2,1.52694699968003764148338165756105
139,7729.52840624441146338493258950964764,7728.0,1.52840624441146338493258950964764
140,7841.12985515353142411330186922564665,7839.6,1.52985515353142411330186922564665
141,7953.53129387819657349932757580970743,7952.0,1.53129387819657349932757580970743
142,8066.73272256649416078074364394662473,8065.2,1.53272256649416078074364394662473
143,8180.73414136353458184408504184034012,8179.2,1.53414136353458184408504184034012
144,8295.53555041154103768406721206049368,8294.0,1.53555041154103768406721206049368
145,8411.13694984993644360445851913670609,8409.6,1.53694984993644360445851913670609
146,8527.53833981542772561477808304334520,8526.0,1.53833981542772561477808304334520
147,8644.73972044208763331156126142419973,8643.2,1.53972044208763331156126142419973
148,8762.74109186143420070026421314560375,8761.2,1.54109186143420070026421314560375
149,8881.54245420250797410748175397984313,8880.0,1.54245420250797410748175397984313
150,9001.14380759194712950022380439531125,8999.6,1.54380759194712950022380439531125
151,9121.54515215406059524563448741618697,9120.0,1.54515215406059524563448741618697
152,9242.74648801089929229966259617775092,9241.2,1.54648801089929229966259617775092
153,9364.74781528232560417418710441261961,9363.2,1.54781528232560417418710441261961
154,9487.54913408608118584576101897492774,9486.0,1.54913408608118584576101897492774
155,9611.15044453785321713985066295941638,9609.6,1.55044453785321713985066295941638
156,9735.55174675133920797564899445778295,9734.0,1.55174675133920797564899445778295
157,9860.75304083831045846389197836631539,9859.2,1.55304083831045846389197836631539
158,9986.75432690867428027692524473364770,9985.2,1.55432690867428027692524473364770
159,10113.5556050705350804721761680031868,10112.0,1.5556050705350804721761680031868
160,10241.1568754302544148014741983599944,10239.6,1.5568754302544148014741983599944
161,10369.5581380925101131929931862618664,10368.0,1.5581380925101131929931862618664
162,10498.7593931603545848967138462673111,10497.2,1.5593931603545848967138462673111
163,10628.7606407352724103968216911395599,10627.2,1.5606407352724103968216911395599
164,10759.5618809172373316222825754391097,10758.0,1.5618809172373316222825754391097
165,10891.1631138047687510669872603922750,10889.6,1.5631138047687510669872603922750
166,11023.5643394949878579890396656274163,11022.0,1.5643394949878579890396656274163
167,11156.7655580836735028059524559874365,11155.2,1.5655580836735028059524559874365
168,11290.7667696653179431458880813492972,11289.2,1.5667696653179431458880813492972
169,11425.5679743331825950097968617616300,11424.0,1.5679743331825950097968617616300
170,11561.1691721793539256250950233994119,11559.6,1.5691721793539256250950233994119
171,11697.5703632947996343912950334222568,11696.0,1.5703632947996343912950334222568
172,11834.7715477694252763964509755141143,11833.2,1.5715477694252763964509755141143
173,11972.7727256921314920931500845137753,11971.2,1.5727256921314920931500845137753
174,12111.5738971508720200542231100216987,12110.0,1.5738971508720200542231100216987
175,12251.1750622327126822450560144741436,12249.6,1.5750622327126822450560144741436
176,12391.5762210238915430253171371837841,12390.0,1.5762210238915430253171371837841
177,12532.7773736098804646019000630500347,12531.2,1.5773736098804646019000630500347
178,12674.7785200754482976591715144276923,12673.2,1.5785200754482976591715144276923
179,12817.5796605047259657414110612873989,12816.0,1.5796605047259657414110612873989
180,12961.1807949812737318079637269525303,12959.6,1.5807949812737318079637269525303
181,13105.5819235881509556025795837822608,13104.0,1.5819235881509556025795837822608
182,13250.7830464079886876700587124744565,13249.2,1.5830464079886876700587124744565
183,13396.7841635230654774993853924279851,13395.2,1.5841635230654774993853924279851
184,13543.5852750153868155116566510784391,13542.0,1.5852750153868155116566510784391
185,13691.1863809667686726846527515309641,13689.6,1.5863809667686726846527515309641
186,13839.5874814589256535572753634316760,13838.0,1.5874814589256535572753634316760
187,13988.7885765735643412269140943920399,13987.2,1.5885765735643412269140943920399
188,14138.7896663924824730018400786594300,14137.2,1.5896663924824730018400786594300
189,14289.5907509976746717806152070555297,14288.0,1.5907509976746717806152070555297
190,14441.1918304714455395284454960607152,14439.6,1.5918304714455395284454960607152
191,14593.5929048965310252776294123927876,14592.0,1.5929048965310252776294123927876
192,14746.7939743562290950155915484317825,14745.2,1.5939743562290950155915484317825
193,14900.7950389345408684053974697724966,14899.2,1.5950389345408684053974697724966
194,15055.5960987163235389507704630878754,15054.0,1.5960987163235389507704630878754
195,15211.1971537874565800954119565406208,15209.6,1.5971537874565800954119565406208
196,15367.5982042350229458630070904896610,15366.0,1.5982042350229458630070904896610
197,15524.7992501475072200614648094552384,15523.2,1.5992501475072200614648094552384
198,15682.8002916150129533670264838183172,15681.2,1.6002916150129533670264838183172
199,15841.6013287295017602889778214642937,15840.0,1.6013287295017602889778214642937
200,16001.2023615850571410343249352118452,15999.6,1.6023615850571410343249352118452
201,16161.6033902781764515785440721767673,16160.0,1.6033902781764515785440721767673
202,16322.8044149080949922298339920742027,16321.2,1.6044149080949922298339920742027
203,16484.8054355771468273417151371177904,16483.2,1.6054355771468273417151371177904
204,16647.6064523911677165618031072850870,16646.0,1.6064523911677165618031072850870
205,16811.2074654599464510292741097917239,16809.6,1.6074654599464510292741097917239
206,16975.6084748977319861662586696006046,16974.0,1.6084748977319861662586696006046
207,17140.8094808238050719763686722616067,17139.2,1.6094808238050719763686722616067
208,17306.8104833631246789051343563245266,17305.2,1.6104833631246789051343563245266
209,17473.6114826470614345241985324294046,17472.0,1.6114826470614345241985324294046
210,17641.2124788142326364802883779105577,17639.6,1.6124788142326364802883779105577
211,17809.6134720114562705687648650258155,17808.0,1.6134720114562705687648650258155
212,17978.8144623948449902728635045034143,17977.2,1.6144623948449902728635045034143
213,18148.8154501310653627946059770892381,18147.2,1.6154501310653627946059770892381
214,18319.6164353987931062159316324561964,18318.0,1.6164353987931062159316324561964
215,18491.2174183904017838365533491210430,18489.6,1.6174183904017838365533491210430
216,18663.6183993139309286357521379723188,18662.0,1.6183993139309286357521379723188
217,18836.8193783953903012415652150110968,18835.2,1.6193783953903012415652150110968
218,19010.8203558814706650769494096337277,19009.2,1.6203558814706650769494096337277
219,19185.6213320427489927791840718823288,19184.0,1.6213320427489927791840718823288
220,19361.2223071774986842972043288346610,19359.6,1.6223071774986842972043288346610
221,19537.6232816162448714073396090437098,19536.0,1.6232816162448714073396090437098
222,19714.8242557272436650918339436282322,19713.2,1.6242557272436650918339436282322
223,19892.8252299231155623719344382303764,19891.2,1.6252299231155623719344382303764
224,20071.6262046689320330472291436219686,20070.0,1.6262046689320330472291436219686
225,20251.2271804921473347195309484045797,20249.6,1.6271804921473347195309484045797
226,20431.6281579948948833853152050733079,20430.0,1.6281579948948833853152050733079
227,20612.8291378693437522415649431132124,20611.2,1.6291378693437522415649431132124
228,20794.8301209170581275837621258207742,20793.2,1.6301209170581275837621258207742
229,20977.6311080736544426744885388093674,20976.0,1.6311080736544426744885388093674
230,21161.2321004405595228986196925615585,21159.6,1.6321004405595228986196925615585
231,21345.6330993264208116777335825523425,21344.0,1.6330993264208116777335825523425
232,21530.8341063018397402597909761332943,21529.2,1.6341063018397402597909761332943
233,21716.8351232728117339670472720354897,21715.2,1.6351232728117339670472720354897
234,21903.6361525809351959949092526786683,21902.0,1.6361525809351959949092526786683
235,22091.2371971427506355952905928215387,22089.6,1.6371971427506355952905928215387
236,22279.6382606476703855409318429966955,22278.0,1.6382606476703855409318429966955
237,22468.8393478460703706309650533868546,22467.2,1.6393478460703706309650533868546
238,22658.8404649805576094206030586911051,22657.2,1.6404649805576094206030586911051
