Eigenstate,Energy,Kinetic Energy,Potential Energy
1,0.500000000014072615394095663946476355,0.0,0.500000000014072615394095663946476355
2,1.84623093774297330354244856991618781,1.2,0.64623093774297330354244856991618781
3,3.93633760997480287658788896390265438,3.2,0.73633760997480287658788896390265438
4,6.79966527837625762944425340169271117,6.0,0.79966527837625762944425340169271117
5,10.4480465762592163977416040574626743,9.6,0.8480465762592163977416040574626743
6,14.8870659983767071406458134884914946,14.0,0.8870659983767071406458134884914946
7,20.1197208261661327132434161355999189,19.2,0.9197208261661327132434161355999189
8,26.1477838460040389846666150029830901,25.2,0.9477838460040389846666150029830901
9,32.9723835568964763836952739730954462,32.0,0.9723835568964763836952739730954462
10,40.5942802129918744341160725388074051,39.6,0.9942802129918744341160725388074051
11,49.0140093844311763774876540194744207,48.0,1.0140093844311763774876540194744207
12,58.2319621665189430363957668787470037,57.2,1.0319621665189430363957668787470037
13,68.2484326893209294956758663199092463,67.2,1.0484326893209294956758663199092463
14,79.0636476505202379306936570171997861,78.0,1.0636476505202379306936570171997861
15,90.6777854312314972434980831607082980,89.6,1.0777854312314972434980831607082980
16,103.090988900871304897953266514856191,102.0,1.090988900871304897953266514856191
17,116.303374250619729253462364527927771,115.2,1.103374250619729253462364527927771
18,130.315037244426507773023016923789682,129.2,1.115037244426507773023016923789682
19,145.126057742115023843868389694286758,144.0,1.126057742115023843868389694286758
20,160.736503037016242703378972835347193,159.6,1.136503037016242703378972835347193
21,177.146430362050408274531190624313615,176.0,1.146430362050408274531190624313615
22,194.355888800885783066291611971084142,193.2,1.155888800885783066291611971084142
23,212.364920765875172667441442038399465,211.2,1.164920765875172667441442038399465
24,231.173563155456347791929396875932904,230.0,1.173563155456347791929396875932904
25,250.781848270947970589163412326523607,249.6,1.181848270947970589163412326523607
26,271.189804550357182335962130465088453,270.0,1.189804550357182335962130465088453
27,292.397457161342179229459202056066664,291.2,1.197457161342179229459202056066664
28,314.404828484571252193666170183942067,313.2,1.204828484571252193666170183942067
29,337.211938510924738792636300219261202,336.0,1.211938510924738792636300219261202
30,360.818805170336847775089282001299736,359.6,1.218805170336847775089282001299736
31,385.225444605928378276140552864165892,384.0,1.225444605928378276140552864165892
32,410.431871404003456117678272034961913,409.2,1.231871404003456117678272034961913
33,436.438098788173761845263277851282795,435.2,1.238098788173761845263277851282795
34,463.244138784123178873622759419807460,462.0,1.244138784123178873622759419807460
35,490.850002360186595047383287647383710,489.6,1.250002360186595047383287647383710
36,519.255699547883112045357809117633630,518.0,1.255699547883112045357809117633630
37,548.461239545739832508359795655953282,547.2,1.261239545739832508359795655953282
38,578.466630809111976027517332229394969,577.2,1.266630809111976027517332229394969
39,609.271881128207226480654970181340884,608.0,1.271881128207226480654970181340884
40,640.876997696126392420856856705043510,639.6,1.276997696126392420856856705043510
41,673.281987168415711947677145463737891,672.0,1.281987168415711947677145463737891
42,706.486855715371140890017938818109267,705.2,1.286855715371140890017938818109267
43,740.491609068128476784827464135082726,739.2,1.291609068128476784827464135082726
44,775.296252559405077120307235033847560,774.0,1.296252559405077120307235033847560
45,810.900791159621360743353212753777766,809.6,1.300791159621360743353212753777766
46,847.305229509017145048390264046882962,846.0,1.305229509017145048390264046882962
47,884.509571946284394952450978537314851,883.2,1.309571946284394952450978537314851
48,922.513822534160373297121227431716694,921.2,1.313822534160373297121227431716694
49,961.317985082360519774094672280661364,960.0,1.317985082360519774094672280661364
50,1000.92206316817626275743886074333984,999.6,1.32206316817626275743886074333984
51,1041.32606015501750146321453652168889,1040.0,1.32606015501750146321453652168889
52,1082.52997920914115064280007950920264,1081.2,1.32997920914115064280007950920264
53,1124.53382331477468989773512312672919,1123.2,1.33382331477468989773512312672919
54,1167.33759528781609857244814561525263,1166.0,1.33759528781609857244814561525263
55,1210.94129778826808168872683533631149,1209.6,1.34129778826808168872683533631149
56,1255.34493333154441781566984335674085,1254.0,1.34493333154441781566984335674085
57,1300.54850429876906080374376847633123,1299.2,1.34850429876906080374376847633123
58,1346.55201294617383012528188873064456,1345.2,1.35201294617383012528188873064456
59,1393.35546141368777061648916093149668,1392.0,1.35546141368777061648916093149668
60,1440.95885173280023790831839061780394,1439.6,1.35885173280023790831839061780394
61,1489.36218583377020160608023165620805,1488.0,1.36218583377020160608023165620805
62,1538.56546555224595727253817476611062,1537.2,1.36546555224595727253817476611062
63,1588.56869263535219638022087418325023,1587.2,1.36869263535219638022087418325023
64,1639.37186874729507091876356299977786,1638.0,1.37186874729507091876356299977786
65,1690.97499547453035450311873747645900,1689.6,1.37499547453035450311873747645900
66,1743.37807433053495448942338713293733,1742.0,1.37807433053495448942338713293733
67,1796.58110676021776731398516832427244,1795.2,1.38110676021776731398516832427244
68,1850.58409414400211311004222998757790,1849.2,1.38409414400211311004222998757790
69,1905.38703780160867298622529720932109,1904.0,1.38703780160867298622529720932109
70,1960.98993899556492408238734020345805,1959.6,1.38993899556492408238734020345805
71,2017.39279893446446881473541077216346,2016.0,1.39279893446446881473541077216346
72,2074.59561877599735647982004980878657,2073.2,1.39561877599735647982004980878657
73,2132.59839962977044238053444555917050,2131.2,1.39839962977044238053444555917050
74,2191.40114255993501078872320900472631,2190.0,1.40114255993501078872320900472631
75,2251.00384858763725695789786471654042,2249.6,1.40384858763725695789786471654042
76,2311.40651869330577384280121630112530,2310.0,1.40651869330577384280121630112530
77,2372.60915381878888678414483390004260,2371.2,1.40915381878888678414483390004260
78,2434.61175486935351361866392356402563,2433.2,1.41175486935351361866392356402563
79,2497.41432271555618085464174435839229,2496.0,1.41432271555618085464174435839229
80,2561.01685819499588842741146884327056,2559.6,1.41685819499588842741146884327056
81,2625.41936211395766620786685162294569,2624.0,1.41936211395766620786685162294569
82,2690.62183524895490398645968275689856,2689.2,1.42183524895490398645968275689856
83,2756.62427834817784792137242975220167,2755.2,1.42427834817784792137242975220167
84,2823.42669213285503214783841372227748,2822.0,1.42669213285503214783841372227748
85,2891.02907729853385496940821602112021,2889.6,1.42907729853385496940821602112021
86,2959.43143451628599318657180354000822,2958.0,1.43143451628599318657180354000822
87,3028.63376443384289064734597312252971,3027.2,1.43376443384289064734597312252971
88,3098.63606767666613372670109759733398,3097.2,1.43606767666613372670109759733398
89,3169.43834484895714293953968840085699,3168.0,1.43834484895714293953968840085699
90,3241.04059653461026667521001979316854,3239.6,1.44059653461026667521001979316854
91,3313.44282329811304158948740667477125,3312.0,1.44282329811304158948740667477125
92,3386.64502568539709589241661433644618,3385.2,1.44502568539709589241661433644618
93,3460.64720422464290951535328216735566,3459.2,1.44720422464290951535328216735566
94,3535.44935942704140221180412817169059,3534.0,1.44935942704140221180412817169059
95,3611.05149178751509949263672100073855,3609.6,1.45149178751509949263672100073855
96,3687.45360178540142447411320610339848,3686.0,1.45360178540142447411320610339848
97,3764.65568988510047937509272355043196,3763.2,1.45568988510047937509272355043196
98,3842.65775653668950752545264088546068,3841.2,1.45775653668950752545264088546068
99,3921.45980217650607327558950468228522,3920.0,1.45980217650607327558950468228522
100,4001.06182722770185085644465101801851,3999.6,1.46182722770185085644465101801851
101,4081.46383210076878393534486172160466,4080.0,1.46383210076878393534486172160466
102,4162.66581719403925203822742759019684,4161.2,1.46581719403925203822742759019684
103,4244.66778289416177209520609807694816,4243.2,1.46778289416177209520609807694816
104,4327.46972957655365610172394554557891,4326.0,1.46972957655365610172394554557891
105,4411.07165760583195281378234495057778,4409.6,1.47165760583195281378234495057778
106,4495.47356733622391063149150877780310,4494.0,1.47356733622391063149150877780310
107,4580.67545911195812074323261465498799,4579.2,1.47545911195812074323261465498799
108,4666.67733326763742036316720519340885,4665.2,1.47733326763742036316720519340885
109,4753.47919012859456730129534145145651,4752.0,1.47919012859456730129534145145651
110,4841.08103001123163468513896521444987,4839.6,1.48103001123163468513896521444987
111,4929.48285322334400879092838470977222,4928.0,1.48285322334400879092838470977222
112,5018.68466006442982350853633104850091,5017.2,1.48466006442982350853633104850091
113,5108.68645082598560942860996412526791,5107.2,1.48645082598560942860996412526791
114,5199.48822579178888678259485925215653,5198.0,1.48822579178888678259485925215653
115,5291.08998523816839101784243367695190,5289.6,1.48998523816839101784243367695190
116,5383.49172943426257145834406382583615,5382.0,1.49172943426257145834406382583615
117,5476.69345864226697178862836149579131,5475.2,1.49345864226697178862836149579131
118,5570.69517311767106006725252111713551,5569.2,1.49517311767106006725252111713551
119,5665.49687310948504226260236126795839,5664.0,1.49687310948504226260236126795839
120,5761.09855886045716746148066162794093,5759.6,1.49855886045716746148066162794093
121,5857.50023060728199463371922863821064,5856.0,1.50023060728199463371922863821064
122,5954.70188858080007192291728435666300,5953.2,1.50188858080007192291728435666300
123,6052.70353300618944724047680175442647,6051.2,1.50353300618944724047680175442647
124,6151.50516410314941126029674661831077,6150.0,1.50516410314941126029674661831077
125,6251.10678208607684434522506962179952,6249.6,1.50678208607684434522506962179952
126,6351.50838716423552373906973232212807,6350.0,1.50838716423552373906973232212807
127,6452.70997954191872678008367634506656,6451.2,1.50997954191872678008367634506656
128,6554.71155941860544330464871327876132,6553.2,1.51155941860544330464871327876132
129,6657.51312698911049833664525370824961,6656.0,1.51312698911049833664525370824961
130,6761.11468244372886777612749131177766,6759.6,1.51468244372886777612749131177766
131,6865.51622596837445439680559639854178,6864.0,1.51622596837445439680559639854178
132,6970.71775774471357648463564960173429,6969.2,1.51775774471357648463564960173429
133,7076.71927795029340966823417723515714,7075.2,1.51927795029340966823417723515714
134,7183.52078675866561121587514962840655,7182.0,1.52078675866561121587514962840655
135,7291.12228433950533796548492404283028,7289.6,1.52228433950533796548492404283028
136,7399.52377085872586536652025755209737,7398.0,1.52377085872586536652025755209737
137,7508.72524647858900180467081980528960,7507.2,1.52524647858900180467081980528960
138,7618.72671135781147876833715636609811,7617.2,1.52671135781147876833715636609811
139,7729.52816565166749530992936442133878,7728.0,1.52816565166749530992936442133878
140,7841.12960951208757980906348718866352,7839.6,1.52960951208757980906348718866352
141,7953.53104308775392748724271772805221,7952.0,1.53104308775392748724271772805221
142,8066.73246652419236405034333505549182,8065.2,1.53246652419236405034333505549182
143,8180.73387996386107718505611282170407,8179.2,1.53387996386107718505611282170407
144,8295.53528354623625045579683297716653,8294.0,1.53528354623625045579683297716653
145,8411.13667740789472996084058070742743,8409.6,1.53667740789472996084058070742743
146,8527.53806168259384623768343937642836,8526.0,1.53806168259384623768343937642836
147,8644.73943650134850570466926947492190,8643.2,1.53943650134850570466926947492190
148,8762.74080199250566696788593610269377,8761.2,1.54080199250566696788593610269377
149,8881.54215828181630379426097998093993,8880.0,1.54215828181630379426097998093993
150,9001.14350549250495839170965323259888,8999.6,1.54350549250495839170965323259888
151,9121.54484374533698091056432454956873,9120.0,1.54484374533698091056432454956873
152,9242.74617315868354546542974537744001,9241.2,1.54617315868354546542974537744001
153,9364.74749384858453162713189426252104,9363.2,1.54749384858453162713189426252104
154,9487.54880592880935528397621662062793,9486.0,1.54880592880935528397621662062793
155,9611.15010951091582710828117541771377,9609.6,1.55010951091582710828117541771377
156,9735.55140470430711649452307518643625,9734.0,1.55140470430711649452307518643625
157,9860.75269161628689201566803647439370,9859.2,1.55269161628689201566803647439370
158,9986.75397035211271021576451414510483,9985.2,1.55397035211271021576451414510483
159,10113.5552410150477164116017579400963,10112.0,1.5552410150477164116017579400963
160,10241.1565037064107238409439279971670,10239.6,1.5565037064107238409439279971670
161,10369.5577585256247296534307645239950,10368.0,1.5577585256247296534307645239950
162,10498.7590055702639272052161358688992,10497.2,1.5590055702639272052161358688992
163,10628.7602449360992695106138194830339,10627.2,1.5602449360992695106138194830339
164,10759.5614767171426384873153497419003,10758.0,1.5614767171426384873153497419003
165,10891.1627010056896685953675621134189,10889.6,1.5627010056896685953675621134189
166,11023.5639178923612753854685154255327,11022.0,1.5639178923612753854685154255327
167,11156.7651274661439361888711340373482,11155.2,1.5651274661439361888711340373482
168,11290.7663298144287656377779853764457,11289.2,1.5663298144287656377779853764457
169,11425.5675250230494310782877604221430,11424.0,1.5675250230494310782877604221430
170,11561.1687131763189476189789457779354,11559.6,1.5687131763189476189789457779354
171,11697.5698943570653930095614587114069,11696.0,1.5698943570653930095614587114069
172,11834.7710686466665802162239478753613,11833.2,1.5710686466665802162239478753613
173,11972.7722361250837230959774231705243,11971.2,1.5722361250837230959774231705243
174,12111.5733968708941310134789982473644,12110.0,1.5733968708941310134789982473644
175,12251.1745509613229663852385772040492,12249.6,1.5745509613229663852385772040492
176,12391.5756984722740948575310864532939,12390.0,1.5756984722740948575310864532939
177,12532.7768394783600613785215083100207,12531.2,1.5768394783600613785215083100207
178,12674.7779740529312213189686301944598,12673.2,1.5779740529312213189686301944598
179,12817.5791022681040530864230421239920,12816.0,1.5791022681040530864230421239920
180,12961.1802241947886831792879997935918,12959.6,1.5802241947886831792879997935918
181,13105.5813399027156463292989225844775,13104.0,1.5813399027156463292989225844775
182,13250.7824494604619084277765670593124,13249.2,1.5824494604619084277765670593124
183,13396.7835529354761752848973282109882,13395.2,1.5835529354761752848973282109882
184,13543.5846503941035114634862709732432,13542.0,1.5846503941035114634862709732432
185,13691.1857419016092909954255742743476,13689.6,1.5857419016092909954255742743476
186,13839.5868275222025009492671659925803,13838.0,1.5868275222025009492671659925803
187,13988.7879073190584216495160965190171,13987.2,1.5879073190584216495160965190171
188,14138.7889813543406989838682548730790,14137.2,1.5889813543406989838682548730790
189,14289.5900496892228325294590380204689,14288.0,1.5900496892228325294590380204689
190,14441.1911123839090951491665524721741,14439.6,1.5911123839090951491665524721741
191,14593.5921694976549032804866569839075,14592.0,1.5921694976549032804866569839075
192,14746.7932210887866542991475779251754,14745.2,1.5932210887866542991475779251754
193,14900.7942672147210492612762838674509,14899.2,1.5942672147210492612762838674509
194,15055.5953079319839143648627726012025,15054.0,1.5953079319839143648627726012025
195,15211.1963432962285390628440057408873,15209.6,1.5963432962285390628440057408873
196,15367.5973733622535445196698219560337,15366.0,1.5973733622535445196698219560337
197,15524.7983981840202967866337680057700,15523.2,1.5983981840202967866337680057700
198,15682.7994178146698788579096085489736,15681.2,1.5994178146698788579096085489736
199,15841.6004323065396344411086466930740,15840.0,1.6004323065396344411086466930740
200,16001.2014417111792973825185125595758,15999.6,1.6014417111792973825185125595758
201,16161.6024460793667177234018379779904,16160.0,1.6024460793667177234018379779904
202,16322.8034454611231977634657342695179,16321.2,1.6034454611231977634657342695179
203,16484.8044399057284487861837700666338,16483.2,1.6044399057284487861837700666338
204,16647.6054294617351800608315518894910,16646.0,1.6054294617351800608315518894910
205,16811.2064141769833300865475814373545,16809.6,1.6064141769833300865475814373545
206,16975.6073940986139530971158455311891,16974.0,1.6073940986139530971158455311891
207,17140.8083692730827666970953052362248,17139.2,1.6083692730827666970953052362248
208,17306.8093397461733748507004791439515,17305.2,1.6093397461733748507004791439515
209,17473.6103055630101719662602994143903,17472.0,1.6103055630101719662602994143903
210,17641.2112667680709395718538816899849,17639.6,1.6112667680709395718538816899849
211,17809.6122234051991429410791962634116,17808.0,1.6122234051991429410791962634116
212,17978.8131755176159378960763369920230,17977.2,1.6131755176159378960763369920230
213,18148.8141231479318921656928340305118,18147.2,1.6141231479318921656928340305118
214,18319.6150663381584362744742036200716,18318.0,1.6150663381584362744742036200716
215,18491.2160051297190431687039152820568,18489.6,1.6160051297190431687039152820568
216,18663.6169395634601505339428599059792,18662.0,1.6169395634601505339428599059792
217,18836.8178696796618297631033024278544,18835.2,1.6178696796618297631033024278544
218,19010.8187955180482105474997290934270,19009.2,1.6187955180482105474997290934270
219,19185.6197171177976643638050188462572,19184.0,1.6197171177976643638050188462572
220,19361.2206345175527593650320563926531,19359.6,1.6206345175527593650320563926531
221,19537.6215477554299845778228643966058,19536.0,1.6215477554299845778228643966058
222,19714.8224568690292606034028375567575,19713.2,1.6224568690292606034028375567575
223,19892.8233618954432303830233112521372,19891.2,1.6233618954432303830233112521372
224,20071.6242628712663450871825309547645,20070.0,1.6242628712663450871825309547645
225,20251.2251598326037476851593646159760,20249.6,1.6251598326037476851593646159760
226,20431.6260528150799577327922958623761,20430.0,1.6260528150799577327922958623761
227,20612.8269418538473660213417973907572,20611.2,1.6269418538473660213417973907572
228,20794.8278269835945408976269520469982,20793.2,1.6278269835945408976269520469982
229,20977.6287082385543534075711410951783,20976.0,1.6287082385543534075711410951783
230,21161.2295856525119259493846867594687,21159.6,1.6295856525119259493846867594687
231,21345.6304592588124062256383238036749,21344.0,1.6304592588124062256383238036749
232,21530.8313290903685769031316031723311,21529.2,1.6313290903685769031316031723311
233,21716.8321951796682959660438211746260,21715.2,1.6321951796682959660438211746260
234,21903.6330575587817839084164076469906,21902.0,1.6330575587817839084164076469906
235,22091.2339162593687509370496659996193,22089.6,1.6339162593687509370496659996193
236,22279.6347713126853738835648150775248,22278.0,1.6347713126853738835648150775248
237,22468.8356227495911264457406921434773,22467.2,1.6356227495911264457406921434773
238,22658.8364706005554644891183130874525,22657.2,1.6364706005554644891183130874525
