Eigenstate,Energy,Kinetic Energy,Potential Energy
1,0.500000000055668423787936209155997261,0.0,0.500000000055668423787936209155997261
2,1.84623093801448932824427661228703248,1.2,0.64623093801448932824427661228703248
3,3.93633761077236049750167099010975946,3.2,0.73633761077236049750167099010975946
4,6.79966528003748252991456640376108804,6.0,0.79966528003748252991456640376108804
5,10.4480465791368054760508341819159341,9.6,0.8480465791368054760508341819159341
6,14.8870660028295347263573082437912305,14.0,0.8870660028295347263573082437912305
7,20.1197208325559738305912701975580317,19.2,0.9197208325559738305912701975580317
8,26.1477838546942030094211578792757411,25.2,0.9477838546942030094211578792757411
9,32.9723835682511718682689074993920485,32.0,0.9723835682511718682689074993920485
10,40.5942802273758868904515599659695097,39.6,0.9942802273758868904515599659695097
11,49.0140094022096933866117206902709530,48.0,1.0140094022096933866117206902709530
12,58.2319621880574544338387724807161280,57.2,1.0319621880574544338387724807161280
13,68.2484327149851684289128919963502767,67.2,1.0484327149851684289128919963502767
14,79.0636476806761454389467047668839383,78.0,1.0636476806761454389467047668839383
15,90.6777854662452010285974062354813456,89.6,1.0777854662452010285974062354813456
16,103.090988941109107009807918993825794,102.0,1.090988941109107009807918993825794
17,116.303374296448099574878591842965545,115.2,1.103374296448099574878591842965545
18,130.315037296212081394240523687596413,129.2,1.115037296212081394240523687596413
19,145.126057800224601117102172554869104,144.0,1.126057800224601117102172554869104
20,160.736503101816791188495633907678122,159.6,1.136503101816791188495633907678122
21,177.146430433909066048020624483731822,176.0,1.146430433909066048020624483731822
22,194.355888880169863032154513838228968,193.2,1.155888880169863032154513838228968
23,212.364920852952167617435311004017176,211.2,1.164920852952167617435311004017176
24,231.173563250693936035368869334981193,230.0,1.173563250693936035368869334981193
25,250.781848374714022022106176285345990,249.6,1.181848374714022022106176285345990
26,271.189804663019764854104977420455587,270.0,1.189804663019764854104977420455587
27,292.397457283269565413446069003262990,291.2,1.197457283269565413446069003262990
28,314.404828616131926213005595420444276,313.2,1.204828616131926213005595420444276
29,337.211938652487403487161424295142298,336.0,1.211938652487403487161424295142298
30,360.818805322270431882286192969526554,359.6,1.218805322270431882286192969526554
31,385.225444768602043779682145406355205,384.0,1.225444768602043779682145406355205
32,410.431871577786605697793480926316671,409.2,1.231871577786605697793480926316671
33,436.438098973436046415608733481284040,435.2,1.238098973436046415608733481284040
34,463.244138981234505192433379429932481,462.0,1.244138981234505192433379429932481
35,490.850002569517133393095139967770734,489.6,1.250002569517133393095139967770734
36,519.255699769803303948790955219253771,518.0,1.255699769803303948790955219253771
37,548.461239780620398535045698803241932,547.2,1.261239780620398535045698803241932
38,578.466631057323923604946960990841372,577.2,1.266631057323923604946960990841372
39,609.271881390121857766178988936591764,608.0,1.271881390121857766178988936591764
40,640.876997972115312206740322007130644,639.6,1.276997972115312206740322007130644
41,673.281987458850835600437213040479330,672.0,1.281987458850835600437213040479330
42,706.486856020624702321684705197684754,705.2,1.286856020624702321684705197684754
43,740.491609388573036454188454283157553,739.2,1.291609388573036454188454283157553
44,775.296252895413530062543261100094291,774.0,1.296252895413530062543261100094291
45,810.900791511566944626761722782999085,809.6,1.300791511566944626761722782999085
46,847.305229877273448257132991831319429,846.0,1.305229877273448257132991831319429
47,884.509572331225364694464406351920558,883.2,1.309572331225364694464406351920558
48,922.513822936160323736498388393859456,921.2,1.313822936160323736498388393859456
49,961.317985501794140187390550286044973,960.0,1.317985501794140187390550286044973
50,1000.92206360541862571347375680730436,999.6,1.32206360541862571347375680730436
51,1041.32606061044407102605401727569790,1040.0,1.32606061044407102605401727569790
52,1082.52997968312779059767930501509504,1081.2,1.32997968312779059767930501509504
53,1124.53382380769767199977204477268468,1123.2,1.33382380769767199977204477268468
54,1167.33759580005211081805629999501679,1166.0,1.33759580005211081805629999501679
55,1210.94129832019423660969579364303467,1209.6,1.34129832019423660969579364303467
56,1255.34493388353826079593122086445949,1254.0,1.34493388353826079593122086445949
57,1300.54850487120857841888414388602734,1299.2,1.34850487120857841888414388602734
58,1346.55201353943745850490222367801449,1345.2,1.35201353943745850490222367801449
59,1393.35546202815440382954360386261811,1392.0,1.35546202815440382954360386261811
60,1440.95885236884923637159498123688533,1439.6,1.35885236884923637159498123688533
61,1489.36218649178140051601209348015968,1488.0,1.36218649178140051601209348015968
62,1538.56546623259967506055707338970555,1537.2,1.36546623259967506055707338970555
63,1588.56869333842924319188564105972129,1587.2,1.36869333842924319188564105972129
64,1639.37186947347675711691436569433486,1638.0,1.37186947347675711691436569433486
65,1690.97499622419849919532493715707456,1689.6,1.37499622419849919532493715707456
66,1743.37807510407189408000759075219232,1742.0,1.37807510407189408000759075219232
67,1796.58110755800636408091968753198500,1795.2,1.38110755800636408091968753198500
68,1850.58409496642576380702645976427630,1849.2,1.38409496642576380702645976427630
69,1905.38703864905131747026389533790336,1904.0,1.38703864905131747026389533790336
70,1960.98993986841105396719909021739485,1959.6,1.38993986841105396719909021739485
71,2017.39279983309913615033246816234649,2016.0,1.39279983309913615033246816234649
72,2074.59561970080618245860564132272032,2073.2,1.39561970080618245860564132272032
73,2132.59840058113962607027548584328846,2131.2,1.39840058113962607027548584328846
74,2191.40114353825133789276160110085548,2190.0,1.40114353825133789276160110085548
75,2251.00384959328810860297146945842275,2249.6,1.40384959328810860297146945842275
76,2311.40651972667913539485187062338389,2310.0,1.40651972667913539485187062338389
77,2372.60915488027335669249718547613658,2371.2,1.40915488027335669249718547613658
78,2434.61175595933831228896463795071564,2433.2,1.41175595933831228896463795071564
79,2497.41432383443115955095429996163702,2496.0,1.41432383443115955095429996163702
80,2561.01685934315153820386692140127724,2559.6,1.41685934315153820386692140127724
81,2625.41936329178512687027622967824229,2624.0,1.41936329178512687027622967824229
82,2690.62183645684597308429845760776502,2689.2,1.42183645684597308429845760776502
83,2756.62427958652498977055222039629924,2755.2,1.42427958652498977055222039629924
84,2823.42669340205138688468564694684578,2822.0,1.42669340205138688468564694684578
85,2891.02907859897324763627396443965054,2889.6,1.42907859897324763627396443965054
86,2959.43143584836294284950115996899826,2958.0,1.43143584836294284950115996899826
87,3028.63376579795261954623970772745232,3027.2,1.43376579795261954623970772745232
88,3098.63606907320457645840636865860077,3097.2,1.43606907320457645840636865860077
89,3169.43834627832095567431058901787755,3168.0,1.43834627832095567431058901787755
90,3241.04059799719683640698273383009271,3239.6,1.44059799719683640698273383009271
91,3313.44282479432049542041875986528829,3312.0,1.44282479432049542041875986528829
92,3386.64502721562431035213852124413618,3385.2,1.44502721562431035213852124413618
93,3460.64720578928951991539955759323885,3459.2,1.44720578928951991539955759323885
94,3535.44936102650781203566987083721886,3534.0,1.44936102650781203566987083721886
95,3611.05149342220248982193432099210901,3609.6,1.45149342220248982193432099210901
96,3687.45360345571176345129268252227121,3686.0,1.45360345571176345129268252227121
97,3764.65569159143653170319804996404923,3763.2,1.45569159143653170319804996404923
98,3842.65775827945484400538921810675690,3841.2,1.45775827945484400538921810675690
99,3921.45980395610508038138195534208589,3920.0,1.45980395610508038138195534208589
100,4001.06182904453974034896765943958955,3999.6,1.46182904453974034896765943958955
101,4081.46383395525160251501366603223289,4080.0,1.46383395525160251501366603223289
102,4162.66581908657389103713830546125556,4161.2,1.46581908657389103713830546125556
103,4244.66778482515597720922088887441969,4243.2,1.46778482515597720922088887441969
104,4327.46973154641603716299668954203899,4326.0,1.46973154641603716299668954203899
105,4411.07165961497199360422968512542512,4409.6,1.47165961497199360422968512542512
106,4495.47356938505197873771254165672376,4494.0,1.47356938505197873771254165672376
107,4580.67546120088547745338757388603801,4579.2,1.47546120088547745338757388603801
108,4666.67733539707623060632845866568469,4665.2,1.47733539707623060632845866568469
109,4753.47919229895790962978797805144925,4752.0,1.47919229895790962978797805144925
110,4841.08103222293351130039227815945807,4839.6,1.48103222293351130039227815945807
111,4929.48285547679935561336348168647612,4928.0,1.48285547679935561336348168647612
112,5018.68466236005452029201921994465567,5017.2,1.48466236005452029201921994465567
113,5108.68645316419648992000350522923680,5107.2,1.48645316419648992000350522923680
114,5199.48822817300374892694704606076679,5198.0,1.48822817300374892694704606076679
115,5291.08998766280600720975265339057342,5289.6,1.48998766280600720975265339057342
116,5383.49173190274269884005318413070079,5382.0,1.49173190274269884005318413070079
117,5476.69346115501036259538274772424326,5475.2,1.49346115501036259538274772424326
118,5570.69517567509947202049625500679489,5569.2,1.49517567509947202049625500679489
119,5665.49687571202124901155635467336679,5664.0,1.49687571202124901155635467336679
120,5761.09856150852496907367180550990968,5759.6,1.49856150852496907367180550990968
121,5857.50023330130622813502696680046996,5856.0,1.50023330130622813502696680046996
122,5954.70189132120662188770960108941740,5953.2,1.50189132120662188770960108941740
123,6052.70353579340525643241207452628513,6051.2,1.50353579340525643241207452628513
124,6151.50516693760249132437247837152654,6150.0,1.50516693760249132437247837152654
125,6251.10678496819628655165922600972491,6249.6,1.50678496819628655165922600972491
126,6351.50839009445150977960504633226350,6350.0,1.50839009445150977960504633226350
127,6452.70998252066253961730990485820113,6451.2,1.50998252066253961730990485820113
128,6554.71156244630947807494287887195261,6553.2,1.51156244630947807494287887195261
129,6657.51313006620827330733453440970746,6656.0,1.51313006620827330733453440970746
130,6761.11468557065503535748439575482218,6759.6,1.51468557065503535748439575482218
131,6865.51622914556481220948995580378857,6864.0,1.51622914556481220948995580378857
132,6970.71776097260507848320335877789966,6969.2,1.51776097260507848320335877789966
133,7076.71928122932417732133698703422013,7075.2,1.51928122932417732133698703422013
134,7183.52079008927494474378171915034054,7182.0,1.52079008927494474378171915034054
135,7291.12228772213372763555818670015181,7289.6,1.52228772213372763555818670015181
136,7399.52377429381500284729127624408962,7398.0,1.52377429381500284729127624408962
137,7508.72524996658179157915505353276888,7507.2,1.52524996658179157915505353276888
138,7618.72671489915204960724414217372915,7617.2,1.52671489915204960724414217372915
139,7729.52816924680121180542249019732970,7728.0,1.52816924680121180542249019732970
140,7841.12961316146105396973196079150973,7839.6,1.52961316146105396973196079150973
141,7953.53104679181503039495344231643232,7952.0,1.53104679181503039495344231643232
142,8066.73247028339023757964621957219210,8065.2,1.53247028339023757964621957219210
143,8180.73388377864614578582189821891711,8179.2,1.53388377864614578582189821891711
144,8295.53528741706023299977259636993680,8294.0,1.53528741706023299977259636993680
145,8411.13668133521065165281363625535813,8409.6,1.53668133521065165281363625535813
146,8527.53806566685605059195067567121668,8526.0,1.53806566685605059195067567121668
147,8644.73944054301266658751474774627286,8643.2,1.53944054301266658751474774627286
148,8762.74080609202880070677587437400289,8761.2,1.54080609202880070677587437400289
149,8881.54216243965678135447130459146791,8880.0,1.54216243965678135447130459146791
150,9001.14350970912251762110754992452727,8999.6,1.54350970912251762110754992452727
151,9121.54484802119273885327188799867655,9120.0,1.54484802119273885327188799867655
152,9242.74617749424001074510383370738036,9241.2,1.54617749424001074510383370738036
153,9364.74749824430561690060110712483456,9363.2,1.54749824430561690060110712483456
154,9487.54881038516038976598226318995671,9486.0,1.54881038516038976598226318995671
155,9611.15011402836356916807883891594199,9609.6,1.55011402836356916807883891594199
156,9735.55140928331976632509970578198718,9734.0,1.55140928331976632509970578198718
157,9860.75269625733410437635005429952053,9859.2,1.55269625733410437635005429952053
158,9986.75397505566560724898571501780702,9985.2,1.55397505566560724898571501780702
159,10113.5552457815789005346149517789417,10112.0,1.5552457815789005346149517789417
160,10241.1565085363942907132647703668345,10239.6,1.5565085363942907132647703668345
161,10369.5577634195362812208096553341480,10368.0,1.5577634195362812208096553341480
162,10498.7590105285805848209415453941841,10497.2,1.5590105285805848209415453941841
163,10628.7602499592996871349574503468638,10627.2,1.5602499592996871349574503468638
164,10759.5614818057070159659373973499856,10758.0,1.5614818057070159659373973499856
165,10891.1627061600997650175078012714225,10889.6,1.5627061600997650175078012714225
166,11023.5639231131004225227563110791663,11022.0,1.5639231131004225227563110791663
167,11156.7651327536970520155955609014971,11155.2,1.5651327536970520155955609014971
168,11290.7663351692823679334671498464863,11289.2,1.5663351692823679334671498464863
169,11425.5675304456916511134538976740862,11424.0,1.5675304456916511134538976740862
170,11561.1687186672395439248946184654695,11559.6,1.5687186672395439248946184654695
171,11697.5698999167557652329396567774523,11696.0,1.5698999167557652329396567774523
172,11834.7710742756197830596836529289862,11833.2,1.5710742756197830596836529289862
173,11972.7722418237944803451842645887788,11971.2,1.5722418237944803451842645887788
174,12111.5734026398588496518592641094416,12110.0,1.5734026398588496518592641094416
175,12251.1745568010397507971733870728458,12249.6,1.5745568010397507971733870728458
176,12391.5757043832427611209461667306422,12390.0,1.5757043832427611209461667306422
177,12532.7768454610821516477968549442937,12531.2,1.5768454610821516477968549442937
178,12674.7779801079100182991012464284050,12673.2,1.5779801079100182991012464284050
179,12817.5791083958445945993848903690910,12816.0,1.5791083958445945993848903690910
180,12961.1802303957977768235306437533063,12959.6,1.5802303957977768235306437533063
181,13105.5813461775018842333653269747685,13104.0,1.5813461775018842333653269747685
182,13250.7824558095356820989900902337581,13249.2,1.5824558095356820989900902337581
183,13396.7835593593496905541072827003572,13395.2,1.5835593593496905541072827003572
184,13543.5846568932908035268591497816508,13542.0,1.5846568932908035268591497816508
185,13691.1857484766262395542808844655949,13689.6,1.5857484766262395542808844655949
186,13839.5868341735668454489661730444809,13838.0,1.5868341735668454489661730444809
187,13988.7879140472897766184224218157101,13987.2,1.5879140472897766184224218157101
188,14138.7889881599605694734088615671029,14137.2,1.5889881599605694734088615671029
189,14289.5900565727546296563247013014831,14288.0,1.5900565727546296563247013014831
190,14441.1911193458781517407010859229015,14439.6,1.5911193458781517407010859229015
191,14593.5921765385884896243247163170721,14592.0,1.5921765385884896243247163170721
192,14746.7932282092139939981715366221122,14745.2,1.5932282092139939981715366221122
193,14900.7942744151733351949734083232905,14899.2,1.5942744151733351949734083232905
194,15055.5953152129943247581748761656382,15054.0,1.5953152129943247581748761656382
195,15211.1963506583322536636126723883650,15209.6,1.5963506583322536636126723883650
196,15367.5973808059877608857917065890872,15366.0,1.5973808059877608857917065890872
197,15524.7984057099242466840515841505024,15523.2,1.5984057099242466840515841505024
198,15682.7994254232848447705759565133001,15681.2,1.5994254232848447705759565133001
199,15841.6004399984089661940716767447624,15840.0,1.6004399984089661940716767447624
200,16001.2014494868484288792898113778147,15999.6,1.6014494868484288792898113778147
201,16161.6024539393831837987789888583784,16160.0,1.6024539393831837987789888583784
202,16322.8034534060366511529944538856823,16321.2,1.6034534060366511529944538856823
203,16484.8044479360906772134561401024180,16483.2,1.6044479360906772134561401024180
204,16647.6054375781001234438297119717399,16646.0,1.6054375781001234438297119717399
205,16811.2064223799070978642545257956661,16809.6,1.6064223799070978642545257956661
206,16975.6074023886548416776278054777801,16974.0,1.6074023886548416776278054777801
207,17140.8083776508012770284831749135313,17139.2,1.6083776508012770284831749135313
208,17306.8093482121322301158806109104188,17305.2,1.6093482121322301158806109104188
209,17473.6103141177743354031482768737676,17472.0,1.6103141177743354031482768737676
210,17641.2112754122076324200883407349836,17639.6,1.6112754122076324200883407349836
211,17809.6122321392778625166160850320229,17808.0,1.6122321392778625166160850320229
212,17978.8131843422084757949677904954654,17977.2,1.6131843422084757949677904954654
213,18148.8141320636123525983794345298676,18147.2,1.6141320636123525983794345298676
214,18319.6150753455032545319322146074631,18318.0,1.6150753455032545319322146074631
215,18491.2160142293070042218044654785455,18489.6,1.6160142293070042218044654785455
216,18663.6169487558724077673940535675788,18662.0,1.6169487558724077673940535675788
217,18836.8178789654819238453608343603397,18835.2,1.6178789654819238453608343603397
218,19010.8188048978620884380464959630027,19009.2,1.6188048978620884380464959630027
219,19185.6197265921936984592155611919935,19184.0,1.6197265921936984592155611919935
220,19361.2206440871217667852522530550481,19359.6,1.6206440871217667852522530550481
221,19537.6215574207652465941114751751921,19536.0,1.6215574207652465941114751751921
222,19714.8224666307265422093964160334398,19713.2,1.6224666307265422093964160334398
223,19892.8233717541008000104025833458234,19891.2,1.6233717541008000104025833458234
224,20071.6242728274849944674334954529082,20070.0,1.6242728274849944674334954529082
225,20251.2251698869868118589396669051630,20249.6,1.6251698869868118589396669051630
226,20431.6260629682333352084291128401117,20430.0,1.6260629682333352084291128401117
227,20612.8269521063795390840043067531625,20611.2,1.6269521063795390840043067531625
228,20794.8278373361165960707337889814926,20793.2,1.6278373361165960707337889814926
229,20977.6287186916800020680099224054468,20976.0,1.6287186916800020680099224054468
230,21161.2295962068575250981382490465252,21159.6,1.6295962068575250981382490465252
231,21345.6304699149969794154298126593487,21344.0,1.6304699149969794154298126593487
232,21530.8313398490138353247185760222863,21529.2,1.6313398490138353247185760222863
233,21716.8322060413986596948094566265616,21715.2,1.6322060413986596948094566265616
234,21903.6330685242244033129241671075673,21902.0,1.6330685242244033129241671075673
235,22091.2339273291535282512464674973891,22089.6,1.6339273291535282512464674973891
236,22279.6347824874449849443363647577729,22278.0,1.6347824874449849443363647577729
237,22468.8356340299610425975419586954549,22467.2,1.6356340299610425975419586954549
238,22658.8364819871739746574210323891891,22657.2,1.6364819871739746574210323891891
