Eigenstate,Energy,Kinetic Energy,Potential Energy
1,0.500000000053875480948752467238796073,0.0,0.500000000053875480948752467238796073
2,1.84623093800278589427262584186269020,1.2,0.64623093800278589427262584186269020
3,3.93633761073798243358884099422722410,3.2,0.73633761073798243358884099422722410
4,6.79966527996587646032160800602689740,6.0,0.79966527996587646032160800602689740
5,10.4480465790127680333884246268620054,9.6,0.8480465790127680333884246268620054
6,14.8870660026375957836124798364077086,14.0,0.8870660026375957836124798364077086
7,20.1197208322805376162257938729623537,19.2,0.9197208322805376162257938729623537
8,26.1477838543196068768755863369274549,25.2,0.9477838543196068768755863369274549
9,32.9723835677617135491172828170118013,32.0,0.9723835677617135491172828170118013
10,40.5942802267558382577234260040715547,39.6,0.9942802267558382577234260040715547
11,49.0140094014433078676324337485288646,48.0,1.0140094014433078676324337485288646
12,58.2319621871289711868773108018112425,57.2,1.0319621871289711868773108018112425
13,68.2484327138788147579508330259847497,67.2,1.0484327138788147579508330259847497
14,79.0636476793761381943988931153293027,78.0,1.0636476793761381943988931153293027
15,90.6777854647357473961910107691097085,89.6,1.0777854647357473961910107691097085
16,103.090988939374404915045778588927736,102.0,1.090988939374404915045778588927736
17,116.303374294472337837356506757780525,115.2,1.103374294472337837356506757780525
18,130.315037293979439714120322786947672,129.2,1.115037293979439714120322786947672
19,145.126057797719249945872905215414403,144.0,1.126057797719249945872905215414403
20,160.736503099022891518015114403386244,159.6,1.136503099022891518015114403386244
21,177.146430430810769140577886862403603,176.0,1.146430430810769140577886862403603
22,194.355888876751310107118544404170956,193.2,1.155888876751310107118544404170956
23,212.364920849197489505364646778237910,211.2,1.164920849197489505364646778237910
24,231.173563246587252807320617129731602,230.0,1.173563246587252807320617129731602
25,250.781848370239442599743442433973073,249.6,1.181848370239442599743442433973073
26,271.189804658161386604714829198782588,270.0,1.189804658161386604714829198782588
27,292.397457278011473732929328262390075,291.2,1.197457278011473732929328262390075
28,314.404828610458194099145577110928347,313.2,1.204828610458194099145577110928347
29,337.211938646382091104929713864964982,336.0,1.211938646382091104929713864964982
30,360.818805315717586122538641156031242,359.6,1.218805315717586122538641156031242
31,385.225444761585697812295989715573603,384.0,1.225444761585697812295989715573603
32,410.431871570290778520068311110982501,409.2,1.231871570290778520068311110982501
33,436.438098965444742396579949169078710,435.2,1.238098965444742396579949169078710
34,463.244138972731713613612704393009956,462.0,1.244138972731713613612704393009956
35,490.850002560486827986048532014326684,489.6,1.250002560486827986048532014326684
36,519.255699760229442429882537810519977,518.0,1.255699760229442429882537810519977
37,548.461239770486922137611769856168061,547.2,1.261239770486922137611769856168061
38,578.466631046614756609112714913413370,577.2,1.266631046614756609112714913413370
39,609.271881378820907026489360526855252,608.0,1.271881378820907026489360526855252
40,640.876997960206466677743066047858810,639.6,1.276997960206466677743066047858810
41,673.281987446317965860329289480537693,672.0,1.281987446317965860329289480537693
42,706.486856007451660094110928680130813,705.2,1.286856007451660094110928680130813
43,740.491609374743654128263181528207282,739.2,1.291609374743654128263181528207282
44,775.296252880911620211150865233243879,774.0,1.296252880911620211150865233243879
45,810.900791496376299523179112897352941,809.6,1.300791496376299523179112897352941
46,847.305229861377839390006979936976054,846.0,1.305229861377839390006979936976054
47,884.509572314608542281167983717258566,883.2,1.309572314608542281167983717258566
48,922.513822918806016234882565610211324,921.2,1.313822918806016234882565610211324
49,961.317985483686053805942149379548396,960.0,1.317985483686053805942149379548396
50,1000.92206358654044391988420937969785,999.6,1.32206358654044391988420937969785
51,1041.32606059077945405419966719519739,1040.0,1.32606059077945405419966719519739
52,1082.52997966266037495300977750761363,1081.2,1.32997966266037495300977750761363
53,1124.53382378641106996309987731155181,1123.2,1.33382378641106996309987731155181
54,1167.33759577792990994773809076393259,1166.0,1.33759577792990994773809076393259
55,1210.94129829721999924219256392854391,1209.6,1.34129829721999924219256392854391
56,1255.34493385969552354473347747086606,1254.0,1.34493385969552354473347747086606
57,1300.54850484648085167178516015731035,1299.2,1.34850484648085167178516015731035
58,1346.55201351380822591960131976659937,1345.2,1.35201351380822591960131976659937
59,1393.35546200160712182755969165594202,1392.0,1.35546200160712182755969165594202
60,1440.95885234136733363046928248970884,1439.6,1.35885234136733363046928248970884
61,1489.36218646334827745977770083291366,1488.0,1.36218646334827745977770083291366
62,1538.56546620319870334845195507139094,1537.2,1.36546620319870334845195507139094
63,1588.56869330804376520528469231088146,1587.2,1.36869330804376520528469231088146
64,1639.37186944209008544445521837554973,1638.0,1.37186944209008544445521837554973
65,1690.97499619179391611620142196146945,1689.6,1.37499619179391611620142196146945
66,1743.37807507063265104540400620242591,1742.0,1.37807507063265104540400620242591
67,1796.58110752351568119355833996877146,1795.2,1.38110752351568119355833996877146
68,1850.58409493086682929880030892291131,1849.2,1.38409493086682929880030892291131
69,1905.38703861240728717792553063732179,1904.0,1.38703861240728717792553063732179
70,1960.98993983066505080607674401768680,1959.6,1.38993983066505080607674401768680
71,2017.39279979423424958604322606063644,2016.0,1.39279979423424958604322606063644
72,2074.59561966080546797673554779449473,2073.2,1.39561966080546797673554779449473
73,2132.59840053998610464399574995037174,2131.2,1.39840053998610464399574995037174
74,2191.40114349592799544834970438244833,2190.0,1.40114349592799544834970438244833
75,2251.00384954977789548320550957749199,2249.6,1.40384954977789548320550957749199
76,2311.40651968196496582024612946428402,2310.0,1.40651968196496582024612946428402
77,2372.60915483433810822034645663542590,2371.2,1.40915483433810822034645663542590
78,2434.61175591216482527016452996046363,2433.2,1.41175591216482527016452996046363
79,2497.41432378600223658456431903737218,2496.0,1.41432378600223658456431903737218
80,2561.01685929344994358938281073745235,2559.6,1.41685929344994358938281073745235
81,2625.41936324079358605757765925002209,2624.0,1.41936324079358605757765925002209
82,2690.62183640454717212123785787487019,2689.2,1.42183640454717212123785787487019
83,2756.62427953290157474815016240232846,2755.2,1.42427953290157474815016240232846
84,2823.42669334708596337989790926936038,2822.0,1.42669334708596337989790926936038
85,2891.02907854264838015229499469580956,2889.6,1.42907854264838015229499469580956
86,2959.43143579066115425356841909304753,2958.0,1.43143579066115425356841909304753
87,3028.63376573885639050490298647582027,3027.2,1.43376573885639050490298647582027
88,3098.63606901269634487022586112671331,3097.2,1.43606901269634487022586112671331
89,3169.43834621638311609994718692034040,3168.0,1.43834621638311609994718692034040
90,3241.04059793381173949664370378387312,3239.6,1.44059793381173949664370378387312
91,3313.44282472947044733862157768102869,3312.0,1.44282472947044733862157768102869
92,3386.64502714929157219975540622237342,3385.2,1.44502714929157219975540622237342
93,3460.64720572145630714894482097516561,3459.2,1.44720572145630714894482097516561
94,3535.44936095715629388379196035226729,3534.0,1.44936095715629388379196035226729
95,3611.05149335131478869907405726388024,3609.6,1.45149335131478869907405726388024
96,3687.45360338326995436846885133495652,3686.0,1.45360338326995436846885133495652
97,3764.65569151742264167588123855366953,3763.2,1.45569151742264167588123855366953
98,3842.65775820385085145842438117107880,3841.2,1.45775820385085145842438117107880
99,3921.45980387889291455091989004554208,3920.0,1.45980387889291455091989004554208
100,4001.06182896570128068136524591614813,3999.6,1.46182896570128068136524591614813
101,4081.46383387476867806266233246303332,4080.0,1.46383387476867806266233246303332
102,4162.66581900442827985117990175191181,4161.2,1.46581900442827985117990175191181
103,4244.66778474132940572910972862752940,4243.2,1.46778474132940572910972862752940
104,4327.46973146089017960286624042096956,4326.0,1.46973146089017960286624042096956
105,4411.07165952772847133602196739219906,4409.6,1.47165952772847133602196739219906
106,4495.47356929607235967102793925299048,4494.0,1.47356929607235967102793925299048
107,4580.67546111015127541201246043019851,4579.2,1.47546111015127541201246043019851
108,4666.67733530456890470139759057347998,4665.2,1.47733530456890470139759057347998
109,4753.47919220465886362953827077883570,4752.0,1.47919220465886362953827077883570
110,4841.08103212682409299646420381148616,4839.6,1.48103212682409299646420381148616
111,4929.48285537886085618360592361448040,4928.0,1.48285537886085618360592361448040
112,5018.68466226026817365975327052890943,5017.2,1.48466226026817365975327052890943
113,5108.68645306254347210970024771875735,5107.2,1.48645306254347210970024771875735
114,5199.48822806946517741627398923384265,5198.0,1.48822806946517741627398923384265
115,5291.08998755736294027794312317828046,5289.6,1.48998755736294027794312317828046
116,5383.49173179537613491255245288141491,5382.0,1.49173179537613491255245288141491
117,5476.69346104570123958472440492684708,5475.2,1.49346104570123958472440492684708
118,5570.69517556382866666336183335522856,5569.2,1.49517556382866666336183335522856
119,5665.49687559876957620197077608240266,5664.0,1.49687559876957620197077608240266
120,5761.09856139327318119228686158794449,5759.6,1.49856139327318119228686158794449
121,5857.50023318403501437444451823713767,5856.0,1.50023318403501437444451823713767
122,5954.70189120189660757379581627924624,5953.2,1.50189120189660757379581627924624
123,6052.70353567203700234155352974736296,6051.2,1.50353567203700234155352974736296
124,6151.50516681415649299662451626271275,6150.0,1.50516681415649299662451626271275
125,6251.10678484265297359973649200400412,6249.6,1.50678484265297359973649200400412
126,6351.50838996679124519366366916918653,6350.0,1.50838996679124519366366916918653
127,6452.70998239086561906547031287683614,6451.2,1.50998239086561906547031287683614
128,6554.71156231435612919950177309712049,6553.2,1.51156231435612919950177309712049
129,6657.51312993207865501661398064092322,6656.0,1.51312993207865501661398064092322
130,6761.11468543432923711326562287992302,6759.6,1.51468543432923711326562287992302
131,6865.51622900702285330997892047968291,6864.0,1.51622900702285330997892047968291
132,6970.71776083182690734147452678258346,6969.2,1.51776083182690734147452678258346
133,7076.71928108628967073920142830099826,7075.2,1.51928108628967073920142830099826
134,7183.52078994396390718102489628861741,7182.0,1.52078994396390718102489628861741
135,7291.12228757452589047449257231003108,7289.6,1.52228757452589047449257231003108
136,7399.52377414389002365256806609352949,7398.0,1.52377414389002365256806609352949
137,7508.72524981431925335277898394713203,7507.2,1.52524981431925335277898394713203
138,7618.72671474453146003873470503960268,7617.2,1.52671474453146003873470503960268
139,7729.52816908980200251706437239018127,7728.0,1.52816908980200251706437239018127
140,7841.12961300206257975685691510455715,7839.6,1.52961300206257975685691510455715
141,7953.53104662999656846119525171825462,7952.0,1.53104662999656846119525171825462
142,8066.73247011913098676710978391165602,8065.2,1.53247011913098676710978391165602
143,8180.73388361192522580010705168314964,8179.2,1.53388361192522580010705168314964
144,8295.53528724785668362979242157011456,8294.0,1.53528724785668362979242157011456
145,8411.13668116350343198534667458284437,8409.6,1.53668116350343198534667458284437
146,8527.53806549262403822086561532657986,8526.0,1.53806549262403822086561532657986
147,8644.73944036623465681760579011767920,8643.2,1.53944036623465681760579011767920
148,8762.74080591268350575214603759231468,8761.2,1.54080591268350575214603759231468
149,8881.54216225772282953140062148067970,8880.0,1.54216225772282953140062148067970
150,9001.14350952457845253534219788287704,8999.6,1.54350952457845253534219788287704
151,9121.54484783401701858166982752823310,9120.0,1.54484783401701858166982752823310
152,9242.74617730441100701157174077352104,9241.2,1.54617730441100701157174077352104
153,9364.74749805180161424625678787773821,9363.2,1.54749805180161424625678787773821
154,9487.54881018995958471347605009376296,9486.0,1.54881018995958471347605009376296
155,9611.15011383044406938000670013771444,9609.6,1.55011383044406938000670013771444
156,9735.55140908265958975644015694325981,9734.0,1.55140908265958975644015694325981
157,9860.75269605391117842085638613908933,9859.2,1.55269605391117842085638613908933
158,9986.75397484945776787946396339930446,9985.2,1.55397484945776787946396339930446
159,10113.5552455725638914370178001885844,10112.0,1.5552455725638914370178001885844
160,10241.1565083245497624145303442514787,10239.6,1.5565083245497624145303442514787
161,10369.5577632048397902103738320291222,10368.0,1.5577632048397902103738320291222
162,10498.7590103110095926658513415510385,10497.2,1.5590103110095926658513415510385
163,10628.7602497388315595885123927689523,10627.2,1.5602497388315595885123927689523
164,10759.5614815823190220697851122771130,10758.0,1.5614815823190220697851122771130
165,10891.1627059337690761971190426779503,10889.6,1.5627059337690761971190426779503
166,11023.5639228838041116762040387124579,11022.0,1.5639228838041116762040387124579
167,11156.7651325214120925955617529829005,11155.2,1.5651325214120925955617529829005
168,11290.7663349339856330224002139629260,11289.2,1.5663349339856330224002139629260
169,11425.5675302073599124917988124906334,11424.0,1.5675302073599124917988124906334
170,11561.1687184258494711323169275048007,11559.6,1.5687184258494711323169275048007
171,11697.5698996722839246224637248101392,11696.0,1.5698996722839246224637248101392
172,11834.7710740280426368446646789769095,11833.2,1.5710740280426368446646789769095
173,11972.7722415730883856390325654246975,11971.2,1.5722415730883856390325654246975
174,12111.5734023860000575004345844169377,12110.0,1.5734023860000575004345844169377
175,12251.1745565440044052037659747373155,12249.6,1.5745565440044052037659747373155
176,12391.5757041230068980637605498125731,12390.0,1.5757041230068980637605498125731
177,12532.7768451976216980898531965873043,12531.2,1.5768451976216980898531965873043
178,12674.7779798412007911904682738410844,12673.2,1.5779798412007911904682738410844
179,12817.5791081258622998716574726075577,12816.0,1.5791081258622998716574726075577
180,12961.1802301225180083764639716626101,12959.6,1.5802301225180083764639716626101
181,13105.5813459009001229135768577009412,13104.0,1.5813459009001229135768577009412
182,13250.7824555295872946706392264550037,13249.2,1.5824555295872946706392264550037
183,13396.7835590760299286614619696747229,13395.2,1.5835590760299286614619696747229
184,13543.5846566065748026486572913374835,13542.0,1.5846566065748026486572913374835
185,13691.1857481864890179497935779233383,13689.6,1.5857481864890179497935779233383
186,13839.5868338799833030956687525073574,13838.0,1.5868338799833030956687525073574
187,13988.7879137502346941411780892937765,13987.2,1.5879137502346941411780892937765
188,14138.7889878594086070650686612923892,14137.2,1.5889878594086070650686612923892
189,14289.5900562686803259896465615448867,14288.0,1.5900562686803259896465615448867
190,14441.1911190382559228714893795856868,14439.6,1.5911190382559228714893795856868
191,14593.5921762273926278856908605402273,14592.0,1.5921762273926278856908605402273
192,14746.7932278944186668858147875960825,14745.2,1.5932278944186668858147875960825
193,14900.7942740967525842433799822267139,14899.2,1.5942740967525842433799822267139
194,15055.5953148909220644076323292763208,15054.0,1.5953148909220644076323292763208
195,15211.1963503325822701179352069158561,15209.6,1.5963503325822701179352069158561
196,15367.5973804765337109606508908846177,15366.0,1.5973804765337109606508908846177
197,15524.7984053767396566458058266376208,15523.2,1.5984053767396566458058266376208
198,15682.7994250863431091654906763132884,15681.2,1.5994250863431091654906763132884
199,15841.6004396576833466678209057817570,15840.0,1.6004396576833466678209057817570
200,16001.2014491423120529866288080172051,15999.6,1.6014491423120529866288080172051
201,16161.6024535910090438032758140188212,16160.0,1.6024535910090438032758140188212
202,16322.8034530537976028167075516695961,16321.2,1.6034530537976028167075516695961
203,16484.8044475799594385764432417457865,16483.2,1.6044475799594385764432417457865
204,16647.6054372180492735933723671848256,16646.0,1.6054372180492735933723671848256
205,16811.2064220159090756936807538387481,16809.6,1.6064220159090756936807538387481
206,16975.6074020206819446346145772413457,16974.0,1.6074020206819446346145772413457
207,17140.8083772788256598527184229432168,17139.2,1.6083772788256598527184229432168
208,17306.8093478361259035659633164605804,17305.2,1.6093478361259035659633164605804
209,17473.6103137377091649726035498561223,17472.0,1.6103137377091649726035498561223
210,17641.2112750280553370423733288081235,17639.6,1.6112750280553370423733288081235
211,17809.6122317510100132589904882455236,17808.0,1.6122317510100132589904882455236
212,17978.8131839497964945411017582107217,17977.2,1.6131839497964945411017582107217
213,18148.8141316670275107195695197838213,18147.2,1.6141316670275107195695197838213
214,18319.6150749447166715467951281995386,18318.0,1.6150749447166715467951281995386
215,18491.2160138242896464443162625042119,18489.6,1.6160138242896464443162625042119
216,18663.6169483465950869431411056560497,18662.0,1.6169483465950869431411056560497
217,18836.8178785519152957758668767091906,18835.2,1.6178785519152957758668767091906
218,19010.8188044799766515930391481177340,19009.2,1.6188044799766515930391481177340
219,19185.6197261699597925766931244875825,19184.0,1.6197261699597925766931244875825
220,19361.2206436605095714592105647289219,19359.6,1.6206436605095714592105647289219
221,19537.6215569897447798497884479115837,19536.0,1.6215569897447798497884479115837
222,19714.8224661952676590658905885626345,19713.2,1.6224661952676590658905885626345
223,19892.8233713141731910305194977986659,19891.2,1.6233713141731910305194977986659
224,20071.6242723830581842946127858009582,20070.0,1.6242723830581842946127858009582
225,20251.2251694380301577411131838151806,20249.6,1.6251694380301577411131838151806
226,20431.6260625147160255086590493782000,20430.0,1.6260625147160255086590493782000
227,20612.8269516482705917777480171685968,20611.2,1.6269516482705917777480171685968
228,20794.8278368733848572295803031352990,20793.2,1.6278368733848572295803031352990
229,20977.6287182242941443297311950243361,20976.0,1.6287182242941443297311950243361
230,21161.2295957347860461228960789495466,21159.6,1.6295957347860461228960789495466
231,21345.6304694382082003279776056066680,21344.0,1.6304694382082003279776056066680
232,21530.8313393674758991424349580225885,21529.2,1.6313393674758991424349580225885
233,21716.8322055550795297413983198771233,21715.2,1.6322055550795297413983198771233
234,21903.6330680330918616176144811953319,21902.0,1.6330680330918616176144811953319
235,22091.2339268331751739333222326166607,22089.6,1.6339268331751739333222326166607
236,22279.6347819865882325828253809765907,22278.0,1.6347819865882325828253809765907
237,22468.8356335241931205858898260553620,22467.2,1.6356335241931205858898260553620
238,22658.8364814764619235429746073652431,22657.2,1.6364814764619235429746073652431
