Eigenstate,Energy,Kinetic Energy,Potential Energy
1,0.500000001783753316293620350105076502,0.0,0.500000001783753316293620350105076502
2,1.84623094929505539949536623288090240,1.2,0.64623094929505539949536623288090240
3,3.93633764391052367983856563089618100,3.2,0.73633764391052367983856563089618100
4,6.79966534906737258712418728919196316,6.0,0.79966534906737258712418728919196316
5,10.4480466987258901073973843746613281,9.6,0.8480466987258901073973843746613281
6,14.8870661879116169622142787645698271,14.0,0.8870661879116169622142787645698271
7,20.1197210981975541579128777710242200,19.2,0.9197210981975541579128777710242200
8,26.1477842160402154946850764996019498,25.2,0.9477842160402154946850764996019498
9,32.9723840405011046412442269424088768,32.0,0.9723840405011046412442269424088768
10,40.5942808257729134825029325008647984,39.6,0.9942808257729134825029325008647984
11,49.0140101420359348179952665880846446,48.0,1.0140101420359348179952665880846446
12,58.2319630846323714682530465793124139,57.2,1.0319630846323714682530465793124139
13,68.2484337836656641151298543800750490,67.2,1.0484337836656641151298543800750490
14,79.0636489368576583012002181095617589,78.0,1.0636489368576583012002181095617589
15,90.6777869253634024189420304951426688,89.6,1.0777869253634024189420304951426688
16,103.090990618641984619071139964761188,102.0,1.090990618641984619071139964761188
17,116.303376207918298907273379974560003,115.2,1.103376207918298907273379974560003
18,130.315039457189427118963267524271242,129.2,1.115039457189427118963267524271242
19,145.126060226328749307863532490094848,144.0,1.126060226328749307863532490094848
20,160.736505808719980965123289448424857,159.6,1.136505808719980965123289448424857
21,177.146433437338949998378657273993998,176.0,1.146433437338949998378657273993998
22,194.355892195912402728180253943902014,193.2,1.155892195912402728180253943902014
23,212.364924496854585080770557925807683,211.2,1.164924496854585080770557925807683
24,231.173567238667715052058906214564977,230.0,1.173567238667715052058906214564977
25,250.781852722737955290335384720809122,249.6,1.181852722737955290335384720809122
26,271.189809387143044405370266201280425,270.0,1.189809387143044405370266201280425
27,292.397462399614914784825339567735170,291.2,1.197462399614914784825339567735170
28,314.404834140898773600692355336094483,313.2,1.204834140898773600692355336094483
29,337.211944601955095667419801597801701,336.0,1.211944601955095667419801597801701
30,360.818811712801489104350314141753553,359.6,1.218811712801489104350314141753553
31,385.225451616645456155887752278430597,384.0,1.225451616645456155887752278430597
32,410.431878899881171866967087176399296,409.2,1.231878899881171866967087176399296
33,436.438106786213755455743364979718226,435.2,1.238106786213755455743364979718226
34,463.244147301423962921618968805429911,462.0,1.244147301423962921618968805429911
35,490.850011413947034333364766124070276,489.6,1.250011413947034333364766124070276
36,519.255709155405950343111698184652772,518.0,1.255709155405950343111698184652772
37,548.461249724435267908374780161624825,547.2,1.261249724435267908374780161624825
38,578.466641576501286449972070554523410,577.2,1.266641576501286449972070554523410
39,609.271892501926447015998666117549028,608.0,1.271892501926447015998666117549028
40,640.877009693930046232529348535652207,639.6,1.277009693930046232529348535652207
41,673.281999808180596543792902769438011,672.0,1.281999808180596543792902769438011
42,706.486869015100171640183587182139602,705.2,1.286869015100171640183587182139602
43,740.491623045954589625739410862356865,739.2,1.291623045954589625739410862356865
44,775.296267233595192460228248134338952,774.0,1.296267233595192460228248134338952
45,810.900806548580410641673818698823577,809.6,1.300806548580410641673818698823577
46,847.305245631292165812801237295091196,846.0,1.305245631292165812801237295091196
47,884.509588820568687363241318026873925,883.2,1.309588820568687363241318026873925
48,922.513840179297732736164787567199990,921.2,1.313840179297732736164787567199990
49,961.318003517349538605527888500124274,960.0,1.318003517349538605527888500124274
50,1000.92208241217470737814622639170280,999.6,1.32208241217470737814622639170280
51,1041.32608022734676651430030132742040,1040.0,1.32608022734676651430030132742040
52,1082.53000012929079294844558167454053,1081.2,1.33000012929079294844558167454053
53,1124.53384510240704477545447604732604,1123.2,1.33384510240704477545447604732604
54,1167.33761796277098123895366512336089,1166.0,1.33761796277098123895366512336089
55,1210.94132137056757656859143383982988,1209.6,1.34132137056757656859143383982988
56,1255.34495784139775864591865067578741,1254.0,1.34495784139775864591865067578741
57,1300.54852975657760451659241129596515,1299.2,1.34852975657760451659241129596515
58,1346.55203937253612758366633482936292,1345.2,1.35203937253612758366633482936292
59,1393.35548882940473737295269102631987,1392.0,1.35548882940473737295269102631987
60,1440.95888015888042825744820947491782,1439.6,1.35888015888042825744820947491782
61,1489.36221529143518930418953546306680,1488.0,1.36221529143518930418953546306680
62,1538.56549606293582640586412483582910,1537.2,1.36549606293582640586412483582910
63,1588.56872422073114597475057672988991,1587.2,1.36872422073114597475057672988991
64,1639.37190142925713700111158092566314,1638.0,1.37190142925713700111158092566314
65,1690.97502927520525344288101292582549,1689.6,1.37502927520525344288101292582549
66,1743.37810927229405157932103775387584,1742.0,1.37810927229405157932103775387584
67,1796.58114286568017467513717838246524,1795.2,1.38114286568017467513717838246524
68,1850.58413143604092114609034151303278,1849.2,1.38413143604092114609034151303278
69,1905.38707630335731975205037403410226,1904.0,1.38707630335731975205037403410226
70,1960.98997873042370708100736190625612,1959.6,1.38997873042370708100736190625612
71,2017.39283992610720389002423856927929,2016.0,1.39283992610720389002423856927929
72,2074.59566104837818863311704668437392,2073.2,1.39566104837818863311704668437392
73,2132.59844320713081350641236931480128,2131.2,1.39844320713081350641236931480128
74,2191.40118746681078949940177101983610,2190.0,1.40118746681078949940177101983610
75,2251.00389484886603584740795419168132,2249.6,1.40389484886603584740795419168132
76,2311.40656633403433973131328936174648,2310.0,1.40656633403433973131328936174648
77,2372.60920286448086968031441364624873,2371.2,1.40920286448086968031441364624873
78,2434.61180534579722034372354262614541,2433.2,1.41180534579722034372354262614541
79,2497.41437464887261948674573074010536,2496.0,1.41437464887261948674573074010536
80,2561.01691161164698994881153721368222,2559.6,1.41691161164698994881153721368222
81,2625.41941704075470997132831683735828,2624.0,1.41941704075470997132831683735828
82,2690.62189171306715386138781727006866,2689.2,1.42189171306715386138781727006866
83,2756.62433637714140623490442992588504,2755.2,1.42433637714140623490442992588504
84,2823.42675175458191880219565140812230,2822.0,1.42675175458191880219565140812230
85,2891.02913854132131939466382791438107,2889.6,1.42913854132131939466382791438107
86,2959.43149740882606707822630487629024,2958.0,1.43149740882606707822630487629024
87,3028.63382900523218974138607498103066,3027.2,1.43382900523218974138607498103066
88,3098.63613395641591718174604210235430,3097.2,1.43613395641591718174604210235430
89,3169.43841286700363922698060537561085,3168.0,1.43841286700363922698060537561085
90,3241.04066632132527522465279004403362,3239.6,1.44066632132527522465279004403362
91,3313.44289488431481979905545174278057,3312.0,1.44289488431481979905545174278057
92,3386.64509910236154149242894932166098,3385.2,1.44509910236154149242894932166098
93,3460.64727950411504867036572016022945,3459.2,1.44727950411504867036572016022945
94,3535.44943660124719416096467365511566,3534.0,1.44943660124719416096467365511566
95,3611.05157088917356896267735812774265,3609.6,1.45157088917356896267735812774265
96,3687.45368284773713355413014808864030,3686.0,1.45368284773713355413014808864030
97,3764.65577294185635101864540799917376,3763.2,1.45577294185635101864540799917376
98,3842.65784162214001334455761799618634,3841.2,1.45784162214001334455761799618634
99,3921.45988932547079881416702317109707,3920.0,1.45988932547079881416702317109707
100,4001.06191647555945207893132118294610,3999.6,1.46191647555945207893132118294610
101,4081.46392348347134924094283104801741,4080.0,1.46392348347134924094283104801741
102,4162.66591074812708471401868332157158,4161.2,1.46591074812708471401868332157158
103,4244.66787865677860875370335584352958,4243.2,1.46787865677860875370335584352958
104,4327.46982758546233731200796896453744,4326.0,1.46982758546233731200796896453744
105,4411.07175789943056283186590011163105,4409.6,1.47175789943056283186590011163105
106,4495.47366995356240386689015815628836,4494.0,1.47366995356240386689015815628836
107,4580.67556409275545336682050422610423,4579.2,1.47556409275545336682050422610423
108,4666.67744065229920626836733611904736,4665.2,1.47744065229920626836733611904736
109,4753.47929995823127847874015928911159,4752.0,1.47929995823127847874015928911159
110,4841.08114232767736696246889992077274,4839.6,1.48114232767736696246889992077274
111,4929.48296806917583482695086130461278,4928.0,1.48296806917583482695086130461278
112,5018.68477748298775591718939828030558,5017.2,1.48477748298775591718939828030558
113,5108.68657086139319794596275567653636,5107.2,1.48657086139319794596275567653636
114,5199.48834848897447448250261887518808,5198.0,1.48834848897447448250261887518808
115,5291.09011064288705573213354568801060,5289.6,1.49011064288705573213354568801060
116,5383.49185759311877976901957986575332,5382.0,1.49185759311877976901957986575332
117,5476.69358960273797423620849626553428,5475.2,1.49358960273797423620849626553428
118,5570.69530692813105756510223400476153,5569.2,1.49530692813105756510223400476153
119,5665.49700981923015512597938561805412,5664.0,1.49700981923015512597938561805412
120,5761.09869851973123995680272440173363,5759.6,1.49869851973123995680272440173363
121,5857.50037326730326953287566376149409,5856.0,1.50037326730326953287566376149409
122,5954.70203429378877121462230743605844,5953.2,1.50203429378877121462230743605844
123,6052.70368182539629691116051403891381,6051.2,1.50368182539629691116051403891381
124,6151.50531608288514991683110243142814,6150.0,1.50531608288514991683110243142814
125,6251.10693728174275741724907903098150,6249.6,1.50693728174275741724907903098150
126,6351.50854563235504707657987477740211,6350.0,1.50854563235504707657987477740211
127,6452.71014134017016565968986254515691,6451.2,1.51014134017016565968986254515691
128,6554.71172460585585518325487026932455,6553.2,1.51172460585585518325487026932455
129,6657.51329562545079015270690253791393,6656.0,1.51329562545079015270690253791393
130,6761.11485459051016120518973159096881,6759.6,1.51485459051016120518973159096881
131,6865.51640168824577522941814286494008,6864.0,1.51640168824577522941814286494008
132,6970.71793710166092722141830414100760,6969.2,1.51793710166092722141830414100760
133,7076.71946100968028753012370842822608,7075.2,1.51946100968028753012370842822608
134,7183.52097358727503705952952580699448,7182.0,1.52097358727503705952952580699448
135,7291.12247500558346508750035629389962,7289.6,1.52247500558346508750035629389962
136,7399.52396543202724088957624909991851,7398.0,1.52396543202724088957624909991851
137,7508.72544503042355727917567388007553,7507.2,1.52544503042355727917567388007553
138,7618.72691396109333081091765907425579,7617.2,1.52691396109333081091765907425579
139,7729.52837238096564155291133288914039,7728.0,1.52837238096564155291133288914039
140,7841.12982044367858017198598910474201,7839.6,1.52982044367858017198598910474201
141,7953.53125829967666582304384476108679,7952.0,1.53125829967666582304384476108679
142,8066.73268609630499058760789147476165,8065.2,1.53268609630499058760789147476165
143,8180.73410397790023790756528971728926,8179.2,1.53410397790023790756528971728926
144,8295.53551208587871565796394767437180,8294.0,1.53551208587871565796394767437180
145,8411.13691055882154072066404249117167,8409.6,1.53691055882154072066404249117167
146,8527.53829953255710448841344379439529,8526.0,1.53829953255710448841344379439529
147,8644.73967914024094099587628521324044,8643.2,1.53967914024094099587628521324044
148,8762.74104951243312092219603734749526,8761.2,1.54104951243312092219603734749526
149,8881.54241077717328172725677822990143,8880.0,1.54241077717328172725677822990143
150,9001.14376306005340661201106459991743,8999.6,1.54376306005340661201106459991743
151,9121.54510648428845790180595416024715,9120.0,1.54510648428845790180595416024715
152,9242.74644117078496552228177595073001,9241.2,1.54644117078496552228177595073001
153,9364.74776723820767062928218375866877,9363.2,1.54776723820767062928218375866877
154,9487.54908480304432020533462505831253,9486.0,1.54908480304432020533462505831253
155,9611.15039397966870363963413897029598,9609.6,1.55039397966870363963413897029598
156,9735.55169488040202287854688426947121,9734.0,1.55169488040202287854688426947121
157,9860.75298761557268193226284964228688,9859.2,1.55298761557268193226284964228688
158,9986.75427229357458339958346446664067,9985.2,1.55427229357458339958346446664067
159,10113.5555490209240127266491797377842,10112.0,1.5555490209240127266491797377842
160,10241.1568179023151948829698353963570,10239.6,1.5568179023151948829698353963570
161,10369.5580790406746017131441895024491,10368.0,1.5580790406746017131441895024491
162,10498.7593325372140907288792994981643,10497.2,1.5593325372140907288792994981643
163,10628.7605784914829531766657693642056,10627.2,1.5605784914829531766657693642056
164,10759.5618170014189508292828423279307,10758.0,1.5618170014189508292828423279307
165,10891.1630481633984169087333137810978,10889.6,1.5630481633984169087333137810978
166,11023.5642720722855006428037194632255,11022.0,1.5642720722855006428037194632255
167,11156.7654888214806340557322911043288,11155.2,1.5654888214806340557322911043288
168,11290.7666985029682976551775725412995,11289.2,1.5666985029682976551775725412995
169,11425.5679012073641669031201969251308,11424.0,1.5679012073641669031201969251308
170,11561.1690970239617191654626591071585,11559.6,1.5690970239617191654626591071585
171,11697.5702860407783847156389824273016,11696.0,1.5702860407783847156389824273016
172,11834.7714683446013268056543706221183,11833.2,1.5714683446013268056543706221183
173,11972.7726440210329374931367589304855,11971.2,1.5726440210329374931367589304855
174,12111.5738131545361409095174754484558,12110.0,1.5738131545361409095174754484558
175,12251.1749758284795988138669059788318,12249.6,1.5749758284795988138669059788318
176,12391.5761321251829145321418235258175,12390.0,1.5761321251829145321418235258175
177,12532.7772821259619410454571976423766,12531.2,1.5772821259619410454571976423766
178,12674.7784259111743016377946167662720,12673.2,1.5784259111743016377946167662720
179,12817.5795635602652362770863811608485,12816.0,1.5795635602652362770863811608485
180,12961.1806951518138996845703757161102,12959.6,1.5806951518138996845703757161102
181,13105.5818207635802379342057442503069,13104.0,1.5818207635802379342057442503069
182,13250.7829404725525856721118053803337,13249.2,1.5829404725525856721118053803337
183,13396.7840543549961327456683913612126,13395.2,1.5840543549961327456683913612126
184,13543.5851624865024228590127740204322,13542.0,1.5851624865024228590127740204322
185,13691.1862649420400585280651804014547,13689.6,1.5862649420400585280651804014547
186,13839.5873617960068015031307336208484,13838.0,1.5873617960068015031307336208484
187,13988.7884531222832782549026078865142,13987.2,1.5884531222832782549026078865142
188,14138.7895389942885114624383087384502,14137.2,1.5895389942885114624383087384502
189,14289.5906194850375288408239255533558,14288.0,1.5906194850375288408239255533558
190,14441.1916946672013173986397574669985,14439.6,1.5916946672013173986397574669985
191,14593.5927646131694227279967410559840,14592.0,1.5927646131694227279967410559840
192,14746.7938293951155215811057639234518,14745.2,1.5938293951155215811057639234518
193,14900.7948890850663334612415530029250,14899.2,1.5948890850663334612415530029250
194,15055.5959437549742722000539034228732,15054.0,1.5959437549742722000539034228732
195,15211.1969934767942886371340406925094,15209.6,1.5969934767942886371340406925094
196,15367.5980383225654029810839260102158,15366.0,1.5980383225654029810839260102158
197,15524.7990783644974849120244627262225,15523.2,1.5990783644974849120244627262225
198,15682.8001136750639062669745985136179,15681.2,1.6001136750639062669745985136179
199,15841.6011443271007663113588431328530,15840.0,1.6011443271007663113588431328530
200,16001.2021703939134782184005430396491,15999.6,1.6021703939134782184005430396491
201,16161.6031919493916027530976049055621,16160.0,1.6031919493916027530976049055621
202,16322.8042090681329328582952487230961,16321.2,1.6042090681329328582952487230961
203,16484.8052218255779629167230877154358,16483.2,1.6052218255779629167230877154358
204,16647.6062302981560307377837469635212,16646.0,1.6062302981560307377837469635212
205,16811.2072345634445961026902692037541,16809.6,1.6072345634445961026902692037541
206,16975.6082347003433286274795648593128,16974.0,1.6082347003433286274795648593128
207,17140.8092307892649100519331663670380,17139.2,1.6092307892649100519331663670380
208,17306.8102229123447437874174955871346,17305.2,1.6102229123447437874174955871346
209,17473.6112111536720828917190684003827,17472.0,1.6112111536720828917190684003827
210,17641.2121955995454768253965954076426,17639.6,1.6121955995454768253965954076426
211,17809.6131763387558844420159696702961,17808.0,1.6131763387558844420159696702961
212,17978.8141534629013362444719562914083,17977.2,1.6141534629013362444719562914083
213,18148.8151270667376540654233590890912,18147.2,1.6151270667376540654233590890912
214,18319.6160972485704968595912129796324,18318.0,1.6160972485704968595912129796324
215,18491.2170641106948800345183167611712,18489.6,1.6170641106948800345183167611712
216,18663.6180277598894014332481413643072,18662.0,1.6180277598894014332481413643072
217,18836.8189883079736842514576024299335,18835.2,1.6189883079736842514576024299335
218,19010.8199458724391055310086564798587,19009.2,1.6199458724391055310086564798587
219,19185.6209005771647557247524318948730,19184.0,1.6209005771647557247524318948730
220,19361.2218525532328757631793165889801,19359.6,1.6218525532328757631793165889801
221,19537.6228019398608062467050924965966,19536.0,1.6228019398608062467050924965966
222,19714.8237488854699473706732620243748,19713.2,1.6237488854699473706732620243748
223,19892.8246935489164599277393570496538,19891.2,1.6246935489164599277393570496538
224,20071.6256361009137445481988510378292,20070.0,1.6256361009137445481988510378292
225,20251.2265767256833258192676392648339,20249.6,1.6265767256833258192676392648339
226,20431.6275156228790651622343917511464,20430.0,1.6275156228790651622343917511464
227,20612.8284530098401230265153585057879,20611.2,1.6284530098401230265153585057879
228,20794.8293891242414411168080013967283,20793.2,1.6293891242414411168080013967283
229,20977.6303242272276468325682980246239,20976.0,1.6303242272276468325682980246239
230,21161.2312586071384045140385256890730,21159.6,1.6312586071384045140385256890730
231,21345.6321925839620477305149049507004,21344.0,1.6321925839620477305149049507004
232,21530.8331265146921787069379700188169,21529.2,1.6331265146921787069379700188169
233,21716.8340607998120649429796229596653,21715.2,1.6340607998120649429796229596653
234,21903.6349958911988194675637836818124,21902.0,1.6349958911988194675637836818124
235,22091.2359323018301292900908273609489,22089.6,1.6359323018301292900908273609489
236,22279.6368706178005118366234774766096,22278.0,1.6368706178005118366234774766096
237,22468.8378115133260270290982883378347,22467.2,1.6378115133260270290982883378347
238,22658.8387557696575876851702397293545,22657.2,1.6387557696575876851702397293545
