Eigenstate,Energy,Kinetic Energy,Potential Energy
1,0.500000000169209439680802098781418239,0.0,0.500000000169209439680802098781418239
2,1.84623093875563194508197032619447563,1.2,0.64623093875563194508197032619447563
3,3.93633761294943465914126121606414181,3.2,0.73633761294943465914126121606414181
4,6.79966528457215797533489421824440585,6.0,0.79966528457215797533489421824440585
5,10.4480465869919646998152236099141214,9.6,0.8480465869919646998152236099141214
6,14.8870660149850217476760513096804016,14.0,0.8870660149850217476760513096804016
7,20.1197208499996754318199127048627879,19.2,0.9197208499996754318199127048627879
8,26.1477838784183446666863352624160689,25.2,0.9477838784183446666863352624160689
9,32.9723835992506095306235426637222059,32.0,0.9723835992506095306235426637222059
10,40.5942802666472530500138544559055166,39.6,0.9942802666472530500138544559055166
11,49.0140094507509453300410842082993205,48.0,1.0140094507509453300410842082993205
12,58.2319622468676274595045142588739969,57.2,1.0319622468676274595045142588739969
13,68.2484327850642406685424704444634909,67.2,1.0484327850642406685424704444634909
14,79.0636477630249669284865426285166504,78.0,1.0636477630249669284865426285166504
15,90.6777855618654615603627785982905195,89.6,1.0777855618654615603627785982905195
16,103.090989051003328366384580854265917,102.0,1.090989051003328366384580854265917
17,116.303374421619643644587255457792844,115.2,1.103374421619643644587255457792844
18,130.315037437665168958980777774568125,129.2,1.115037437665168958980777774568125
19,145.126057958964338013968763696880433,144.0,1.126057958964338013968763696880433
20,160.736503278849199695348817156195273,159.6,1.136503278849199695348817156195273
21,177.146430630241120055752412115916655,176.0,1.146430630241120055752412115916655
22,194.355889096809526020799239499416511,193.2,1.155889096809526020799239499416511
23,212.364921090908432750346712935911002,211.2,1.164921090908432750346712935911002
24,231.173563510976867884301746990078952,230.0,1.173563510976867884301746990078952
25,250.781848658334799571551628072047900,249.6,1.181848658334799571551628072047900
26,271.189804970990725527405534460497728,270.0,1.189804970990725527405534460497728
27,292.397457616604249929780600058904102,291.2,1.197457616604249929780600058904102
28,314.404828975845124132112372675126868,313.2,1.204828975845124132112372675126868
29,337.211939039595199333453410270457575,336.0,1.211939039595199333453410270457575
30,360.818805737790251765673015410844391,359.6,1.218805737790251765673015410844391
31,385.225445213552702449573777174357865,384.0,1.225445213552702449573777174357865
32,410.431872053188353981230090992464019,409.2,1.231872053188353981230090992464019
33,436.438099480310619001503911810032680,435.2,1.238099480310619001503911810032680
34,463.244139520605168732428929957731122,462.0,1.244139520605168732428929957731122
35,490.850003142408734896146336454518063,489.6,1.250003142408734896146336454518063
36,519.255700377242319451796448142111171,518.0,1.255700377242319451796448142111171
37,548.461240423634982035947108020829282,547.2,1.261240423634982035947108020829282
38,578.466631736943956248001218525513451,577.2,1.266631736943956248001218525513451
39,609.271882107378997271740405223286013,608.0,1.271882107378997271740405223286013
40,640.876998728043042540020756470547969,639.6,1.276998728043042540020756470547969
41,673.281988254484516875449608718771779,672.0,1.281988254484516875449608718771779
42,706.486856857001620938000183251926966,705.2,1.286856857001620938000183251926966
43,740.491610266732455465313887990179411,739.2,1.291610266732455465313887990179411
44,775.296253816396739775704076151992454,774.0,1.296253816396739775704076151992454
45,810.900792476417313434692752712426540,809.6,1.300792476417313434692752712426540
46,847.305230887036473703168847358945455,846.0,1.305230887036473703168847358945455
47,884.509573386948724772803883506547859,883.2,1.309573386948724772803883506547859
48,922.513824038893928430014894096284476,921.2,1.313824038893928430014894096284476
49,961.317986652590183245787089101602759,960.0,1.317986652590183245787089101602759
50,1000.92206480533163667494937362864030,999.6,1.32206480533163667494937362864030
51,1041.32606186053096748596919637409743,1040.0,1.32606186053096748596919637409743
52,1082.52998098444793072798811878803585,1081.2,1.32998098444793072798811878803585
53,1124.53382516131290732323598267354179,1123.2,1.33382516131290732323598267354179
54,1167.33759720702683924147426451182137,1166.0,1.33759720702683924147426451182137
55,1210.94129978159545572058088651659247,1209.6,1.34129978159545572058088651659247
56,1255.34493540043562142724168260381278,1254.0,1.34493540043562142724168260381278
57,1300.54850644467443848657593655918239,1299.2,1.34850644467443848657593655918239
58,1346.55201517054693712321777856639440,1345.2,1.35201517054693712321777856639440
59,1393.35546371798543570908563812383171,1392.0,1.35546371798543570908563812383171
60,1440.95885411848262650535978503259413,1439.6,1.35885411848262650535978503259413
61,1489.36218830230087915867350818615104,1488.0,1.36218830230087915867350818615104
62,1538.56546810509195300640251863997582,1537.2,1.36546810509195300640251863997582
63,1588.56869527398406735690954446473505,1587.2,1.36869527398406735690954446473505
64,1639.37187147318696643067365282580045,1638.0,1.37187147318696643067365282580045
65,1690.97499828916008080825671327443544,1689.6,1.37499828916008080825671327443544
66,1743.37807723538403989200071859524334,1742.0,1.37807723538403989200071859524334
67,1796.58110975677152759702117206949431,1795.2,1.38110975677152759702117206949431
68,1850.58409723374971732625028909869670,1849.2,1.38409723374971732625028909869670
69,1905.38704098604320961355531839947619,1904.0,1.38704098604320961355531839947619
70,1960.98994227618346755069017748161481,1959.6,1.38994227618346755069017748161481
71,2017.39280231276814641010819753071679,2016.0,1.39280231276814641010819753071679
72,2074.59562225349141563328047840326341,2073.2,1.39562225349141563328047840326341
73,2132.59840320796431834776251993357727,2131.2,1.39840320796431834776251993357727
74,2191.40114624034239472769634402993633,2190.0,1.40114624034239472769634402993633
75,2251.00385237177616441133402181500738,2249.6,1.40385237177616441133402181500738
76,2311.40652258269861363241101841520508,2310.0,1.40652258269861363241101841520508
77,2372.60915781496253032378192287619450,2371.2,1.40915781496253032378192287619450
78,2434.61175897383936465354969443661466,2433.2,1.41175897383936465354969443661466
79,2497.41432692989024563392856250569837,2496.0,1.41432692989024563392856250569837
80,2561.01686252071884631743573889141244,2559.6,1.41686252071884631743573889141244
81,2625.41936655261494075353268195879718,2624.0,1.41936655261494075353268195879718
82,2690.62183980209673442828229080885516,2689.2,1.42183980209673442828229080885516
83,2756.62428301735936117580083414151433,2755.2,1.42428301735936117580083414151433
84,2823.42669691963631525856731777926197,2822.0,1.42669691963631525856731777926197
85,2891.02908220448002803748111118969009,2889.6,1.42908220448002803748111118969009
86,2959.43143954296728278716945920801907,2958.0,1.43143954296728278716945920801907
87,3028.63376958283470374124933012536964,3027.2,1.43376958283470374124933012536964
88,3098.63607294954913207451174530194935,3097.2,1.43607294954913207451174530194935
89,3169.43835024731731802683803241262883,3168.0,1.43835024731731802683803241262883
90,3241.04060206003901515692869872716543,3239.6,1.44060206003901515692869872716543
91,3313.44282895220724126187705661863110,3312.0,1.44282895220724126187705661863110
92,3386.64503146975918220108114836903529,3385.2,1.44503146975918220108114836903529
93,3460.64721014088095260793455294443105,3459.2,1.44721014088095260793455294443105
94,3535.44936547676918454399928913269360,3534.0,1.44936547676918454399928913269360
95,3611.05149797235219399633708721548745,3609.6,1.45149797235219399633708721548745
96,3687.45360810697327329656031212277191,3686.0,1.45360810697327329656031212277191
97,3764.65569634503847319805677028808925,3763.2,1.45569634503847319805677028808925
98,3842.65776313663106547354806556112743,3841.2,1.45776313663106547354806556112743
99,3921.45980891809472342295619962063081,3920.0,1.45980891809472342295619962063081
100,4001.06183411258731134113660778126101,3999.6,1.46183411258731134113660778126101
101,4081.46383913060704469088527435362488,4080.0,1.46383913060704469088527435362488
102,4162.66582437049265715190694761163664,4161.2,1.46582437049265715190694761163664
103,4244.66779021889910280282141528464919,4243.2,1.46779021889910280282141528464919
104,4327.46973705125021442857712476469102,4326.0,1.46973705125021442857712476469102
105,4411.07166523216964587188470812221045,4409.6,1.47166523216964587188470812221045
106,4495.47357511589133558304364682717890,4494.0,1.47357511589133558304364682717890
107,4580.67546704665065044058065744834472,4579.2,1.47546704665065044058065744834472
108,4666.67734135905728967556674244700979,4665.2,1.47734135905728967556674244700979
109,4753.47919837845096013894849227108348,4752.0,1.47919837845096013894849227108348
110,4841.08103842124077173110542099006396,4839.6,1.48103842124077173110542099006396
111,4929.48286179522923595165011952001305,4928.0,1.48286179522923595165011952001305
112,5018.68466879992170109385662255001182,5017.2,1.48466879992170109385662255001182
113,5108.68645972682200207231043715613420,5107.2,1.48645972682200207231043715613420
114,5199.48823485971505411462037745797212,5198.0,1.48823485971505411462037745797212
115,5291.08999447493707909953263204453630,5289.6,1.48999447493707909953263204453630
116,5383.49173884163410499214114567256622,5382.0,1.49173884163410499214114567256622
117,5476.69346822200934711388490515298421,5475.2,1.49346822200934711388490515298421
118,5570.69518287156003895392014099509185,5569.2,1.49518287156003895392014099509185
119,5665.49688303930424651474125607801146,5664.0,1.49688303930424651474125607801146
120,5761.09856896799817434269306072775913,5759.6,1.49856896799817434269306072775913
121,5857.50024089434443312677486716319905,5856.0,1.50024089434443312677486716319905
122,5954.70189904919171983600780414972487,5953.2,1.50189904919171983600780414972487
123,6052.70354365772632917270740961460322,6051.2,1.50354365772632917270740961460322
124,6151.50517493965589743919783068175468,6150.0,1.50517493965589743919783068175468
125,6251.10679310938575034924507456041064,6249.6,1.50679310938575034924507456041064
126,6351.50839837618821111819108388616080,6350.0,1.50839837618821111819108388616080
127,6452.70999094436520458788794304152639,6451.2,1.50999094436520458788794304152639
128,6554.71157101340447055534570548276368,6553.2,1.51157101340447055534570548276368
129,6657.51313877812968740077112051794084,6656.0,1.51313877812968740077112051794084
130,6761.11469442884478872881191495031733,6759.6,1.51469442884478872881191495031733
131,6865.51623815147274033270682747238150,6864.0,1.51623815147274033270682747238150
132,6970.71777012768902981384411401862148,6969.2,1.51777012768902981384411401862148
133,7076.71929053505010940765002834541124,7075.2,1.51929053505010940765002834541124
134,7183.52079954711702129077615566666203,7182.0,1.52079954711702129077615566666203
135,7291.12229733357441653621371013015661,7289.6,1.52229733357441653621371013015661
136,7399.52378406034517519543640871698730,7398.0,1.52378406034517519543640871698730
137,7508.72525988970082167873636568596752,7507.2,1.52525988970082167873636568596752
138,7618.72672498036791599292798202446098,7617.2,1.52672498036791599292798202446098
139,7729.52817948763059928969520083873811,7728.0,1.52817948763059928969520083873811
140,7841.12962356342945673189350803475410,7839.6,1.52962356342945673189350803475410
141,7953.53105735645685612763025474734295,7952.0,1.53105735645685612763025474734295
142,8066.73248101224891270868830794878154,8065.2,1.53248101224891270868830794878154
143,8180.73389467327422177968907503684669,8179.2,1.53389467327422177968907503684669
144,8295.53529847901949378476133756722303,8294.0,1.53529847901949378476133756722303
145,8411.13669256607222215072599681569963,8409.6,1.53669256607222215072599681569963
146,8527.53807706820050639706325941508573,8526.0,1.53807706820050639706325941508573
147,8644.73945211643014479996500057166368,8643.2,1.53945211643014479996500057166368
148,8762.74081783911911193974766256551707,8761.2,1.54081783911911193974766256551707
149,8881.54217436202952293283341171029219,8880.0,1.54217436202952293283341171029219
150,9001.14352180839718798943218112974763,8999.6,1.54352180839718798943218112974763
151,9121.54486029899885321144238122200922,9120.0,1.54486029899885321144238122200922
152,9242.74618995221721793000541905978410,9241.2,1.54618995221721793000541905978410
153,9364.74751088410381753268044963371865,9363.2,1.54751088410381753268044963371865
154,9487.54882320843985567975852310778337,9486.0,1.54882320843985567975852310778337
155,9611.15012703679506414599058129439791,9609.6,1.55012703679506414599058129439791
156,9735.55142247858466815438210198103974,9734.0,1.55142247858466815438210198103974
157,9860.75270964112452824894932540137538,9859.2,1.55270964112452824894932540137538
158,9986.75398862968453052483933899281264,9985.2,1.55398862968453052483933899281264
159,10113.5552595475402888889516993504272,10112.0,1.5552595475402888889516993504272
160,10241.1565224960232256889124381834502,10239.6,1.5565224960232256889124381834502
161,10369.5577775745690892068368455171628,10368.0,1.5577775745690892068368455171628
162,10498.7590248807649674793064839819027,10497.2,1.5590248807649674793064839819027
163,10628.7602645103948532971882951072520,10627.2,1.5602645103948532971882951072520
164,10759.5614965574838150222287932051435,10758.0,1.5614965574838150222287932051435
165,10891.1627211143408218209849204804442,10889.6,1.5627211143408218209849204804442
166,11023.5639382716002738320305043940985,11022.0,1.5639382716002738320305043940985
167,11156.7651481182622844991171016443132,11155.2,1.5651481182622844991171016443132
168,11290.7663507417317577595689457142733,11289.2,1.5663507417317577595689457142733
169,11425.5675462278563051503760773115046,11424.0,1.5675462278563051503760773115046
170,11561.1687346609630425754831790150185,11559.6,1.5687346609630425754831790150185
171,11697.5699161238943069291249872439787,11696.0,1.5699161238943069291249872439787
172,11834.7710906980423304422639860729169,11833.2,1.5710906980423304422639860729169
173,11972.7722584633829081548670895167356,11971.2,1.5722584633829081548670895167356
174,12111.5734194985080943579515161065480,12110.0,1.5734194985080943579515161065480
175,12251.1745738806579619907555130722798,12249.6,1.5745738806579619907555130722798
176,12391.5757216857514546998200942062081,12390.0,1.5757216857514546998200942062081
177,12532.7768629884163648209609962030722,12531.2,1.5768629884163648209609962030722
178,12674.7779978620184664389779832386410,12673.2,1.5779978620184664389779832386410
179,12817.5791263786898299705088708748088,12816.0,1.5791263786898299705088708748088
180,12961.1802486093563492168972647756968,12959.6,1.5802486093563492168972647756968
181,13105.5813646237645035361407905172184,13104.0,1.5813646237645035361407905172184
182,13250.7824744905073828297957719864070,13249.2,1.5824744905073828297957719864070
183,13396.7835782770499983946143959474420,13395.2,1.5835782770499983946143959474420
184,13543.5846760497539038809609700807189,13542.0,1.5846760497539038809609700807189
185,13691.1857678739011481666551016466773,13689.6,1.5857678739011481666551016466773
186,13839.5868538137175811153924820404553,13838.0,1.5868538137175811153924820404553
187,13988.7879339323955360207883357870285,13987.2,1.5879339323955360207883357870285
188,14138.7890082921159041729131803917439,14137.2,1.5890082921159041729131803917439
189,14289.5900769540696252789777927780664,14288.0,1.5900769540696252789777927780664
190,14441.1911399784786093898225795825174,14439.6,1.5911399784786093898225795825174
191,14593.5921974246161095553531635843939,14592.0,1.5921974246161095553531635843939
192,14746.7932493508265615917271473533989,14745.2,1.5932493508265615917271473533989
193,14900.7942958145449092647544061542309,14899.2,1.5942958145449092647544061542309
194,15055.5953368723154282309205721467863,15054.0,1.5953368723154282309205721467863
195,15211.1963725798100666690335107185914,15209.6,1.5963725798100666690335107185914
196,15367.5974029918463162950456391808704,15366.0,1.5974029918463162950456391808704
197,15524.7984281624046281360418733085667,15523.2,1.5984281624046281360418733085667
198,15682.7994481446453872260530622081776,15681.2,1.5994481446453872260530622081776
199,15841.6004629909254590582475675311902,15840.0,1.6004629909254590582475675311902
200,16001.2014727528143217344105735621151,15999.6,1.6014727528143217344105735621151
201,16161.6024774811097947888563442136818,16160.0,1.6024774811097947888563442136818
202,16322.8034772258533780636696604542325,16321.2,1.6034772258533780636696604542325
203,16484.8044720363452112907535845433662,16483.2,1.6044720363452112907535845433662
204,16647.6054619611586659963639908221761,16646.0,1.6054619611586659963639908221761
205,16811.2064470481545796942733782384029,16809.6,1.6064470481545796942733782384029
206,16975.6074273444951453871142257602964,16974.0,1.6074273444951453871142257602964
207,17140.8084028966574622473937021345379,17139.2,1.6084028966574622473937021345379
208,17306.8093737504467617004735798967169,17305.2,1.6093737504467617004735798967169
209,17473.6103399510093146532483284256729,17472.0,1.6103399510093146532483284256729
210,17641.2113015428450313650469510106437,17639.6,1.6113015428450313650469510106437
211,17809.6122585698197613206599119759675,17808.0,1.6122585698197613206599119759675
212,17978.8132110751773033335796395654907,17977.2,1.6132110751773033335796395654907
213,18148.8141591015511302583307400803263,18147.2,1.6141591015511302583307400803263
214,18319.6151026909758432885800045925166,18318.0,1.6151026909758432885800045925166
215,18491.2160418848983550482823584102723,18489.6,1.6160418848983550482823584102723
216,18663.6169767241888154313666248896791,18662.0,1.6169767241888154313666248896791
217,18836.8179072491512841500706058864413,18835.2,1.6179072491512841500706058864413
218,19010.8188334995341589654691242633391,19009.2,1.6188334995341589654691242633391
219,19185.6197555145403628742483225815205,19184.0,1.6197555145403628742483225815205
220,19361.2206733328373027609923442597241,19359.6,1.6206733328373027609923442597241
221,19537.6215869925665974194414270258610,19536.0,1.6215869925665974194414270258610
222,19714.8224965313535921412777988279388,19713.2,1.6224965313535921412777988279388
223,19892.8234019863166534344898511425793,19891.2,1.6234019863166534344898511425793
224,20071.6243033940762589318581587693962,20070.0,1.6243033940762589318581587693962
225,20251.2252007907638850473816444205033,20249.6,1.6252007907638850473816444205033
226,20431.6260942120306959198853337458764,20430.0,1.6260942120306959198853337458764
227,20612.8269836930560422879887270489290,20611.2,1.6269836930560422879887270489290
228,20794.8278692685557721079971710657238,20793.2,1.6278692685557721079971710657238
229,20977.6287509727903600682519601778536,20976.0,1.6287509727903600682519601778536
230,21161.2296288395728606875991844240283,21159.6,1.6296288395728606875991844240283
231,21345.6305029022766867886988908696378,21344.0,1.6305029022766867886988908696378
232,21530.8313731938432237565768051924733,21529.2,1.6313731938432237565768051924733
233,21716.8322397467892745694392131275927,21715.2,1.6322397467892745694392131275927
234,21903.6331025932143517493706073621457,21902.0,1.6331025932143517493706073621457
235,22091.2339617648078094055986741860814,22089.6,1.6339617648078094055986741860814
236,22279.6348172928558250707207113742785,22278.0,1.6348172928558250707207113742785
237,22468.8356692082482349516813026992103,22467.2,1.6356692082482349516813026992103
238,22658.8365175414852243282108612727489,22657.2,1.6365175414852243282108612727489
