Eigenstate,Energy,Kinetic Energy,Potential Energy
1,0.500000000696956806018867018450437701,0.0,0.500000000696956806018867018450437701
2,1.84623094220058540109024615897149043,1.2,0.64623094220058540109024615897149043
3,3.93633762306913474050369370451428109,3.2,0.73633762306913474050369370451428109
4,6.79966530565155711782252720881852940,6.0,0.79966530565155711782252720881852940
5,10.4480466235084893792729814568425693,9.6,0.8480466235084893792729814568425693
6,14.8870660714961659847765944858510882,14.0,0.8870660714961659847765944858510882
7,20.1197209311018614150358369303397172,19.2,0.9197209311018614150358369303397172
8,26.1477839887300223757282338741655381,25.2,0.9477839887300223757282338741655381
9,32.9723837434046340001712166514648548,32.0,0.9723837434046340001712166514648548
10,40.5942804492872332994619035430269595,39.6,0.9942804492872332994619035430269595
11,49.0140096765294636002956893107296130,48.0,1.0140096765294636002956893107296130
12,58.2319625204454121728076731395852493,57.2,1.0319625204454121728076731395852493
13,68.2484331111098592567387855228311085,67.2,1.0484331111098592567387855228311085
14,79.0636481462148185187035346748392316,78.0,1.0636481462148185187035346748392316
15,90.6777860068839512443389391848487508,89.6,1.0777860068839512443389391848487508
16,103.090989562543156228826503265470366,102.0,1.090989562543156228826503265470366
17,116.303375004382169148505398897480634,115.2,1.103375004382169148505398897480634
18,130.315038096360826584429836823199332,129.2,1.115038096360826584429836823199332
19,145.126058698313088928559732492019912,144.0,1.126058698313088928559732492019912
20,160.736504103581009575876965420026703,159.6,1.136504103581009575876965420026703
21,177.146431545096456493573718613016061,176.0,1.146431545096456493573718613016061
22,194.355890106539871056928762233157185,193.2,1.155890106539871056928762233157185
23,212.364922200276807468293799404950535,211.2,1.164922200276807468293799404950535
24,231.173564724758366913070047852728451,230.0,1.173564724758366913070047852728451
25,250.781849981317133982353513952034931,249.6,1.181849981317133982353513952034931
26,271.189806407974773046673703356364367,270.0,1.189806407974773046673703356364367
27,292.397459172404611701783086024801949,291.2,1.197459172404611701783086024801949
28,314.404830655290687487932073181407276,313.2,1.204830655290687487932073181407276
29,337.211940847529706186207014166205276,336.0,1.211940847529706186207014166205276
30,360.818807679072872372596864070294027,359.6,1.218807679072872372596864070294027
31,385.225447293058614372201979880812372,384.0,1.225447293058614372201979880812372
32,410.431874275809326143742768002553024,409.2,1.231874275809326143742768002553024
33,436.438101850955600800310361180303194,435.2,1.238101850955600800310361180303194
34,463.244142044200884191332848443565290,462.0,1.244142044200884191332848443565290
35,490.850005823900281894003284051080211,489.6,1.250005823900281894003284051080211
36,519.255703221593774075577804573745381,518.0,1.255703221593774075577804573745381
37,548.461243435830008133158781389509766,547.2,1.261243435830008133158781389509766
38,578.466634921986420269638966588843176,577.2,1.266634921986420269638966588843176
39,609.271885470293588511276482378805938,608.0,1.271885470293588511276482378805938
40,640.877002273875898885969346604127213,639.6,1.277002273875898885969346604127213
41,673.281991988303856205352866396636861,672.0,1.281991988303856205352866396636861
42,706.486860783898378290600506365736660,705.2,1.286860783898378290600506365736660
43,740.491614391820926135528283785838608,739.2,1.291614391820926135528283785838608
44,775.296258144815228484024677028207981,774.0,1.296258144815228484024677028207981
45,810.900797013328789728986839131256747,809.6,1.300797013328789728986839131256747
46,847.305235637629233756686290865861287,846.0,1.305235637629233756686290865861287
47,884.509578356437059747632280048079023,883.2,1.309578356437059747632280048079023
48,922.513829232518799580346640785262482,921.2,1.313829232518799580346640785262482
49,961.317992075619903940250954671480482,960.0,1.317992075619903940250954671480482
50,1000.92207046306256152197176336135892,999.6,1.32207046306256152197176336135892
51,1041.32606775828818875071750764014256,1040.0,1.32606775828818875071750764014256
52,1082.52998712758598223394962431295604,1081.2,1.32998712758598223394962431295604
53,1124.53383155521647603593402050460359,1123.2,1.33383155521647603593402050460359
54,1167.33760385711148473624958531296541,1166.0,1.33760385711148473624958531296541
55,1210.94130669330833774079055037795631,1209.6,1.34130669330833774079055037795631
56,1255.34494257925623574367248461151626,1254.0,1.34494257925623574367248461151626
57,1300.54851389611536127335173706881932,1299.2,1.34851389611536127335173706881932
58,1346.55202290015457807001658156255252,1345.2,1.35202290015457807001658156255252
59,1393.35547173134080009408094151553621,1392.0,1.35547173134080009408094151553621
60,1440.95886242120208645798017270722335,1439.6,1.35886242120208645798017270722335
61,1489.36219690003695434604055725919505,1488.0,1.36219690003695434604055725919505
62,1538.56547700353410098217175623770097,1537.2,1.36547700353410098217175623770097
63,1588.56870447885948381620851506393390,1587.2,1.36870447885948381620851506393390
64,1639.37188099026139561991587115560320,1638.0,1.37188099026139561991587115560320
65,1690.97500812423863634381920276788126,1689.6,1.37500812423863634381920276788126
66,1743.37808739431203624708670953841841,1742.0,1.37808739431203624708670953841841
67,1796.58112024543532252150373802386263,1795.2,1.38112024543532252150373802386263
68,1850.58410805807756546990685856633724,1849.2,1.38410805807756546990685856633724
69,1905.38705215200612762887081828118915,1904.0,1.38705215200612762887081828118915
70,1960.98995378979611095732322460506427,1959.6,1.38995378979611095732322460506427
71,2017.39281418008969850920210238422185,2016.0,1.39281418008969850920210238422185
72,2074.59563448062648876604951887980264,2073.2,1.39563448062648876604951887980264
73,2132.59841580106386779921246080080819,2131.2,1.39841580106386779921246080080819
74,2191.40115920560464558294504347940769,2190.0,1.40115920560464558294504347940769
75,2251.00386571544755167879462207067925,2249.6,1.40386571544755167879462207067925
76,2311.40653631107473595508809636414326,2310.0,1.40653631107473595508809636414326
77,2372.60917193438911760712401125287272,2371.2,1.40917193438911760712401125287272
78,2434.61177349071325994569854613210895,2433.2,1.41177349071325994569854613210895
79,2497.41434185066040160181987568041285,2496.0,1.41434185066040160181987568041285
80,2561.01687785188733667003850254424798,2559.6,1.41687785188733667003850254424798
81,2625.41938230073798697158102552381014,2624.0,1.41938230073798697158102552381014
82,2690.62185597378574816815209300766174,2689.2,1.42185597378574816815209300766174
83,2756.62429961928200272372839770278909,2755.2,1.42429961928200272372839770278909
84,2823.42671395851756842020428439513491,2822.0,1.42671395851756842020428439513491
85,2891.02909968710329185683801292646415,2889.6,1.42909968710329185683801292646415
86,2959.43145747617548049832374104735097,2958.0,1.43145747617548049832374104735097
87,3028.63378797353140936580091595441335,3027.2,1.43378797353140936580091595441335
88,3098.63609180469971508765763109878186,3097.2,1.43609180469971508765763109878186
89,3169.43836957395010652512361338906321,3168.0,1.43836957395010652512361338906321
90,3241.04062186524647797122733092383091,3239.6,1.44062186524647797122733092383091
91,3313.44284924314718946995615096000377,3312.0,1.44284924314718946995615096000377
92,3386.64505225365599050524860715968973,3385.2,1.44505225365599050524860715968973
93,3460.64723142502680105472839330072086,3459.2,1.44723142502680105472839330072086
94,3535.44938726852532107470383820663200,3534.0,1.44938726852532107470383820663200
95,3611.05152027915021832928899204743908,3609.6,1.45152027915021832928899204743908
96,3687.45363093631644265475353849436521,3686.0,1.45363093631644265475353849436521
97,3764.65571970450303040849538417740855,3763.2,1.45571970450303040849538417740855
98,3842.65778703386758997812245964895824,3841.2,1.45778703386758997812245964895824
99,3921.45983336082950575436030439238222,3920.0,1.45983336082950575436030439238222
100,4001.06185910862375163151131206175920,3999.6,1.46185910862375163151131206175920
101,4081.46386468782707579547295084869101,4080.0,1.46386468782707579547295084869101
102,4162.66585049685819298506161850888117,4161.2,1.46585049685819298506161850888117
103,4244.66781692245351249924264735182616,4243.2,1.46781692245351249924264735182616
104,4327.46976434011982295865005635644033,4326.0,1.46976434011982295865005635644033
105,4411.07169311456526175651636551445178,4409.6,1.47169311456526175651636551445178
106,4495.47360360010980637041946337638149,4494.0,1.47360360010980637041946337638149
107,4580.67549614107644662483456022828826,4579.2,1.47549614107644662483456022828826
108,4666.67737107216411775547660583580540,4665.2,1.47737107216411775547660583580540
109,4753.47922871880340553347708078732385,4752.0,1.47922871880340553347708078732385
110,4841.08106939749597228789477076302810,4839.6,1.48106939749597228789477076302810
111,4929.48289341613858680448982442002298,4928.0,1.48289341613858680448982442002298
112,5018.68470107433259164569999732823216,5017.2,1.48470107433259164569999732823216
113,5108.68649266367958590161875798110595,5107.2,1.48649266367958590161875798110595
114,5199.48826846806405262471525820751973,5198.0,1.48826846806405262471525820751973
115,5291.09002876392361975324061817888007,5289.6,1.49002876392361975324061817888007
116,5383.49177382050759499735494459187647,5382.0,1.49177382050759499735494459187647
117,5476.69350390012438344976807894898056,5475.2,1.49350390012438344976807894898056
118,5570.69521925837835565237685596489002,5569.2,1.49521925837835565237685596489002
119,5665.49692014439670013747803467131639,5664.0,1.49692014439670013747803467131639
120,5761.09860680104676862076337810122977,5759.6,1.49860680104676862076337810122977
121,5857.50027946514438375693314045184060,5856.0,1.50027946514438375693314045184060
122,5954.70193836765356045655461499584454,5953.2,1.50193836765356045655461499584454
123,6052.70358373387805957079973409337826,6051.2,1.50358373387805957079973409337826
124,6151.50521578364517507188213783534130,6150.0,1.50521578364517507188213783534130
125,6251.10683473148212629176915300512106,6249.6,1.50683473148212629176915300512106
126,6351.50844078678541158550332599492944,6350.0,1.50844078678541158550332599492944
127,6452.71003415398345920868870888034291,6451.2,1.51003415398345920868870888034291
128,6554.71161503269288861264475342635270,6553.2,1.51161503269288861264475342635270
129,6657.51318361786868328868052138947665,6656.0,1.51318361786868328868052138947665
130,6761.11474009994855791230432476637518,6759.6,1.51474009994855791230432476637518
131,6865.51628466499178713534957751828285,6864.0,1.51628466499178713534957751828285
132,6970.71781749481274839812009970702880,6969.2,1.51781749481274839812009970702880
133,7076.71933876710941935345333895441068,7075.2,1.51933876710941935345333895441068
134,7183.52084865558705922008104355687482,7182.0,1.52084865558705922008104355687482
135,7291.12234733007728527581222294731267,7289.6,1.52234733007728527581222294731267
136,7399.52383495665275201507484586901588,7398.0,1.52383495665275201507484586901588
137,7508.72531169773762718903329213144192,7507.2,1.52531169773762718903329213144192
138,7618.72677771221404533616919115208537,7617.2,1.52677771221404533616919115208537
139,7729.52823315552471730705395195740272,7728.0,1.52823315552471730705395195740272
140,7841.12967817977185884288982409216601,7839.6,1.52967817977185884288982409216601
141,7953.53111293381259671177870447768163,7952.0,1.53111293381259671177870447768163
142,8066.73253756335100283538139623179040,8065.2,1.53253756335100283538139623179040
143,8180.73395221102689819049752185445808,8179.2,1.53395221102689819049752185445808
144,8295.53535701650156109258402605305104,8294.0,1.53535701650156109258402605305104
145,8411.13675211654047028267799830105748,8409.6,1.53675211654047028267799830105748
146,8527.53813764509320537275109729347799,8526.0,1.53813764509320537275109729347799
147,8644.73951373337061900394483779184240,8643.2,1.53951373337061900394483779184240
148,8762.74088050991939611660349097409987,8761.2,1.54088050991939611660349097409987
149,8881.54223810069410220555941222269342,8880.0,1.54223810069410220555941222269342
150,9001.14358662912682427673713146233481,8999.6,1.54358662912682427673713146233481
151,9121.54492621619450049738222508079516,9120.0,1.54492621619450049738222508079516
152,9242.74625698048402892004623299945627,9241.2,1.54625698048402892004623299945627
153,9364.74757903825524431408010112217795,9363.2,1.54757903825524431408010112217795
154,9487.54889250350184709113483323665407,9486.0,1.54889250350184709113483323665407
155,9611.15019748801036265125655122549918,9609.6,1.55019748801036265125655122549918
156,9735.55149410141720911003762977261596,9734.0,1.55149410141720911003762977261596
157,9860.75278245126394455114164346105317,9859.2,1.55278245126394455114164346105317
158,9986.75406264305076572384456942845924,9985.2,1.55406264305076572384456942845924
159,10113.5553347802883219639117452272032,10112.0,1.5553347802883219639117452272032
160,10241.1565989645479107849975917163902,10239.6,1.5565989645479107849975917163902
161,10369.5578552955101137506445091693221,10368.0,1.5578552955101137506445091693221
162,10498.7591038710119322064748914479121,10497.2,1.5591038710119322064748914479121
163,10628.7603447870924778490806489225018,10627.2,1.5603447870924778490806489225018
164,10759.5615781380372728963603820266941,10758.0,1.5615781380372728963603820266941
165,10891.1628040164212085928271881505412,10889.6,1.5628040164212085928271881505412
166,11023.5640225131502127041756407641818,11022.0,1.5640225131502127041756407641818
167,11156.7652337175016733778010059246057,11155.2,1.5652337175016733778010059246057
168,11290.7664377171636622084255726899955,11289.2,1.5664377171636622084255726899955
169,11425.5676345982730017273609984301920,11424.0,1.5676345982730017273609984301920
170,11561.1688244454522172214429656074980,11559.6,1.5688244454522172214429656074980
171,11697.5700073418454132457592090538832,11696.0,1.5700073418454132457592090538832
172,11834.7711833691531128736128399042172,11833.2,1.5711833691531128736128399042172
173,11972.7723526076660952702259567056988,11971.2,1.5723526076660952702259567056988
174,12111.5735151362982676256920899529536,12110.0,1.5735151362982676256920899529536
175,12251.1746710326186056322234901762713,12249.6,1.5746710326186056322234901762713
176,12391.5758203728821924207247693461352,12390.0,1.5758203728821924207247693461352
177,12532.7769632320603894348596908332166,12531.2,1.5769632320603894348596908332166
178,12674.7780996838701686240379578081598,12673.2,1.5780996838701686240379578081598
179,12817.5792298008026326371510697322227,12816.0,1.5792298008026326371510697322227
180,12961.1803536541507542106852377668997,12959.6,1.5803536541507542106852377668997
181,13105.5814713140363576578798565974932,13104.0,1.5814713140363576578798565974932
182,13250.7825828494363704237906016273844,13249.2,1.5825828494363704237906016273844
183,13396.7836883282083680369797915583756,13395.2,1.5836883282083680369797915583756
184,13543.5847878171154369933833448330548,13542.0,1.5847878171154369933833448330548
185,13691.1858813818503776877019272909438,13689.6,1.5858813818503776877019272909438
186,13839.5869690870592686820288259704461,13838.0,1.5869690870592686820288259704461
187,13988.7880509963644164479245686777395,13987.2,1.5880509963644164479245686777395
188,14138.7891271723867063692768641335801,14137.2,1.5891271723867063692768641335801
189,14289.5901976767673791042389137373152,14288.0,1.5901976767673791042389137373152
190,14441.1912625701892483414727131194069,14439.6,1.5912625701892483414727131194069
191,14593.5923219123973795753132318926733,14592.0,1.5923219123973795753132318926733
192,14746.7933757622192467029144463775844,14745.2,1.5933757622192467029144463775844
193,14900.7944241775843851879353258113205,14899.2,1.5944241775843851879353258113205
194,15055.5954672155435555931160924586665,15054.0,1.5954672155435555931160924586665
195,15211.1965049322874358976967169357404,15209.6,1.5965049322874358976967169357404
196,15367.5975373831648567983835436392285,15366.0,1.5975373831648567983835436392285
197,15524.7985646227005949004375772141442,15523.2,1.5985646227005949004375772141442
198,15682.7995867046127385179320146024619,15681.2,1.5995867046127385179320146024619
199,15841.6006036818296395013710630716467,15840.0,1.6006036818296395013710630716467
200,16001.2016156065064656458891542024782,15999.6,1.6016156065064656458891542024782
201,16161.6026225300413652998911620886799,16160.0,1.6026225300413652998911620886799
202,16322.8036245030912582257698974096096,16321.2,1.6036245030912582257698974096096
203,16484.8046215755872640767704212842095,16483.2,1.6046215755872640767704212842095
204,16647.6056137967497808501100291248839,16646.0,1.6056137967497808501100291248839
205,16811.2066012151032240647279101946909,16809.6,1.6066012151032240647279101946909
206,16975.6075838784904405055526536054198,16974.0,1.6075838784904405055526536054198
207,17140.8085618340868032704254799084750,17139.2,1.6085618340868032704254799084750
208,17306.8095351284140032515290551450248,17305.2,1.6095351284140032515290551450248
209,17473.6105038073535437520825872133884,17472.0,1.6105038073535437520825872133884
210,17641.2114679161599507421635101418385,17639.6,1.6114679161599507421635101418385
211,17809.6124274994737071742829110298745,17808.0,1.6124274994737071742829110298745
212,17978.8133826013339227039875207980030,17977.2,1.6133826013339227039875207980030
213,18148.8143332651907443716009668742577,18147.2,1.6143332651907443716009668742577
214,18319.6152795339175244625995080870036,18318.0,1.6152795339175244625995080870036
215,18491.2162214498227460622592294846746,18489.6,1.6162214498227460622592294846746
216,18663.6171590546617216401857322087951,18662.0,1.6171590546617216401857322087951
217,18836.8180923896480700811223955066132,18835.2,1.6180923896480700811223955066132
218,19010.8190214954649826728862825470918,19009.2,1.6190214954649826728862825470918
219,19185.6199464122762829488777925813155,19184.0,1.6199464122762829488777925813155
220,19361.2208671797372946094380958774110,19359.6,1.6208671797372946094380958774110
221,19537.6217838370055172380035569718057,19536.0,1.6217838370055172380035569718057
222,19714.8226964227511289268983958792970,19713.2,1.6226964227511289268983958792970
223,19892.8236049751673114016635033542749,19891.2,1.6236049751673114016635033542749
224,20071.6245095319804148491118351271440,20070.0,1.6245095319804148491118351271440
225,20251.2254101304599672772322549099239,20249.6,1.6254101304599672772322549099239
226,20431.6263068074285343504497490418656,20430.0,1.6263068074285343504497490418656
227,20612.8271995992714408916993044080638,20611.2,1.6271995992714408916993044080638
228,20794.8280885419463585628441027823368,20793.2,1.6280885419463585628441027823368
229,20977.6289736709927697400663005831469,20976.0,1.6289736709927697400663005831469
230,21161.2298550215413153092984440209876,21159.6,1.6298550215413153092984440209876
231,21345.6307326283230313962654068411681,21344.0,1.6307326283230313962654068411681
232,21530.8316065256784888648733790210525,21529.2,1.6316065256784888648733790210525
233,21716.8324767475668342077867998779767,21715.2,1.6324767475668342077867998779767
234,21903.6333433275747518423833018222114,21902.0,1.6333433275747518423833018222114
235,22091.2342062989253450954126184218682,22089.6,1.6342062989253450954126184218682
236,22279.6350656944869499501929218374830,22278.0,1.6350656944869499501929218374830
237,22468.8359215467818898335899533507185,22467.2,1.6359215467818898335899533507185
238,22658.8367738879951781335232710106488,22657.2,1.6367738879951781335232710106488
