Eigenstate,Energy,Kinetic Energy,Potential Energy
1,0.500000000035134415101141730230921306,0.0,0.500000000035134415101141730230921306
2,1.84623093788045372302812963321628493,1.2,0.64623093788045372302812963321628493
3,3.93633761037864036545001461864365890,3.2,0.73633761037864036545001461864365890
4,6.79966527921740457882304532956961133,6.0,0.79966527921740457882304532956961133
5,10.4480465777162540988787548579213247,9.6,0.8480465777162540988787548579213247
6,14.8870660006313416684216982660500338,14.0,0.8870660006313416684216982660500338
7,20.1197208294015349686141568172361967,19.2,0.9197208294015349686141568172361967
8,26.1477838504041520531424439499119644,25.2,0.9477838504041520531424439499119644
9,32.9723835626456931159282466133002466,32.0,0.9723835626456931159282466133002466
10,40.5942802202748734901444914341177543,39.6,0.9942802202748734901444914341177543
11,49.0140093934328328682684386734527505,48.0,1.0140093934328328682684386734527505
12,58.2319621774242771788264632344107824,57.2,1.0319621774242771788264632344107824
13,68.2484327023150759621515299922605401,67.2,1.0484327023150759621515299922605401
14,79.0636476657884271082537932826640553,78.0,1.0636476657884271082537932826640553
15,90.6777854489590436776619179924492769,89.6,1.0777854489590436776619179924492769
16,103.090988921243600249488083188332773,102.0,1.090988921243600249488083188332773
17,116.303374273822238190631788213470372,115.2,1.103374273822238190631788213470372
18,130.315037270644765832324322909241936,129.2,1.115037270644765832324322909241936
19,145.126057771534636646665460862403515,144.0,1.126057771534636646665460862403515
20,160.736503069822886128926757198075160,159.6,1.136503069822886128926757198075160
21,177.146430398429829322058540874100072,176.0,1.146430398429829322058540874100072
22,194.355888841023801223094417065805774,193.2,1.155888841023801223094417065805774
23,212.364920809957681655038817440038443,211.2,1.164920809957681655038817440038443
24,231.173563203669317599173291483752365,230.0,1.173563203669317599173291483752365
25,250.781848323477449726324128971861966,249.6,1.181848323477449726324128971861966
26,271.189804607389300261277328047889987,270.0,1.189804607389300261277328047889987
27,292.397457223063148911976879433257106,291.2,1.197457223063148911976879433257106
28,314.404828551167372785070572255480452,313.2,1.204828551167372785070572255480452
29,337.211938582582398387194017134118873,336.0,1.211938582582398387194017134118873
30,360.818805247242526241608432401932707,359.6,1.218805247242526241608432401932707
31,385.225444688268650149385816780649639,384.0,1.225444688268650149385816780649639
32,410.431871491964993539364177028677020,409.2,1.231871491964993539364177028677020
33,436.438098881943337546792060003305971,435.2,1.238098881943337546792060003305971
34,463.244138883887669194307309477259233,462.0,1.244138883887669194307309477259233
35,490.850002466132982983119150727160852,489.6,1.250002466132982983119150727160852
36,519.255699660198490323667129485548905,518.0,1.255699660198490323667129485548905
37,548.461239664611406686487749764636028,547.2,1.261239664611406686487749764636028
38,578.466630934727067610864640219599118,577.2,1.266630934727067610864640219599118
39,609.271881260753276059313470040059975,608.0,1.271881260753276059313470040059975
40,640.876997835790962822405236589492501,639.6,1.276997835790962822405236589492501
41,673.281987315386491404710643644038841,672.0,1.281987315386491404710643644038841
42,706.486855869835946221144565706558122,705.2,1.286855869835946221144565706558122
43,740.491609230275256588075844334492681,739.2,1.291609230275256588075844334492681
44,775.296252729421914978066662883565798,774.0,1.296252729421914978066662883565798
45,810.900791337696478438112210808557053,809.6,1.300791337696478438112210808557053
46,847.305229695338905788661465640061494,846.0,1.305229695338905788661465640061494
47,884.509572141041306608371951227417693,883.2,1.309572141041306608371951227417693
48,922.513822737541091645306589675711187,921.2,1.313822737541091645306589675711187
49,961.317985294553851751387267846230660,960.0,1.317985294553851751387267846230660
50,1000.92206338937116972326922632948664,999.6,1.32206338937116972326922632948664
51,1041.32606038540310247033030910965237,1040.0,1.32606038540310247033030910965237
52,1082.52997944890672571617176382811829,1081.2,1.32997944890672571617176382811829
53,1124.53382356410968332148307674843207,1123.2,1.33382356410968332148307674843207
54,1167.33759554691012218466879374299950,1166.0,1.33759554691012218466879374299950
55,1210.94129805731091818412472839880380,1209.6,1.34129805731091818412472839880380
56,1255.34493361072602405592701750734047,1254.0,1.34493361072602405592701750734047
57,1300.54850458827957113557942328318281,1299.2,1.34850458827957113557942328318281
58,1346.55201324620355970617434047210941,1345.2,1.35201324620355970617434047210941
59,1393.35546172442721874804843525161445,1392.0,1.35546172442721874804843525161445
60,1440.95885205444009137731237819025446,1439.6,1.35885205444009137731237819025446
61,1489.36218616650133803313006732480772,1488.0,1.36218616650133803313006732480772
62,1538.56546589625944846850982645423905,1537.2,1.36546589625944846850982645423905
63,1588.56869299083931171034988891884645,1587.2,1.36869299083931171034988891884645
64,1639.37186911444728067455879307225924,1638.0,1.37186911444728067455879307225924
65,1690.97499585353933328209883945785745,1689.6,1.37499585353933328209883945785745
66,1743.37807472159258458274693825326545,1742.0,1.37807472159258458274693825326545
67,1796.58110716351614210204159363030376,1795.2,1.38110716351614210204159363030376
68,1850.58409455973354046607643452047534,1849.2,1.38409455973354046607643452047534
69,1905.38703822996567868807413508834561,1904.0,1.38703822996567868807413508834561
70,1960.98993943674025523241054523573576,1959.6,1.38993943674025523241054523573576
71,2017.39279938865109726802805610996120,2016.0,1.39279938865109726802805610996120
72,2074.59561924338848228079725516875221,2073.2,1.39561924338848228079725516875221
73,2132.59840011055949720798272697006468,2131.2,1.39840011055949720798272697006468
74,2191.40114305431566140941598919101033,2190.0,1.40114305431566140941598919101033
75,2251.00384909580340868887570019947125,2249.6,1.40384909580340868887570019947125
76,2311.40651921545157402241995284653019,2310.0,1.40651921545157402241995284653019
77,2372.60915435510872825199748673266599,2371.2,1.40915435510872825199748673266599
78,2434.61175542004203820448440450684115,2433.2,1.41175542004203820448440450684115
79,2497.41432328080828287630077620880781,2496.0,1.41432328080828287630077620880781
80,2561.01685877500671819811699369482759,2559.6,1.41685877500671819811699369482759
81,2625.41936270892263355268324103451501,2624.0,1.41936270892263355268324103451501
82,2690.62183585906968176826182203806896,2689.2,1.42183585906968176826182203806896
83,2756.62427897363837557635244249507280,2755.2,1.42427897363837557635244249507280
84,2823.42669277385751923068440891575613,2822.0,1.42669277385751923068440891575613
85,2891.02907795527478470827600467859869,2889.6,1.42907795527478470827600467859869
86,2959.43143518896212604797191795931575,2958.0,1.43143518896212604797191795931575
87,3028.63376512265126791106981844701578,3027.2,1.43376512265126791106981844701578
88,3098.63606838180408107091133207285987,3097.2,1.43606838180408107091133207285987
89,3169.43834557062227403615123729829686,3168.0,1.43834557062227403615123729829686
90,3241.04059727300048679568936959192110,3239.6,1.44059727300048679568936959192110
91,3313.44282405342655122119906644878041,3312.0,1.44282405342655122119906644878041
92,3386.64502645783239436564675187988432,3385.2,1.44502645783239436564675187988432
93,3460.64720501439879864114171046774506,3459.2,1.44720501439879864114171046774506
94,3535.44936023431698993071693015952202,3534.0,1.44936023431698993071693015952202
95,3611.05149261250980353461289419552305,3609.6,1.45149261250980353461289419552305
96,3687.45360262831497602951971638656609,3686.0,1.45360262831497602951971638656609
97,3764.65569074613292677712352746957926,3763.2,1.45569074613292677712352746957926
98,3842.65775741604121994400811541644383,3841.2,1.45775741604121994400811541644383
99,3921.45980307437774442277389089692267,3920.0,1.45980307437774442277389089692267
100,4001.06182814429450270382000213807752,3999.6,1.46182814429450270382000213807752
101,4081.46383303628377044308106534276059,4080.0,1.46383303628377044308106534276059
102,4162.66581814867826289628883832452607,4161.2,1.46581814867826289628883832452607
103,4244.66778386812683647671622253953583,4243.2,1.46778386812683647671622253953583
104,4327.46973057004714642865077084853526,4326.0,1.46973057004714642865077084853526
105,4411.07165861905658853508769833359148,4409.6,1.47165861905658853508769833359148
106,4495.47356836938276201388889310918914,4494.0,1.47356836938276201388889310918914
107,4580.67546016525461267469893860659056,4579.2,1.47546016525461267469893860659056
108,4666.67733434127533616935473779436529,4665.2,1.47733434127533616935473779436529
109,4753.47919122277805257499126243290015,4752.0,1.47919122277805257499126243290015
110,4841.08103112616520112892078814150792,4839.6,1.48103112616520112892078814150792
111,4929.48285435923253807316452895765552,4928.0,1.48285435923253807316452895765552
112,5018.68466122147857113288211666501429,5017.2,1.48466122147857113288211666501429
113,5108.68645200440020861715020710629996,5107.2,1.48645200440020861715020710629996
114,5199.48822699177535237278531336801432,5198.0,1.48822699177535237278531336801432
115,5291.08998645993312337340324062774305,5289.6,1.48998645993312337340324062774305
116,5383.49173067801236039425941544829040,5382.0,1.49173067801236039425941544829040
117,5476.69345990820900051040751860127849,5475.2,1.49345990820900051040751860127849
118,5570.69517440601290912460841122851062,5569.2,1.49517440601290912460841122851062
119,5665.49687442043469351770489306335387,5664.0,1.49687442043469351770489306335387
120,5761.09856019422300807194298626235434,5759.6,1.49856019422300807194298626235434
121,5857.50023196407282105047617704342358,5856.0,1.50023196407282105047617704342358
122,5954.70188996082509390315622398273850,5953.2,1.50188996082509390315622398273850
123,6052.70353440965829187578222871364434,6051.2,1.50353440965829187578222871364434
124,6151.50516553027212702017091725585887,6150.0,1.50516553027212702017091725585887
125,6251.10678353706390513614808553375202,6249.6,1.50678353706390513614808553375202
126,6351.50838863929783297926356791516184,6350.0,1.50838863929783297926356791516184
127,6452.70998104126762149014563141710146,6451.2,1.50998104126762149014563141710146
128,6554.71156094245269821422100567868224,6553.2,1.51156094245269821422100567868224
129,6657.51312853766833000728837043255333,6656.0,1.51312853766833000728837043255333
130,6761.11468401720993874056617456343516,6759.6,1.51468401720993874056617456343516
131,6865.51622756699187731471735416654341,6864.0,1.51622756699187731471735416654341
132,6970.71775936868091831515296114024972,6969.2,1.51775936868091831515296114024972
133,7076.71927959982469585933244311210588,7075.2,1.51927959982469585933244311210588
134,7183.52078843397532991081982643235124,7182.0,1.52078843397532991081982643235124
135,7291.12228604080844422651239073482857,7289.6,1.52228604080844422651239073482857
136,7399.52377258623778541592794693256710,7398.0,1.52377258623778541592794693256710
137,7508.72524823252563728349360164267995,7507.2,1.52524823252563728349360164267995
138,7618.72671313838921101278797260580323,7617.2,1.52671313838921101278797260580323
139,7729.52816745910318964578340694609114,7728.0,1.52816745910318964578340694609114
140,7841.12961134659858986416640158445711,7839.6,1.52961134659858986416640158445711
141,7953.53104494955809952232449152873848,7952.0,1.53104494955809952232449152873848
142,8066.73246841350804130832090470523151,8065.2,1.53246841350804130832090470523151
143,8180.73388188090710425900883083809209,8179.2,1.53388188090710425900883083809209
144,8295.53528549123197767580039885067740,8294.0,1.53528549123197767580039885067740
145,8411.13667938106001779984608778594076,8409.6,1.53667938106001779984608778594076
146,8527.53806368414906973662967838434701,8526.0,1.53806368414906973662967838434701
147,8644.73943853151455891701769910597923,8643.2,1.53943853151455891701769910597923
148,8762.74080405150396742376896732810614,8761.2,1.54080405150396742376896732810614
149,8881.54216036986879698443568062424296,8880.0,1.54216036986879698443568062424296
150,9001.14350760983412227151022480525312,8999.6,1.54350760983412227151022480525312
151,9121.54484589216583042404820996305858,9120.0,1.54484589216583042404820996305858
152,9242.74617533523563708991346787542057,9241.2,1.54617533523563708991346787542057
153,9364.74749605508396793831425291164080,9363.2,1.54749605508396793831425291164080
154,9487.54880816548078954184773875722395,9486.0,1.54880816548078954184773875722395
155,9611.15011177798446786402024134083267,9609.6,1.55011177798446786402024134083267
156,9735.55140700199873221858069240513465,9734.0,1.55140700199873221858069240513465
157,9860.75269394482781574724443191080646,9859.2,1.55269394482781574724443191080646
158,9986.75397271172984423388238873963494,9985.2,1.55397271172984423388238873963494
159,10113.5552434059685369279825026450898,10112.0,1.5552434059685369279825026450898
160,10241.1565061288632857148945784135442,10239.6,1.5565061288632857148945784135442
161,10369.5577609798376711289509937206699,10368.0,1.5577609798376711289509937206699
162,10498.7590080564664746705362353800667,10497.2,1.5590080564664746705362353800667
163,10628.7602474545212422803759299753294,10627.2,1.5602474545212422803759299753294
164,10759.5614792680144536076120798989323,10758.0,1.5614792680144536076120798989323
165,10891.1627035892423456718535583108114,10889.6,1.5627035892423456718535583108114
166,11023.5639205088264414347621191710123,11022.0,1.5639205088264414347621191710123
167,11156.7651301157538305134649557533817,11155.2,1.5651301157538305134649557533817
168,11290.7663324974162447246790105580675,11289.2,1.5663324974162447246790105580675
169,11425.5675277396479735216088764004406,11424.0,1.5675277396479735216088764004406
170,11561.1687159267626590667059731458633,11559.6,1.5687159267626590667059731458633
171,11697.5698971415890111347210085819629,11696.0,1.5698971415890111347210085819629
172,11834.7710714655054797126794611052690,11833.2,1.5710714655054797126794611052690
173,11972.7722389784739206990822668396786,11971.2,1.5722389784739206990822668396786
174,12111.5733997590722905458174188763332,12110.0,1.5733997590722905458174188763332
175,12251.1745538845264038276869921209470,12249.6,1.5745538845264038276869921209470
176,12391.5757014307407834458740436953897,12390.0,1.5757014307407834458740436953897
177,12532.7768424723286367258583880240225,12531.2,1.5768424723286367258583880240225
178,12674.7779770826409865641490654303989,12673.2,1.5779770826409865641490654303989
179,12817.5791053337949840687508274041728,12816.0,1.5791053337949840687508274041728
180,12961.1802272967014336397352151778149,12959.6,1.5802272967014336397352151778149
181,13105.5813430410915531384738196439786,13104.0,1.5813430410915531384738196439786
182,13250.7824526355429968408906864331650,13249.2,1.5824526355429968408906864331650
183,13396.7835561475051642239793221916675,13395.2,1.5835561475051642239793221916675
184,13543.5846536433238188270917227155611,13542.0,1.5846536433238188270917227155611
185,13691.1857451882650389960943582540073,13689.6,1.5857451882650389960943582540073
186,13839.5868308465385214789814706133735,13838.0,1.5868308465385214789814706133735
187,13988.7879106813202616734147091547036,13987.2,1.5879106813202616734147091547036
188,14138.7889847547746259624743748885206,14137.2,1.5889847547746259624743748885206
189,14289.5900531280758398696812268175563,14288.0,1.5900531280758398696812268175563
190,14441.1911158614289076843343542239748,14439.6,1.5911158614289076843343542239748
191,14593.5921730140899827796845841783143,14592.0,1.5921730140899827796845841783143
192,14746.7932246443862050061133505649740,14745.2,1.5932246443862050061133505649740
193,14900.7942708097350234631312282377089,14899.2,1.5942708097350234631312282377089
194,15055.5953115666630179909446542398777,15054.0,1.5953115666630179909446542398777
195,15211.1963469708242373139145952980791,15209.6,1.5963469708242373139145952980791
196,15367.5973770770180675277718250380934,15366.0,1.5973770770180675277718250380934
197,15524.7984019392066453058740475370931,15523.2,1.5984019392066453058740475370931
198,15682.7994216105318299864477202681647,15681.2,1.5994216105318299864477202681647
199,15841.6004361433317473746322815956856,15840.0,1.6004361433317473746322815956856
200,16001.2014455891569191994895614477554,15999.6,1.6014455891569191994895614477554
201,16161.6024499987859892023590937212347,16160.0,1.6024499987859892023590937212347
202,16322.8034494222410592326730253236175,16321.2,1.6034494222410592326730253236175
203,16484.8044439088026460059141671331830,16483.2,1.6044439088026460059141671331830
204,16647.6054335070242701385812139205901,16646.0,1.6054335070242701385812139205901
205,16811.2064182647466874254748712326991,16809.6,1.6064182647466874254748712326991
206,16975.6073982291117753780041931615731,16974.0,1.6073982291117753780041931615731
207,17140.8083734465760808941404969559842,17139.2,1.6083734465760808941404969559842
208,17306.8093439629240432814258181483305,17305.2,1.6093439629240432814258181483305
209,17473.6103098232808983758655538303774,17472.0,1.6103098232808983758655538303774
210,17641.2112710721252752523065091486835,17639.6,1.6112710721252752523065091486835
211,17809.6122277533014928852590719307249,17808.0,1.6122277533014928852590719307249
212,17978.8131799100315669872876318296382,17977.2,1.6131799100315669872876318296382
213,18148.8141275849269314028597786522966,18147.2,1.6141275849269314028597786522966
214,18319.6150708199998890333397176908331,18318.0,1.6150708199998890333397176908331
215,18491.2160096566747914993532169546184,18489.6,1.6160096566747914993532169546184
216,18663.6169441357989614949766888250770,18662.0,1.6169441357989614949766888250770
217,18836.8178742976533617927883177599573,18835.2,1.6178742976533617927883177599573
218,19010.8188001819630198722264204417204,19009.2,1.6188001819630198722264204417204
219,19185.6197218279072114441864279521676,19184.0,1.6197218279072114441864279521676
220,19361.2206392741294153799793645269124,19359.6,1.6206392741294153799793645269124
221,19537.6215525587470379469369478544033,19536.0,1.6215525587470379469369478544033
222,19714.8224617193609235480238505070988,19713.2,1.6224617193609235480238505070988
223,19892.8233667930646455262832113729285,19891.2,1.6233667930646455262832113729285
224,20071.6242678164535920934086740172863,20070.0,1.6242678164535920934086740172863
225,20251.2251648256338499389802983039841,20249.6,1.6251648256338499389802983039841
226,20431.6260578562308890582999083519781,20430.0,1.6260578562308890582999083519781
227,20612.8269469433980574416671672411712,20611.2,1.6269469433980574416671672411712
228,20794.8278321218248874352904171432440,20793.2,1.6278321218248874352904171432440
229,20977.6287134257452209259702955663197,20976.0,1.6287134257452209259702955663197
230,21161.2295908889451580357871989303439,21159.6,1.6295908889451580357871989303439
231,21345.6304645447708311160498266086477,21344.0,1.6304645447708311160498266086477
232,21530.8313344261360144494122068697527,21529.2,1.6313344261360144494122068697527
233,21716.8322005655295646456499697263002,21715.2,1.6322005655295646456499697263002
234,21903.6330629950227078771485532150355,21902.0,1.6330629950227078771485532150355
235,22091.2339217462761671251892092213609,22089.6,1.6339217462761671251892092213609
236,22279.6347768505471391357875155925665,22278.0,1.6347768505471391357875155925665
237,22468.8356283386961247051971770716901,22467.2,1.6356283386961247051971770716901
238,22658.8364762411936140260759121116732,22657.2,1.6364762411936140260759121116732
