Eigenstate,Energy,Kinetic Energy,Potential Energy
1,0.500000000015570181622060675485036794,0.0,0.500000000015570181622060675485036794
2,1.84623093775274861987436793810245170,1.2,0.64623093775274861987436793810245170
3,3.93633761000351700854946659207555452,3.2,0.73633761000351700854946659207555452
4,6.79966527843606568505435193381360690,6.0,0.79966527843606568505435193381360690
5,10.4480465763628157418887872125968108,9.6,0.8480465763628157418887872125968108
6,14.8870659985370170735711597535857832,14.0,0.8870659985370170735711597535857832
7,20.1197208263961763784266183801917062,19.2,0.9197208263961763784266183801917062
8,26.1477838463168940561480191030295050,25.2,0.9477838463168940561480191030295050
9,32.9723835573052520774097239032577836,32.0,0.9723835573052520774097239032577836
10,40.5942802135096997864890995994585581,39.6,0.9942802135096997864890995994585581
11,49.0140093850711938281088877186454659,48.0,1.0140093850711938281088877186454659
12,58.2319621672943047135359004642790446,57.2,1.0319621672943047135359004642790446
13,68.2484326902447949732088542536344327,67.2,1.0484326902447949732088542536344327
14,79.0636476516057728317824286393976549,78.0,1.0636476516057728317824286393976549
15,90.6777854324918723550845164871105936,89.6,1.0777854324918723550845164871105936
16,103.090988902319695606078555335173199,102.0,1.090988902319695606078555335173199
17,116.303374252269315187252291266559699,115.2,1.103374252269315187252291266559699
18,130.315037246290472588578415500618569,129.2,1.115037246290472588578415500618569
19,145.126057744206555104499830032994766,144.0,1.126057744206555104499830032994766
20,160.736503039348531827775973642897896,159.6,1.136503039348531827775973642897896
21,177.146430364636650533854004358128228,176.0,1.146430364636650533854004358128228
22,194.355888803739177617166521672703955,193.2,1.155888803739177617166521672703955
23,212.364920769008922611758323004505297,211.2,1.164920769008922611758323004505297
24,231.173563158883660256959536502760783,230.0,1.173563158883660256959536502760783
25,250.781848274682056823302531911727532,249.6,1.181848274682056823302531911727532
26,271.189804554411257816645352215276032,270.0,1.189804554411257816645352215276032
27,292.397457165729463780672306392893459,291.2,1.197457165729463780672306392893459
28,314.404828489304970111107333522338947,313.2,1.204828489304970111107333522338947
29,337.211938516018118975040983878044415,336.0,1.211938516018118975040983878044415
30,360.818805175803123860569066296172093,359.6,1.218805175803123860569066296172093
31,385.225444611780788782639104023871694,384.0,1.225444611780788782639104023871694
32,410.431871410255244586838145772521055,409.2,1.231871410255244586838145772521055
33,436.438098794838176989142578973997268,435.2,1.238098794838176989142578973997268
34,463.244138791213474723812593373832816,462.0,1.244138791213474723812593373832816
35,490.850002367716031106163918897932699,489.6,1.250002367716031106163918897932699
36,519.255699555864953438599610812907203,518.0,1.255699555864953438599610812907203
37,548.461239554187350139928933153502885,547.2,1.261239554187350139928933153502885
38,578.466630818038446734988989415353991,577.2,1.266630818038446734988989415353991
39,609.271881137625933192171285173551395,608.0,1.271881137625933192171285173551395
40,640.876997706050624312994458483002922,639.6,1.276997706050624312994458483002922
41,673.281987178858764604211689019602231,672.0,1.281987178858764604211689019602231
42,706.486855726346316461491422397010755,705.2,1.286855726346316461491422397010755
43,740.491609079649084148839208146586340,739.2,1.291609079649084148839208146586340
44,775.296252571484432042461870286900938,774.0,1.296252571484432042461870286900938
45,810.900791172272786038809367566129088,809.6,1.300791172272786038809367566129088
46,847.305229522253970743962269346262515,846.0,1.305229522253970743962269346262515
47,884.509571960119958449223134038742695,883.2,1.309571960119958449223134038742695
48,922.513822548608019533540251237535300,921.2,1.313822548608019533540251237535300
49,961.317985097433601389511090205515362,960.0,1.317985097433601389511090205515362
50,1000.92206318388814025607244955160399,999.6,1.32206318388814025607244955160399
51,1041.32606017138154337852264406224641,1040.0,1.32606017138154337852264406224641
52,1082.52997922617073370223081259477032,1081.2,1.32997922617073370223081259477032
53,1124.53382333248319918785011283230125,1123.2,1.33382333248319918785011283230125
54,1167.33759530621692770440193508128458,1166.0,1.33759530621692770440193508128458
55,1210.94129780737463296409196125187162,1209.6,1.34129780737463296409196125187162
56,1255.34493335137010239259842097016341,1254.0,1.34493335137010239259842097016341
57,1300.54850431932729886345791503378401,1299.2,1.34850431932729886345791503378401
58,1346.55201296747805103888664087416084,1345.2,1.35201296747805103888664087416084
59,1393.35546143575141311210269617978899,1392.0,1.35546143575141311210269617978899
60,1440.95885175563675023851537723299176,1439.6,1.35885175563675023851537723299176
61,1489.36218585739304171564501516291977,1488.0,1.36218585739304171564501516291977
62,1538.56546557666859296652530294786989,1537.2,1.36546557666859296652530294786989
63,1588.56869266058810549232114312139604,1587.2,1.36869266058810549232114312139604
64,1639.37186877335774147997438061819445,1638.0,1.37186877335774147997438061819445
65,1690.97499550143328491071815088477406,1689.6,1.37499550143328491071815088477406
66,1743.37807435829165367624759544127666,1742.0,1.37807435829165367624759544127666
67,1796.58110678884175491800977463070334,1795.2,1.38110678884175491800977463070334
68,1850.58409417350691964426787308509007,1849.2,1.38409417350691964426787308509007
69,1905.38703783200784000886864985046747,1904.0,1.38703783200784000886864985046747
70,1960.98993902687200436737876200762390,1959.6,1.38993902687200436737876200762390
71,2017.39279896669302652252483252624441,2016.0,1.39279896669302652252483252624441
72,2074.59561880916096732849290770883515,2073.2,1.39561880916096732849290770883515
73,2132.59839966388269381723971761858119,2131.2,1.39839966388269381723971761858119
74,2191.40114259500950216141580638652622,2190.0,1.40114259500950216141580638652622
75,2251.00384862368759968739782301604953,2249.6,1.40384862368759968739782301604953
76,2311.40651873034559159517229386389724,2310.0,1.40651873034559159517229386389724
77,2372.60915385683181564339528583472682,2371.2,1.40915385683181564339528583472682
78,2434.61175490841320225977235870180314,2433.2,1.41175490841320225977235870180314
79,2497.41432275564629071691110400802578,2496.0,1.41432275564629071691110400802578
80,2561.01685823613009388815427723442760,2559.6,1.41685823613009388815427723442760
81,2625.41936215614965475642501098458155,2624.0,1.41936215614965475642501098458155
82,2690.62183529221837639856218112201645,2689.2,1.42183529221837639856218112201645
83,2756.62427839252651843383441947380068,2755.2,1.42427839252651843383441947380068
84,2823.42669217830262863360520375716467,2822.0,1.42669217830262863360520375716467
85,2891.02907734509411911294781263817033,2889.6,1.42907734509411911294781263817033
86,2959.43143456397268065961969954963851,2958.0,1.43143456397268065961969954963851
87,3028.63376448266977128500596035948435,3027.2,1.43376448266977128500596035948435
88,3098.63606772664699170390594361542352,3097.2,1.43606772664699170390594361542352
89,3169.43834490010577694787557481799361,3168.0,1.43834490010577694787557481799361
90,3241.04059658694049010010870199417418,3239.6,1.44059658694049010010870199417418
91,3313.44282335163868268779011059066104,3312.0,1.44282335163868268779011059066104
92,3386.64502574013199797031373741237135,3385.2,1.44502574013199797031373741237135
93,3460.64720428060093110670400807351223,3459.2,1.44720428060093110670400807351223
94,3535.44935948423641725684012057495889,3534.0,1.44935948423641725684012057495889
95,3611.05149184596099751705410345886295,3609.6,1.45149184596099751705410345886295
96,3687.45360184511211076855707358684634,3686.0,1.45360184511211076855707358684634
97,3764.65568994608987517503848197441356,3763.2,1.45568994608987517503848197441356
98,3842.65775659897155019148849350904244,3841.2,1.45775659897155019148849350904244
99,3921.45980224009471647410446186925892,3920.0,1.45980224009471647410446186925892
100,4001.06182729261106474072646122091304,3999.6,1.46182729261106474072646122091304
101,4081.46383216701255532709230410810024,4080.0,1.46383216701255532709230410810024
102,4162.66581726163158460948144043627886,4161.2,1.46581726163158460948144043627886
103,4244.66778296311668655070424221820861,4243.2,1.46778296311668655070424221820861
104,4327.46972964688519036168275034212595,4326.0,1.46972964688519036168275034212595
105,4411.07165767755416219711210067665279,4409.6,1.47165767755416219711210067665279
106,4495.47356740935086803944810456793026,4494.0,1.47356740935086803944810456793026
107,4580.67545918650391684351106148529611,4579.2,1.47545918650391684351106148529611
108,4666.67733334361616377444149405670232,4665.2,1.47733334361616377444149405670232
109,4753.47919020602038477820933221798314,4752.0,1.47919020602038477820933221798314
110,4841.08103009011867130375302469198745,4839.6,1.48103009011867130375302469198745
111,4929.48285330370642813462651671275844,4928.0,1.48285330370642813462651671275844
112,5018.68466014628180785439857752897931,5017.2,1.48466014628180785439857752897931
113,5108.68645090934135993425487693692527,5107.2,1.48645090934135993425487693692527
114,5199.48822587666262367349687104261187,5198.0,1.48822587666262367349687104261187
115,5291.08998532457435377512898842166630,5289.6,1.48998532457435377512898842166630
116,5383.49172952221501900707738498720302,5382.0,1.49172952221501900707738498720302
117,5476.69345873178018268657677582073705,5475.2,1.49345873178018268657677582073705
118,5570.69517320875933269415626839101225,5569.2,1.49517320875933269415626839101225
119,5665.49687320216269500993885401684922,5664.0,1.49687320216269500993885401684922
120,5761.09855895473853892273419097383147,5759.6,1.49855895473853892273419097383147
121,5857.50023070318144379516012478371779,5856.0,1.50023070318144379516012478371779
122,5954.70188867833197835489557860269825,5953.2,1.50188867833197835489557860269825
123,6052.70353310536821128923546174503513,6051.2,1.50353310536821128923546174503513
124,6151.50516420398945424030957171293451,6150.0,1.50516420398945424030957171293451
125,6251.10678218859260873206437508558554,6249.6,1.50678218859260873206437508558554
126,6351.50838726844147336280897209973744,6350.0,1.50838726844147336280897209973744
127,6452.70997964782934701924016975341401,6451.2,1.50997964782934701924016975341401
128,6554.71155952623524128067168768205762,6553.2,1.51155952623524128067168768205762
129,6657.51312709847400310895442171899408,6656.0,1.51312709847400310895442171899408
130,6761.11468255484063053770742145179175,6759.6,1.51468255484063053770742145179175
131,6865.51622608124904867036115746995468,6864.0,1.51622608124904867036115746995468
132,6970.71775785936559831931383858187791,6969.2,1.51775785936559831931383858187791
133,7076.71927806673747783691765597183510,7075.2,1.51927806673747783691765597183510
134,7183.52078687691636741305286786251820,7182.0,1.52078687691636741305286786251820
135,7291.12228445957744700570520527891113,7289.6,1.52228445957744700570520527891113
136,7399.52377098063401538343176780074236,7398.0,1.52377098063401538343176780074236
137,7508.72524660234790445065686941092687,7507.2,1.52524660234790445065686941092687
138,7618.72671148343586941474879778596367,7617.2,1.52671148343586941474879778596367
139,7729.52816577917213324792278969965516,7728.0,1.52816577917213324792278969965516
140,7841.12960964148724845104725664787518,7839.6,1.52960964148724845104725664787518
141,7953.53104321906343456894036988982141,7952.0,1.53104321906343456894036988982141
142,8066.73246665742654183347696825823401,8065.2,1.53246665742654183347696825823401
143,8180.73388009903478266065654476192252,8179.2,1.53388009903478266065654476192252
144,8295.53528368336436554814599003452612,8294.0,1.53528368336436554814599003452612
145,8411.13667754699216173205178000147419,8409.6,1.53667754699216173205178000147419
146,8527.53806182367552709292526792745123,8526.0,1.53806182367552709292526792745123
147,8644.73943664442939359803879322830109,8643.2,1.53943664442939359803879322830109
148,8762.74080213760074560893699292845146,8761.2,1.54080213760074560893699292845146
149,8881.54215842894058285519335426310527,8880.0,1.54215842894058285519335426310527
150,9001.14350564167347371522493849138888,8999.6,1.54350564167347371522493849138888
151,9121.54484389656479471839434570814041,9120.0,1.54484389656479471839434570814041
152,9242.74617331198574656754340671399865,9241.2,1.54617331198574656754340671399865
153,9364.74749400397623563162636573672013,9363.2,1.54749400397623563162636573672013
154,9487.54880608630570480765841253398484,9486.0,1.54880608630570480765841253398484
155,9611.15010967053199198794548949299849,9609.6,1.55010967053199198794548949299849
156,9735.55140486605829399893138799558563,9734.0,1.55140486605829399893138799558563
157,9860.75269178018830705823803145953038,9859.2,1.55269178018830705823803145953038
158,9986.75397051817961556797236192099982,9985.2,1.55397051817961556797236192099982
159,10113.5552411832953929171053053325860,10112.0,1.5552411832953929171053053325860
160,10241.1565038768544806304324828749491,10239.6,1.5565038768544806304324828749491
161,10369.5577586982799043602076722322543,10368.0,1.5577586982799043602076722322543
162,10498.7590057451458861815203744693015,10497.2,1.5590057451458861815203744693015
163,10628.7602451132234080446867993455760,10627.2,1.5602451132234080446867993455760
164,10759.5614768965243810212192235815982,10758.0,1.5614768965243810212192235815982
165,10891.1627011873444689435613465226281,10889.6,1.5627011873444689435613465226281
166,11023.5639180763046169541483514416325,11022.0,1.5639180763046169541483514416325
167,11156.7651276523913321960810688417059,11155.2,1.5651276523913321960810688417059
168,11290.7663300029957593342977009890306,11289.2,1.5663300029957593342977009890306
169,11425.5675252139515959693036632970208,11424.0,1.5675252139515959693036632970208
170,11561.1687133695718876865451275929317,11559.6,1.5687133695718876865451275929317
171,11697.5698945526847429358570290674414,11696.0,1.5698945526847429358570290674414
172,11834.7710688446680056076133031103741,11833.2,1.5710688446680056076133031103741
173,11972.7722363254829207078800362397327,11971.2,1.5722363254829207078800362397327
174,12111.5733970737068289760553619573470,12110.0,1.5733970737068289760553619573470
175,12251.1745511665649244298989611891202,12249.6,1.5745511665649244298989611891202
176,12391.5756986799611045442738248888997,12390.0,1.5756986799611045442738248888997
177,12532.7768396885079463241075397632247,12531.2,1.5768396885079463241075397632247
178,12674.7779742655558374259390868727494,12673.2,1.5779742655558374259390868727494
179,12817.5791024832212887729667007506852,12816.0,1.5791024832212887729667007506852
180,12961.1802244124144596099654512372207,12959.6,1.5802244124144596099654512372207
181,13105.5813401228659176466303669035072,13104.0,1.5813401228659176466303669035072
182,13250.7824496831526619847001571987321,13249.2,1.5824496831526619847001571987321
183,13396.7835531607234318781050534645146,13395.2,1.5835531607234318781050534645146
184,13543.5846506219233255676443893579084,13542.0,1.5846506219233255676443893579084
185,13691.1857421320177509982866642549290,13689.6,1.5857421320177509982866642549290
186,13839.5868277552157293876808857441682,13838.0,1.5868277552157293876808857441682
187,13988.7879075546925754463458044148770,13987.2,1.5879075546925754463458044148770
188,14138.7889815926119696858206602881456,14137.2,1.5889815926119696858206602881456
189,14289.5900499301474465458341341734013,14288.0,1.5900499301474465458341341734013
190,14441.1911126275033139915350921571073,14439.6,1.5911126275033139915350921571073
191,14593.5921697439350238033024562688964,14592.0,1.5921697439350238033024562688964
192,14746.7932213377690089413020529855739,14745.2,1.5932213377690089413020529855739
193,14900.7942674664220062886025853570852,14899.2,1.5942674664220062886025853570852
194,15055.5953081864198781135969761631268,15054.0,1.5953081864198781135969761631268
195,15211.1963435534159501840508448670853,15209.6,1.5963435534159501840508448670853
196,15367.5973736222088802246405175621731,15366.0,1.5973736222088802246405175621731
197,15524.7983984467600710932634982039468,15523.2,1.5983984467600710932634982039468
198,15682.7994180802106428380622774367968,15681.2,1.5994180802106428380622774367968
199,15841.6004325748979764689766144367994,15840.0,1.6004325748979764689766144367994
200,16001.2014419823718433839850170350804,15999.6,1.6014419823718433839850170350804
201,16161.6024463534101314264138377190516,16160.0,1.6024463534101314264138377190516
202,16322.8034457380341809494250442336870,16321.2,1.6034457380341809494250442336870
203,16484.8044401855237415423643176292146,16483.2,1.6044401855237415423643176292146
204,16647.6054297444315610338306664337797,16646.0,1.6054297444315610338306664337797
205,16811.2064144625976167367792870050384,16809.6,1.6064144625976167367792870050384
206,16975.6073943871630019543541645943422,16974.0,1.6073943871630019543541645943422
207,17140.8083695645834736170756370345287,17139.2,1.6083695645834736170756370345287
208,17306.8093400406426752727871597598801,17305.2,1.6093400406426752727871597598801
209,17473.6103058604650411721884972386132,17472.0,1.6103058604650411721884972386132
210,17641.2112670685283929455540497701047,17639.6,1.6112670685283929455540497701047
211,17809.6122237086762362295923506651178,17808.0,1.6122237086762362295923506651178
212,17978.8131758241297674715684563655909,17977.2,1.6131758241297674715684563655909
213,18148.8141234574995952885767729825063,18147.2,1.6141234574995952885767729825063
214,18319.6150666507971913576475309343812,18318.0,1.6150666507971913576475309343812
215,18491.2160054454460700429111466038407,18489.6,1.6160054454460700429111466038407
216,18663.6169398822927107142706261830386,18662.0,1.6169398822927107142706261830386
217,18836.8178700016172267166170252293220,18835.2,1.6178700016172267166170252293220
218,19010.8187958431437899620304537189585,19009.2,1.6187958431437899620304537189585
219,19185.6197174460508144178950882170882,19184.0,1.6197174460508144178950882170882
220,19361.2206348489809109990483882233120,19359.6,1.6206348489809109990483882233120
221,19537.6215480900506117662466205512296,19536.0,1.6215480900506117662466205512296
222,19714.8224572068598806283043791819502,19713.2,1.6224572068598806283043791819502
223,19892.8233622365014041087313122127576,19891.2,1.6233622365014041087313122127576
224,20071.6242632155696772361562816879264,20070.0,1.6242632155696772361562816879264
225,20251.2251601801698871150732686876713,20249.6,1.6251601801698871150732686876713
226,20431.6260531659265977148416755912474,20430.0,1.6260531659265977148416755912474
227,20612.8269422079922445197791451157147,20611.2,1.6269422079922445197791451157147
228,20794.8278273410554408505378565700885,20793.2,1.6278273410554408505378565700885
229,20977.6287085993491030088991709168563,20976.0,1.6287085993491030088991709168563
230,21161.2295860166583989322145534591929,21159.6,1.6295860166583989322145534591929
231,21345.6304596263285221467467335392065,21344.0,1.6304596263285221467467335392065
232,21530.8313294612723014288152472910411,21529.2,1.6313294612723014288152472910411
233,21716.8321955539776411592340513610507,21715.2,1.6321955539776411592340513610507
234,21903.6330579365148085170901732544529,21902.0,1.6330579365148085170901732544529
235,22091.2339166405435606839463463481112,22089.6,1.6339166405435606839463463481112
236,22279.6347716973201217572186973700119,22278.0,1.6347716973201217572186973700119
237,22468.8356231377040129928388551703224,22467.2,1.6356231377040129928388551703224
238,22658.8364709921647381081937648464086,22657.2,1.6364709921647381081937648464086
