Eigenstate,Energy,Kinetic Energy,Potential Energy
1,0.500000000207236850866851464244136000,0.0,0.500000000207236850866851464244136000
2,1.84623093900385847450776199260393950,1.2,0.64623093900385847450776199260393950
3,3.93633761367859559775831146901505431,3.2,0.73633761367859559775831146901505431
4,6.79966528609096129209052088367627587,6.0,0.79966528609096129209052088367627587
5,10.4480465896229407207086193305619025,9.6,0.8480465896229407207086193305619025
6,14.8870660190564075248563231470456025,14.0,0.8870660190564075248563231470456025
7,20.1197208558424343074735522423411188,19.2,0.9197208558424343074735522423411188
8,26.1477838863649323641410484491074001,25.2,0.9477838863649323641410484491074001
9,32.9723836096344087110653808841056191,32.0,0.9723836096344087110653808841056191
10,40.5942802798022940025203351846830570,39.6,0.9942802798022940025203351846830570
11,49.0140094670117613742415996693567576,48.0,1.0140094670117613742415996693567576
12,58.2319622665691790100134537326299230,57.2,1.0319622665691790100134537326299230
13,68.2484328085418766935908865169598989,67.2,1.0484328085418766935908865169598989
14,79.0636477906144079436783646061833867,78.0,1.0636477906144079436783646061833867
15,90.6777855939027956290998267922283230,89.6,1.0777855939027956290998267922283230
16,103.090989087825015285596485129235828,102.0,1.090989087825015285596485129235828
17,116.303374463562524470257381047288958,115.2,1.103374463562524470257381047288958
18,130.315037485066479128214875173754772,129.2,1.115037485066479128214875173754772
19,145.126058012161722960267375710106570,144.0,1.126058012161722960267375710106570
20,160.736503338180732238516052198876438,159.6,1.136503338180732238516052198876438
21,177.146430696045319086540429152101178,176.0,1.146430696045319086540429152101178
22,194.355889169425376152591776254302483,193.2,1.155889169425376152591776254302483
23,212.364921170675404709693885087908228,211.2,1.164921170675404709693885087908228
24,231.173563598234939478650925666901124,230.0,1.173563598234939478650925666901124
25,250.781848753424477117916270289709711,249.6,1.181848753424477117916270289709711
26,271.189805074253065657267287080681450,270.0,1.189805074253065657267287080681450
27,292.397457728380881707824977698899051,291.2,1.197457728380881707824977698899051
28,314.404829096478271442411920298257023,313.2,1.204829096478271442411920298257023
29,337.211939169427703498374470687099069,336.0,1.211939169427703498374470687099069
30,360.818805877165594371388457602194856,359.6,1.218805877165594371388457602194856
31,385.225445362815028358493604746566640,384.0,1.225445362815028358493604746566640
32,410.431872212682494516520656071595348,409.2,1.231872212682494516520656071595348
33,436.438099650382115292577903328988024,435.2,1.238099650382115292577903328988024
34,463.244139701600295213152238947914702,462.0,1.244139701600295213152238947914702
35,490.850003334674522949739130806247872,489.6,1.250003334674522949739130806247872
36,519.255700581126581198160085192206242,518.0,1.255700581126581198160085192206242
37,548.461240639486334258540022222527716,547.2,1.261240639486334258540022222527716
38,578.466631965111844458499951944471968,577.2,1.266631965111844458499951944471968
39,609.271882348213719911619735489052422,608.0,1.271882348213719911619735489052422
40,640.876998981895775318916933238424499,639.6,1.276998981895775318916933238424499
41,673.281988521707337246768950546817206,672.0,1.281988521707337246768950546817206
42,706.486857137947532712729704914247620,705.2,1.286857137947532712729704914247620
43,740.491610561755413565402379204951629,739.2,1.291610561755413565402379204951629
44,775.296254125851675128727723249685664,774.0,1.296254125851675128727723249685664
45,810.900792800660158011812065731653802,809.6,1.300792800660158011812065731653802
46,847.305231226424185702633556888274607,846.0,1.305231226424185702633556888274607
47,884.509573741839313951477556553158993,883.2,1.309573741839313951477556553158993
48,922.513824409646481585577981249439943,921.2,1.313824409646481585577981249439943
49,961.317987039564889852440883653722314,960.0,1.317987039564889852440883653722314
50,1000.92206520888981467558833249026611,999.6,1.32206520888981467558833249026611
51,1041.32606228103508924391847281622010,1040.0,1.32606228103508924391847281622010
52,1082.52998142226164914151974865271723,1081.2,1.32998142226164914151974865271723
53,1124.53382561680108210618331766609056,1123.2,1.33382561680108210618331766609056
54,1167.33759768055556337336165891016612,1166.0,1.33759768055556337336165891016612
55,1210.94130027353208206977591432174805,1209.6,1.34130027353208206977591432174805
56,1255.34493591114878955072157984417836,1254.0,1.34493591114878955072157984417836
57,1300.54850697453410160997945916535623,1299.2,1.34850697453410160997945916535623
58,1346.55201571992438930492941319716235,1345.2,1.35201571992438930492941319716235
59,1393.35546428725333919217135536124759,1392.0,1.35546428725333919217135536124759
60,1440.95885470801503926124339947885482,1439.6,1.35885470801503926124339947885482
61,1489.36218891247328262651046298388447,1488.0,1.36218891247328262651046298388447
62,1538.56546873628128003217404744957450,1537.2,1.36546873628128003217404744957450
63,1588.56869592656873033632511043941527,1587.2,1.36869592656873033632511043941527
64,1639.37187214754688566003343775138767,1638.0,1.37187214754688566003343775138767
65,1690.97499898567671304748958928303930,1689.6,1.37499898567671304748958928303930
66,1743.37807795444040714415594433607444,1742.0,1.37807795444040714415594433607444
67,1796.58111049875224610855502376051494,1795.2,1.38111049875224610855502376051494
68,1850.58409799904102681251168023055575,1849.2,1.38409799904102681251168023055575
69,1905.38704177503300271393788832489668,1904.0,1.38704177503300271393788832489668
70,1960.98994308926131951798125103357669,1959.6,1.38994308926131951798125103357669
71,2017.39280315032534503862947432745398,2016.0,1.39280315032534503862947432745398
72,2074.59562311592099143047941934398055,2073.2,1.39562311592099143047941934398055
73,2132.59840409566107495397889769206934,2131.2,1.39840409566107495397889769206934
74,2191.40114715370293958889435666663491,2190.0,1.40114715370293958889435666663491
75,2251.00385331119893970965703786608908,2249.6,1.40385331119893970965703786608908
76,2311.40652354858392747948411112536052,2310.0,1.40652354858392747948411112536052
77,2372.60915880771258822175595885230332,2371.2,1.40915880771258822175595885230332
78,2434.61175999385830122895080799231292,2433.2,1.41175999385830122895080799231292
79,2497.41432797758415664944791488160683,2496.0,1.41432797758415664944791488160683
80,2561.01686359649582096686658227629140,2559.6,1.41686359649582096686658227629140
81,2625.41936765688509424513547130567156,2624.0,1.41936765688509424513547130567156
82,2690.62184093527224086193347244858557,2689.2,1.42184093527224086193347244858557
83,2756.62428417985448671935690141426428,2755.2,1.42428417985448671935690141426428
84,2823.42669811186745162895373103179178,2822.0,1.42669811186745162895373103179178
85,2891.02908342686572629209452934048766,2889.6,1.42908342686572629209452934048766
86,2959.43144079592828743126255136833806,2958.0,1.43144079592828743126255136833806
87,3028.63377086679398715704940746210345,3027.2,1.43377086679398715704940746210345
88,3098.63607426493192927790853609861992,3097.2,1.43607426493192927790853609861992
89,3169.43835159455116175756110085278466,3168.0,1.43835159455116175756110085278466
90,3241.04060343955377130822225084350278,3239.6,1.44060343955377130822225084350278
91,3313.44283036443514465576880766686757,3312.0,1.44283036443514465576880766686757
92,3386.64503291513487271543248076430807,3385.2,1.44503291513487271543248076430807
93,3460.64721161984151166155169900458468,3459.2,1.44721161984151166155169900458468
94,3535.44936698975417194617967073516263,3534.0,1.44936698975417194617967073516263
95,3611.05149951980368516732099906330729,3609.6,1.45149951980368516732099906330729
96,3687.45360968933589686545670980321059,3686.0,1.45360968933589686545670980321059
97,3764.65569796275944898491184781196126,3763.2,1.45569796275944898491184781196126
98,3842.65776479016024286232757276060958,3841.2,1.45776479016024286232757276060958
99,3921.45981060788462013231700566621360,3920.0,1.45981060788462013231700566621360
100,4001.06183583909315259996939828089081,3999.6,1.46183583909315259996939828089081
101,4081.46384089428680282571883752408302,4080.0,1.46384089428680282571883752408302
102,4162.66582617180709159337576917416510,4161.2,1.46582617180709159337576917416510
103,4244.66779205831180051851105721947879,4243.2,1.46779205831180051851105721947879
104,4327.46973892922763078967792764728419,4326.0,1.46973892922763078967792764728419
105,4411.07166714918114596120193412725942,4409.6,1.47166714918114596120193412725942
106,4495.47357707240923595203264109608016,4494.0,1.47357707240923595203264109608016
107,4580.67546904315026132319864264910529,4579.2,1.47546904315026132319864264910529
108,4666.67734339601695766685810999924406,4665.2,1.47734339601695766685810999924406
109,4753.47920045635211134640858067345302,4752.0,1.47920045635211134640858067345302
110,4841.08104054056795540699866897258557,4839.6,1.48104054056795540699866897258557
111,4929.48286395647016861459126212396899,4928.0,1.48286395647016861459126212396899
112,5018.68467100356731114810075106922164,5017.2,1.48467100356731114810075106922164
113,5108.68646197336647493333598593847970,5107.2,1.48646197336647493333598593847970
114,5199.48823714965587784973160428807975,5198.0,1.48823714965587784973160428807975
115,5291.08999680877509059235270580546359,5289.6,1.48999680877509059235270580546359
116,5383.49174121987353664001508629115398,5382.0,1.49174121987353664001508629115398
117,5476.69347064515787406736280423100520,5475.2,1.49347064515787406736280423100520
118,5570.69518534012882690764510940128698,5569.2,1.49518534012882690764510940128698
119,5665.49688555380800005922408374024030,5664.0,1.49688555380800005922408374024030
120,5761.09857152895518588661648286100919,5759.6,1.49857152895518588661648286100919
121,5857.50024350227663239963440472762442,5856.0,1.50024350227663239963440472762442
122,5954.70190170462472398106379826685799,5953.2,1.50190170462472398106379826685799
123,6052.70354636118949344039410019840166,6051.2,1.50354636118949344039410019840166
124,6151.50517769168236649130996186216042,6150.0,1.50517769168236649130996186216042
125,6251.10679591051251018440135268010607,6249.6,1.50679591051251018440135268010607
126,6351.50840122695614162925571957170343,6350.0,1.50840122695614162925571957170343
127,6452.70999384531913276221798881016999,6451.2,1.50999384531913276221798881016999
128,6554.71157396509322432892177442010254,6553.2,1.51157396509322432892177442010254
129,6657.51314178110615017746332759947475,6656.0,1.51314178110615017746332759947475
130,6761.11469748366595457623130400735035,6759.6,1.51469748366595457623130400735035
131,6865.51624125869976986629473694231848,6864.0,1.51624125869976986629473694231848
132,6970.71777328788730678105961262174658,6969.2,1.51777328788730678105961262174658
133,7076.71929374878929798432553149142067,7075.2,1.51929374878929798432553149142067
134,7183.52080281497112410192852437099560,7182.0,1.52080281497112410192852437099560
135,7291.12230065612183341381764135529799,7289.6,1.52230065612183341381764135529799
136,7399.52378743816876268589298378298514,7398.0,1.52378743816876268589298378298514
137,7508.72526332338795331299892046786776,7507.2,1.52526332338795331299892046786776
138,7618.72672847051054333248286558729141,7617.2,1.52672847051054333248286558729141
139,7729.52818303482531376183512266096932,7728.0,1.52818303482531376183512266096932
140,7841.12962716827755226796682140077358,7839.6,1.52962716827755226796682140077358
141,7953.53106101956439261819964760432456,7952.0,1.53106101956439261819964760432456
142,8066.73248473422678028978861744269557,8065.2,1.53248473422678028978861744269557
143,8180.73389845473820596463581781757101,8179.2,1.53389845473820596463581781757101
144,8295.53530232059034145622928334253531,8294.0,1.53530232059034145622928334253531
145,8411.13669646837570842808947715886593,8409.6,1.53669646837570842808947715886593
146,8527.53808103186750239427015786665588,8526.0,1.53808103186750239427015786665588
147,8644.73945614209668628950109202286802,8643.2,1.53945614209668628950109202286802
148,8762.74082192742646893853985895901472,8761.2,1.54082192742646893853985895901472
149,8881.54217851362427022623899675480938,8880.0,1.54217851362427022623899675480938
150,9001.14352602393127660976459573391325,8999.6,1.54352602393127660976459573391325
151,9121.54486457912968288779717155164723,9120.0,1.54486457912968288779717155164723
152,9242.74619429760771052646692043537393,9241.2,1.54619429760771052646692043537393
153,9364.74751529542249149231631156347113,9363.2,1.54751529542249149231631156347113
154,9487.54882768636090149214070638820521,9486.0,1.54882768636090149214070638820521
155,9611.15013158199842085632276927246101,9609.6,1.55013158199842085632276927246101
156,9735.55142709175610093266010718482760,9734.0,1.55142709175610093266010718482760
157,9860.75271432295570703793712143244014,9859.2,1.55271432295570703793712143244014
158,9986.75399338087310978600709567359366,9985.2,1.55399338087310978600709567359366
159,10113.5552643687899884658928329486227,10112.0,1.5552643687899884658928329486227
160,10241.1565273880439128081381619245917,10239.6,1.5565273880439128081381619245917
161,10369.5577825380768616362341354900466,10368.0,1.5577825380768616362341354900466
162,10498.7590299164822378649434760064796,10497.2,1.5590299164822378649434760064796
163,10628.7602696190504346995572012492828,10627.2,1.5602696190504346995572012492828
164,10759.5615017398130076734328570065464,10758.0,1.5615017398130076734328570065464
165,10891.1627263710855011248004316655761,10889.6,1.5627263710855011248004316655761
166,11023.5639436035089796292103393548616,11022.0,1.5639436035089796292103393548616
167,11156.7651535260903116207466431183544,11155.2,1.5651535260903116207466431183544
168,11290.7663562262412478917413427709713,11289.2,1.5663562262412478917413427709713
169,11425.5675517898163400339180795478043,11424.0,1.5675517898163400339180795478043
170,11561.1687403011497385649407594293410,11559.6,1.5687403011497385649407594293410
171,11697.5699218430909109357042498472630,11696.0,1.5699218430909109357042498472630
172,11834.7710964970393172859214127752581,11833.2,1.5710964970393172859214127752581
173,11972.7722643429780793512547744185345,11971.2,1.5722643429780793512547744185345
174,12111.5734254595066783664443712642392,12110.0,1.5734254595066783664443712642392
175,12251.1745799238727159503215279074700,12249.6,1.5745799238727159503215279074700
176,12391.5757278120027676800426419312781,12390.0,1.5757278120027676800426419312781
177,12532.7768691985323626160814612000105,12531.2,1.5768691985323626160814612000105
178,12674.7780041568351179333997006581103,12673.2,1.5780041568351179333997006581103
179,12817.5791327590510551047906200719889,12816.0,1.5791327590510551047906200719889
180,12961.1802550761141285838641756742690,12959.6,1.5802550761141285838641756742690
181,13105.5813711777789896373558078053093,13104.0,1.5813711777789896373558078053093
182,13250.7824811326470130232639027182311,13249.2,1.5824811326470130232639027182311
183,13396.7835850081916095652355414791671,13395.2,1.5835850081916095652355414791671
184,13543.5846828707828488659079668784348,13542.0,1.5846828707828488659079668784348
185,13691.1857747857114139685286158397975,13689.6,1.5857747857114139685286158397975
186,13839.5868608172119089366955920843683,13838.0,1.5868608172119089366955920843683
187,13988.7879410284855431539727117259733,13987.2,1.5879410284855431539727117259733
188,14138.7890154817222077809742467545253,14137.2,1.5890154817222077809742467545253
189,14289.5900842381219681023187605112384,14288.0,1.5900842381219681023187605112384
190,14441.1911473579159874158691633477589,14439.6,1.5911473579159874158691633477589
191,14593.5922049003869016881797619793745,14592.0,1.5922049003869016881797619793745
192,14746.7932569238886613597545365139141,14745.2,1.5932569238886613597545365139141
193,14900.7943034858658586053967506373970,14899.2,1.5943034858658586053967506373970
194,15055.5953446428725533918985304587197,15054.0,1.5953446428725533918985304587197
195,15211.1963804505906162669285569601202,15209.6,1.5963804505906162669285569601202
196,15367.5974109638476015725513869842006,15366.0,1.5974109638476015725513869842006
197,15524.7984362366341654602701285239096,15523.2,1.5984362366341654602701285239096
198,15682.7994563221210428711765472642828,15681.2,1.5994563221210428711765472642828
199,15841.6004712726755963167086329427995,15840.0,1.6004712726755963167086329427995
200,16001.2014811398779504018967143970927,15999.6,1.6014811398779504018967143970927
201,16161.6024859745367230692379173237172,16160.0,1.6024859745367230692379173237172
202,16322.8034858267043669411164608293125,16321.2,1.6034858267043669411164608293125
203,16484.8044807456921314172920541428447,16483.2,1.6044807456921314172920541428447
204,16647.6054707800846571442096525376670,16646.0,1.6054707800846571442096525376670
205,16811.2064559777542128233733754798960,16809.6,1.6064559777542128233733754798960
206,16975.6074363858745873794604675203228,16974.0,1.6074363858745873794604675203228
207,17140.8084120509346433608256882702081,17139.2,1.6084120509346433608256882702081
208,17306.8093830187515457958732598089229,17305.2,1.6093830187515457958732598089229
209,17473.6103493344836722502481342256899,17472.0,1.6103493344836722502481342256899
210,17641.2113110426432155826166330294431,17639.6,1.6113110426432155826166330294431
211,17809.6122681871084867602193899956851,17808.0,1.6122681871084867602193899956851
212,17978.8132208111359279635957734894329,17977.2,1.6132208111359279635957734894329
213,18148.8141689573718403607047912112474,18147.2,1.6141689573718403607047912112474
214,18319.6151126678638415285112997258532,18318.0,1.6151126678638415285112997258532
215,18491.2160519840720517307128134911923,18489.6,1.6160519840720517307128134911923
216,18663.6169869468800230085653882105167,18662.0,1.6169869468800230085653882105167
217,18836.8179175966054150464099789521136,18835.2,1.6179175966054150464099789521136
218,19010.8188439730104267869744805600103,19009.2,1.6188439730104267869744805600103
219,19185.6197661153119870720779662821798,19184.0,1.6197661153119870720779662821798
220,19361.2206840621917168196176413369575,19359.6,1.6206840621917168196176413369575
221,19537.6215978518056606419515478406837,19536.0,1.6215978518056606419515478406837
222,19714.8225075217938051059375956539036,19713.2,1.6225075217938051059375956539036
223,19892.8234131092893771984230438410302,19891.2,1.6234131092893771984230438410302
224,20071.6243146509279380595221675034801,20070.0,1.6243146509279380595221675034801
225,20251.2252121828562745433407980533337,20249.6,1.6252121828562745433407980533337
226,20431.6261057407410921472808800052458,20430.0,1.6261057407410921472808800052458
227,20612.8269953597775179560442740481807,20611.2,1.6269953597775179560442740481807
228,20794.8278810746974154138937808164478,20793.2,1.6278810746974154138937808164478
229,20977.6287629197775180807554950575209,20976.0,1.6287629197775180807554950575209
230,21161.2296409288473870619267455857926,21159.6,1.6296409288473870619267455857926
231,21345.6305151352971939042732761424060,21344.0,1.6305151352971939042732761424060
232,21530.8313855720853393715393204931120,21529.2,1.6313855720853393715393204931120
233,21716.8322522717459030880743978913772,21715.2,1.6322522717459030880743978913772
234,21903.6331152663959402009407566256097,21902.0,1.6331152663959402009407566256097
235,22091.2339745877426182354979260527060,22089.6,1.6339745877426182354979260527060
236,22279.6348302670902038473352382853172,22278.0,1.6348302670902038473352382853172
237,22468.8356823353469030948890539006707,22467.2,1.6356823353469030948890539006707
238,22658.8365308230315569680726714026277,22657.2,1.6365308230315569680726714026277
