Eigenstate,Energy,Kinetic Energy,Potential Energy
1,0.500000000117607887186536876405846157,0.0,0.500000000117607887186536876405846157
2,1.84623093841880033136019953381763189,1.2,0.64623093841880033136019953381763189
3,3.93633761196000268788648453153606555,3.2,0.73633761196000268788648453153606555
4,6.79966528251123768494169902440138741,6.0,0.79966528251123768494169902440138741
5,10.4480465834219264399289320176482766,9.6,0.8480465834219264399289320176482766
6,14.8870660094605117881039721052618324,14.0,0.8870660094605117881039721052618324
7,20.1197208420716653421216884506572447,19.2,0.9197208420716653421216884506572447
8,26.1477838676358107427162135845844150,25.2,0.9477838676358107427162135845844150
9,32.9723835851613051516519048675400451,32.0,0.9723835851613051516519048675400451
10,40.5942802487980927754829444399902034,39.6,0.9942802487980927754829444399902034
11,49.0140094286882062080761323562685213,48.0,1.0140094286882062080761323562685213
12,58.2319622201370571762535450795777836,57.2,1.0319622201370571762535450795777836
13,68.2484327532111149681039442652604015,67.2,1.0484327532111149681039442652604015
14,79.0636477255941178245813204236951594,78.0,1.0636477255941178245813204236951594
15,90.6777855184012879136213647736795332,89.6,1.0777855184012879136213647736795332
16,103.090989001049795370790861812551217,102.0,1.090989001049795370790861812551217
17,116.303374364720275085495329812358480,115.2,1.103374364720275085495329812358480
18,130.315037373363034609427960033305132,129.2,1.115037373363034609427960033305132
19,145.126057886802037667687817009661234,144.0,1.126057886802037667687817009661234
20,160.736503198368844812777812890306904,159.6,1.136503198368844812777812890306904
21,177.146430540984313675492324667810024,176.0,1.146430540984313675492324667810024
22,194.355888998317341382446294698944542,193.2,1.155888998317341382446294698944542
23,212.364920982721390939607860126603510,211.2,1.164920982721390939607860126603510
24,231.173563392634914721030014278201204,230.0,1.173563392634914721030014278201204
25,250.781848529377281899746359489813682,249.6,1.181848529377281899746359489813682
26,271.189804830956367023415988387960414,270.0,1.189804830956367023415988387960414
27,292.397457465031126514694648783389873,291.2,1.197457465031126514694648783389873
28,314.404828812270639052592677983520601,313.2,1.204828812270639052592677983520601
29,337.211938863556057959468929856486989,336.0,1.211938863556057959468929856486989
30,360.818805548822436141906300478857475,359.6,1.218805548822436141906300478857475
31,385.225445011191445628571052662998506,384.0,1.225445011191445628571052662998506
32,410.431871836968114159779491493332755,409.2,1.231871836968114159779491493332755
33,436.438099249765053476702846921329175,435.2,1.238099249765053476702846921329175
34,463.244139275267107690027613078400385,462.0,1.244139275267107690027613078400385
35,490.850002881810155040739473501933633,489.6,1.250002881810155040739473501933633
36,519.255700100914317486067717980930397,518.0,1.255700100914317486067717980930397
37,548.461240131107747994296341246017065,547.2,1.261240131107747994296341246017065
38,578.466631427746746688387772051476792,577.2,1.266631427746746688387772051476792
39,609.271881781040108328372333123065231,608.0,1.271881781040108328372333123065231
40,640.876998384089782838543744567576025,639.6,1.276998384089782838543744567576025
41,673.281987892443180311492958775497734,672.0,1.281987892443180311492958775497734
42,706.486856476397459319282159693781103,705.2,1.286856476397459319282159693781103
43,740.491609867089651016966225918258338,739.2,1.291609867089651016966225918258338
44,775.296253397238377508023204427243327,774.0,1.296253397238377508023204427243327
45,810.900792037265353372145402387783883,809.6,1.300792037265353372145402387783883
46,847.305230427411722973158385665092521,846.0,1.305230427411722973158385665092521
47,884.509572906370809552430169356774859,883.2,1.309572906370809552430169356774859
48,922.513823536881265748825596161020363,921.2,1.313823536881265748825596161020363
49,961.317986128659952642315486786000291,960.0,1.317986128659952642315486786000291
50,1000.92206425899975170465699666370693,999.6,1.32206425899975170465699666370693
51,1041.32606129131204707805642253889471,1040.0,1.32606129131204707805642253889471
52,1082.52998039185527038839868986594061,1081.2,1.32998039185527038839868986594061
53,1124.53382454485845018105906606767016,1123.2,1.33382454485845018105906606767016
54,1167.33759656622114693583763547599734,1166.0,1.33759656622114693583763547599734
55,1210.94129911594767912502909318113907,1209.6,1.34129911594767912502909318113907
56,1255.34493470945347120850194592117033,1254.0,1.34493470945347120850194592117033
57,1300.54850572786415549453071537829128,1299.2,1.34850572786415549453071537829128
58,1346.55201442741326260882473448649081,1345.2,1.35201442741326260882473448649081
59,1393.35546294803158136691302367262378,1392.0,1.35546294803158136691302367262378
60,1440.95885332121024433733639597930792,1439.6,1.35885332121024433733639597930792
61,1489.36218747721003115558698695399468,1488.0,1.36218747721003115558698695399468
62,1538.56546725168108064361734588511761,1537.2,1.36546725168108064361734588511761
63,1588.56869439174996090071595160454594,1587.2,1.36869439174996090071595160454594
64,1639.37187056162473405162049962184818,1638.0,1.37187056162473405162049962184818
65,1690.97499734776311749776465051830727,1689.6,1.37499734776311749776465051830727
66,1743.37807626364399617849661359568116,1742.0,1.37807626364399617849661359568116
67,1796.58110875417827805778023104746664,1795.2,1.38110875417827805778023104746664
68,1850.58409619979132889107862083732642,1849.2,1.38409619979132889107862083732642
69,1905.38703992020590965639220678913830,1904.0,1.38703992020590965639220678913830
70,1960.98994117795161176515673216062511,1959.6,1.38994117795161176515673216062511
71,2017.39280118162418646497584291490872,2016.0,1.39280118162418646497584291490872
72,2074.59562108891586660378043679255406,2073.2,1.39562108891586660378043679255406
73,2132.59840200943572591860405519992903,2131.2,1.39840200943572591860405519992903
74,2191.40114500733730216360894613014778,2190.0,1.40114500733730216360894613014778
75,2251.00385110376907929089474579972687,2249.6,1.40385110376907929089474579972687
76,2311.40652127916197434086508504454712,2310.0,1.40652127916197434086508504454712
77,2372.60915647536667230050975555324921,2371.2,1.40915647536667230050975555324921
78,2434.61175759765248638977910698843550,2433.2,1.41175759765248638977910698843550
79,2497.41432551657837441623505330503721,2496.0,1.41432551657837441623505330503721
80,2561.01686106974580371251807892967440,2559.6,1.41686106974580371251807892967440
81,2625.41936506344230782969365597950642,2624.0,1.41936506344230782969365597950642
82,2690.62183827418381670898720001374076,2689.2,1.42183827418381670898720001374076
83,2756.62428145016315332062754691435219,2755.2,1.42428145016315332062754691435219
84,2823.42669531261146546680239460348260,2822.0,1.42669531261146546680239460348260
85,2891.02908055707880216955614801662859,2889.6,1.42908055707880216955614801662859
86,2959.43143785463952819907075678977588,2958.0,1.43143785463952819907075678977588
87,3028.63376785302781282697115482967671,3027.2,1.43376785302781282697115482967671
88,3098.63607117770800551156079099748182,3097.2,1.43607117770800551156079099748182
89,3169.43834843288432771973179042611681,3168.0,1.43834843288432771973179042611681
90,3241.04060020245396687356515026941697,3239.6,1.44060020245396687356515026941697
91,3313.44282705090733695758641876653592,3312.0,1.44282705090733695758641876653592
92,3386.64502952417898202510257125088744,3385.2,1.44502952417898202510257125088744
93,3460.64720815045233658699151973856155,3459.2,1.44720815045233658699151973856155
94,3535.44936344092131393757732108549499,3534.0,1.44936344092131393757732108549499
95,3611.05149589051147231819574003031661,3609.6,1.45149589051147231819574003031661
96,3687.45360597856330699693861914657042,3686.0,1.45360597856330699693861914657042
97,3764.65569416948003200095694659731252,3763.2,1.45569416948003200095694659731252
98,3842.65776091334204236340706347106722,3841.2,1.45776091334204236340706347106722
99,3921.45980664649009427493726780259381,3920.0,1.45980664649009427493726780259381
100,4001.06183179207909418919510647360999,3999.6,1.46183179207909418919510647360999
101,4081.46383676060425862768276589729222,4080.0,1.46383676060425862768276589729222
102,4162.66582195040128085456655726162122,4161.2,1.46582195040128085456655726162122
103,4244.66778774812203267843438327743028,4243.2,1.46778774812203267843438327743028
104,4327.46973452918722237328611611186792,4326.0,1.46973452918722237328611611186792
105,4411.07166265821733663728361656112977,4409.6,1.47166265821733663728361656112977
106,4495.47357248944310374354572101768139,4494.0,1.47357248944310374354572101768139
107,4580.67546436709663695531771647071614,4579.2,1.47546436709663695531771647071614
108,4666.67733862578433803829141675736530,4665.2,1.47733862578433803829141675736530
109,4753.47919559084257210931828993593773,4752.0,1.47919559084257210931828993593773
110,4841.08103557867706264063359853911505,4839.6,1.48103557867706264063359853911505
111,4929.48285889708688957751173924551842,4928.0,1.48285889708688957751173924551842
112,5018.68466584557392409364012590146055,5017.2,1.48466584557392409364012590146055
113,5108.68645671563847797270534404989691,5107.2,1.48645671563847797270534404989691
114,5199.48823179106189684693000790073658,5198.0,1.48823179106189684693000790073658
115,5291.08999134817678607479659273900593,5289.6,1.48999134817678607479659273900593
116,5383.49173565612550970854698788094718,5382.0,1.49173565612550970854698788094718
117,5476.69346497710757128904059322065098,5475.2,1.49346497710757128904059322065098
118,5570.69517956661644417444900114339652,5569.2,1.49517956661644417444900114339652
119,5665.49687967366638539554931726219619,5664.0,1.49687967366638539554931726219619
120,5761.09856554100974118814469230788559,5759.6,1.49856554100974118814469230788559
121,5857.50023740534521408589645941282412,5856.0,1.50023740534521408589645941282412
122,5954.70189549751754254372056369542892,5953.2,1.50189549751754254372056369542892
123,6052.70354004270901186896994714779937,6051.2,1.50354004270901186896994714779937
124,6151.50517126062319755781615159761971,6150.0,1.50517126062319755781615159761971
125,6251.10678936566131256798195645521460,6249.6,1.50678936566131256798195645521460
126,6351.50839456709151486167921140890105,6350.0,1.50839456709151486167921140890105
127,6452.70998706921151097472119582334169,6451.2,1.50998706921151097472119582334169
128,6554.71156707150476878058954629865999,6553.2,1.51156707150476878058954629865999
129,6657.51313476879064054499844347468025,6656.0,1.51313476879064054499844347468025
130,6761.11469035136867898463242306806113,6759.6,1.51469035136867898463242306806113
131,6865.51623400515741363961739344910349,6864.0,1.51623400515741363961739344910349
132,6970.71776591182783989208427169762014,6969.2,1.51776591182783989208427169762014
133,7076.71928624893186118160090321060215,7075.2,1.51928624893186118160090321060215
134,7183.52079519002591369229183975894403,7182.0,1.52079519002591369229183975894403
135,7291.12229290478998467812238451549585,7289.6,1.52229290478998467812238451549585
136,7399.52377955914223190529415106415621,7398.0,1.52377955914223190529415106415621
137,7508.72525531534939838275808535349624,7507.2,1.52525531534939838275808535349624
138,7618.72672033213320293985962740605252,7617.2,1.52672033213320293985962740605252
139,7729.52817476477288510422716360631155,7728.0,1.52817476477288510422716360631155
140,7841.12961876520406728704781197193741,7839.6,1.52961876520406728704781197193741
141,7953.53105248211409272538435312642152,7952.0,1.53105248211409272538435312642152
142,8066.73247606103398955792325952276846,8065.2,1.53247606103398955792325952276846
143,8180.73388964442720276037378304634424,8179.2,1.53388964442720276037378304634424
144,8295.53529337177522848710307346789490,8294.0,1.53529337177522848710307346789490
145,8411.13668737966028117783401860565179,8409.6,1.53668737966028117783401860565179
146,8527.53807180184511591948323316005993,8526.0,1.53807180184511591948323316005993
147,8644.73944676935012035025135407900970,8643.2,1.53944676935012035025135407900970
148,8762.74081241052779143504538221797646,8761.2,1.54081241052779143504538221797646
149,8881.54216885113469891324107386435348,8880.0,1.54216885113469891324107386435348
150,9001.14351621440103905971530539408347,8999.6,1.54351621440103905971530539408347
151,9121.54485462109787467345872470209710,9120.0,1.54485462109787467345872470209710
152,9242.74618418960215159299239490002834,9241.2,1.54618418960215159299239490002834
153,9364.74750503595958068833964167288782,9363.2,1.54750503595958068833964167288782
154,9487.54881727394546922885166798951605,9486.0,1.54881727394546922885166798951605
155,9611.15012101512357986293806576224537,9609.6,1.55012101512357986293806576224537
156,9735.55141636890309507612533747693166,9734.0,1.55141636890309507612533747693166
157,9860.75270344259375817410537698465429,9859.2,1.55270344259375817410537698465429
158,9986.75398234145926260893827444977236,9985.2,1.55398234145926260893827444977236
159,10113.5552531687689533213039935398343,10112.0,1.5552531687689533213039935398343
160,10241.1565160258479064364063424080859,10239.6,1.5565160258479064364063424080859
161,10369.5577710121254458097125122907533,10368.0,1.5577710121254458097125122907533
162,10498.7590182251821558836957593072324,10497.2,1.5590182251821558836957593072324
163,10628.7602577607954457089464796772471,10627.2,1.5602577607954457089464796772471
164,10759.5614897129837187663156003157847,10758.0,1.5614897129837187663156003157847
165,10891.1627141740491971903781752786239,10889.6,1.5627141740491971903781752786239
166,11023.5639312346194509098770702190988,11022.0,1.5639312346194509098770702190988
167,11156.7651409836876789375393597383339,11155.2,1.5651409836876789375393597383339
168,11290.7663435086517854982549255757228,11289.2,1.5663435086517854982549255757228
169,11425.5675388953522960577836553123474,11424.0,1.5675388953522960577836553123474
170,11561.1687272281091529951864373465805,11559.6,1.5687272281091529951864373465805
171,11697.5699085897574311135204791245526,11696.0,1.5699085897574311135204791245526
172,11834.7710830616820108555393505524599,11833.2,1.5710830616820108555393505524599
173,11972.7722507238512446268124164810440,11971.2,1.5722507238512446268124164810440
174,12111.5734116548496520698642154243943,12110.0,1.5734116548496520698642154243943
175,12251.1745659319096782743542208900484,12249.6,1.5745659319096782743542208900484
176,12391.5757136309425446297398104535579,12390.0,1.5757136309425446297398104535579
177,12532.7768548265682255810521144637768,12531.2,1.5768548265682255810521144637768
178,12674.7779895921445804422742568640602,12673.2,1.5779895921445804422742568640602
179,12817.5791179997956667123648215768445,12816.0,1.5791179997956667123648215768445
180,12961.1802401204392658404229604111409,12959.6,1.5802401204392658404229604111409
181,13105.5813560238136440886816377992817,13104.0,1.5813560238136440886816377992817
182,13250.7824657785035761888169545436153,13249.2,1.5824657785035761888169545436153
183,13396.7835694519656548409524301352538,13395.2,1.5835694519656548409524301352538
184,13543.5846671105529102970008061916992,13542.0,1.5846671105529102970008061916992
185,13691.1857588195387618365771344995037,13689.6,1.5857588195387618365771344995037
186,13839.5868446431403221042116377532273,13838.0,1.5868446431403221042116377532273
187,13988.7879246445410781084763778730006,13987.2,1.5879246445410781084763778730006
188,14138.7889988859129643194545039442725,14137.2,1.5889988859129643194545039442725
189,14289.5900674284378515957594009897821,14288.0,1.5900674284378515957594009897821
190,14441.1911303323284675922988283501492,14439.6,1.5911303323284675922988283501492
191,14593.5921876568487678714571208029534,14592.0,1.5921876568487678714571208029534
192,14746.7932394603337741000199066998467,14745.2,1.5932394603337741000199066998467
193,14900.7942858002088976358146531715059,14899.2,1.5942858002088976358146531715059
194,15055.5953267330087618449749494432411,15054.0,1.5953267330087618449749494432411
195,15211.1963623143955410823182600171453,15209.6,1.5963623143955410823182600171453
196,15367.5973925991768300268662807092747,15366.0,1.5973925991768300268662807092747
197,15524.7984176413230577479636521150654,15523.2,1.5984176413230577479636521150654
198,15682.7994374939844606641104289397932,15681.2,1.5994374939844606641104289397932
199,15841.6004522095076272285017737174378,15840.0,1.6004522095076272285017737174378
200,16001.2014618394516282816150786199602,15999.6,1.6014618394516282816150786199602
201,16161.6024664346037440474083390371113,16160.0,1.6024664346037440474083390371113
202,16322.8034660449948011494285162272113,16321.2,1.6034660449948011494285162272113
203,16484.8044607199141303017004261505264,16483.2,1.6044607199141303017004261505264
204,16647.6054505079241562894534568859504,16646.0,1.6054505079241562894534568859504
205,16811.2064354568746302051937111718665,16809.6,1.6064354568746302051937111718665
206,16975.6074156139165169590202503186830,16974.0,1.6074156139165169590202503186830
207,17140.8083910255155439340146522608137,17139.2,1.6083910255155439340146522608137
208,17306.8093617374654250083163031932977,17305.2,1.6093617374654250083163031932977
209,17473.6103277949007656869233553416997,17472.0,1.6103277949007656869233553416997
210,17641.2112892423096608390330165827000,17639.6,1.6112892423096608390330165827000
211,17809.6122461235459924000967312522039,17808.0,1.6122461235459924000967312522039
212,17978.8131984818414372659364597966590,17977.2,1.6131984818414372659364597966590
213,18148.8141463598171897570370328608480,18147.2,1.6141463598171897570370328608480
214,18319.6150897994954136289284779717368,18318.0,1.6150897994954136289284779717368
215,18491.2160288423104228351200085307596,18489.6,1.6160288423104228351200085307596
216,18663.6169635291196049972752339996348,18662.0,1.6169635291196049972752339996348
217,18836.8178939002140915419080102437764,18835.2,1.6178939002140915419080102437764
218,19010.8188199953291834762906980110648,19009.2,1.6188199953291834762906980110648
219,19185.6197418536545360767578911327339,19184.0,1.6197418536545360767578911327339
220,19361.2206595138441149977822057694557,19359.6,1.6206595138441149977822057694557
221,19537.6215730140259217043684244529693,19536.0,1.6215730140259217043684244529693
222,19714.8224823918115054253913936752766,19713.2,1.6224823918115054253913936752766
223,19892.8233876843052551889734104773405,19891.2,1.6233876843052551889734104773405
224,20071.6242889281134869994690373481898,20070.0,1.6242889281134869994690373481898
225,20251.2251861593533287128750069427359,20249.6,1.6251861593533287128750069427359
226,20431.6260794136614061488856384985426,20430.0,1.6260794136614061488856384985426
227,20612.8269687262023390827251852228022,20611.2,1.6269687262023390827251852228022
228,20794.8278541316770489272478000765690,20793.2,1.6278541316770489272478000765690
229,20977.6287356643308852577443213075669,20976.0,1.6287356643308852577443213075669
230,21161.2296133579615758659932171323830,21159.6,1.6296133579615758659932171323830
231,21345.6304872459270021331270668924308,21344.0,1.6304872459270021331270668924308
232,21530.8313573611528101305399818466465,21529.2,1.6313573611528101305399818466465
233,21716.8322237361398524346515786860705,21715.2,1.6322237361398524346515786860705
234,21903.6330864029714768019114669463766,21902.0,1.6330864029714768019114669463766
235,22091.2339453933206548754672355810718,22089.6,1.6339453933206548754672355810718
236,22279.6348007384569606225940196163092,22278.0,1.6348007384569606225940196163092
237,22468.8356524692534021233490943712766,22467.2,1.6356524692534021233490943712766
238,22658.8365006161931084418050261442804,22657.2,1.6365006161931084418050261442804
