Eigenstate,Energy,Kinetic Energy,Potential Energy
1,0.500000000157254710641626168912142671,0.0,0.500000000157254710641626168912142671
2,1.84623093867759676521068856150329247,1.2,0.64623093867759676521068856150329247
3,3.93633761272020833331448399680185673,3.2,0.73633761272020833331448399680185673
4,6.79966528409469349428978988233103756,6.0,0.79966528409469349428978988233103756
5,10.4480465861648715421664847126080913,9.6,0.8480465861648715421664847126080913
6,14.8870660137051178362902994632490565,14.0,0.8870660137051178362902994632490565
7,20.1197208481629247330434526036080630,19.2,0.9197208481629247330434526036080630
8,26.1477838759202457325897490507373062,25.2,0.9477838759202457325897490507373062
9,32.9723835959863738960479476641754934,32.0,0.9723835959863738960479476641754934
10,40.5942802625118936788355167385741850,39.6,0.9942802625118936788355167385741850
11,49.0140094456393227130910283380530651,48.0,1.0140094456393227130910283380530651
12,58.2319622406744741287645343376174438,57.2,1.0319622406744741287645343376174438
13,68.2484327776841739573834746160887631,67.2,1.0484327776841739573834746160887631
14,79.0636477543524949637322908441545404,78.0,1.0636477543524949637322908441545404
15,90.6777855517949851674315248706863081,89.6,1.0777855517949851674315248706863081
16,103.090989039429140403361902319334530,102.0,1.090989039429140403361902319334530
17,116.303374408435926659934353185250991,115.2,1.103374408435926659934353185250991
18,130.315037422765991721067487461369937,129.2,1.115037422765991721067487461369937
19,145.126057942243651259451872008359355,144.0,1.126057942243651259451872008359355
20,160.736503260200831322456925886676668,159.6,1.136503260200831322456925886676668
21,177.146430609558769913510224011131907,176.0,1.146430609558769913510224011131907
22,194.355889073986760397377064201434796,193.2,1.155889073986760397377064201434796
23,212.364921065838678632439679534707672,211.2,1.164921065838678632439679534707672
24,231.173563483553407038528667016294206,230.0,1.173563483553407038528667016294206
25,250.781848628450762484593287148939881,249.6,1.181848628450762484593287148939881
26,271.189804938539085231684112742171605,270.0,1.189804938539085231684112742171605
27,292.397457581477815734471244333501857,291.2,1.197457581477815734471244333501857
28,314.404828937936535274245188625863802,313.2,1.204828937936535274245188625863802
29,337.211938998796918560199336417687374,336.0,1.211938998796918560199336417687374
30,360.818805693994558856203000561072350,359.6,1.218805693994558856203000561072350
31,385.225445166651687682860975564441479,384.0,1.225445166651687682860975564441479
32,410.431872003073911554638920829693679,409.2,1.231872003073911554638920829693679
33,436.438099426874440403844718318949903,435.2,1.238099426874440403844718318949903
34,463.244139463738736074258364186721820,462.0,1.244139463738736074258364186721820
35,490.850003082003314199393889957795853,489.6,1.250003082003314199393889957795853
36,519.255700313188953900247929958572536,518.0,1.255700313188953900247929958572536
37,548.461240355824485187680281211385510,547.2,1.261240355824485187680281211385510
38,578.466631665266905210520848117655832,577.2,1.266631665266905210520848117655832
39,609.271882031725725840279770424811296,608.0,1.271882031725725840279770424811296
40,640.876998648303634299249221231892357,639.6,1.276998648303634299249221231892357
41,673.281988170548798264639952198679239,672.0,1.281988170548798264639952198679239
42,706.486856768759154279556160692354334,705.2,1.286856768759154279556160692354334
43,740.491610174072531956431308646530573,739.2,1.291610174072531956431308646530573
44,775.296253719208372442832405351451806,774.0,1.296253719208372442832405351451806
45,810.900792374589230050374655095509708,809.6,1.300792374589230050374655095509708
46,847.305230780457109664758988966290006,846.0,1.305230780457109664758988966290006
47,884.509573275506215942503307634950088,883.2,1.309573275506215942503307634950088
48,922.513823922476103935601123720024479,921.2,1.313823922476103935601123720024479
49,961.317986531084558241371344735533975,960.0,1.317986531084558241371344735533975
50,1000.92206467862540506104955340071394,999.6,1.32206467862540506104955340071394
51,1041.32606172851099458814943672528007,1040.0,1.32606172851099458814943672528007
52,1082.52998084700074593328203624215829,1081.2,1.32998084700074593328203624215829
53,1124.53382501832469667354042415921146,1123.2,1.33382501832469667354042415921146
54,1167.33759705838343798307286068901701,1166.0,1.33759705838343798307286068901701
55,1210.94129962718234080893150847545570,1209.6,1.34129962718234080893150847545570
56,1255.34493524013790398613869353094825,1254.0,1.34493524013790398613869353094825
57,1300.54850627837685622077654670490859,1299.2,1.34850627837685622077654670490859
58,1346.55201499813384668360139512133695,1345.2,1.35201499813384668360139512133695
59,1393.35546353934080500939600280303411,1392.0,1.35546353934080500939600280303411
60,1440.95885393349002698956139923921303,1439.6,1.35885393349002698956139923921303
61,1489.36218811084347801793623916500963,1488.0,1.36218811084347801793623916500963
62,1538.56546790705250534471138369811030,1537.2,1.36546790705250534471138369811030
63,1588.56869506924490830428022187521840,1587.2,1.36869506924490830428022187521840
64,1639.37187126163000320293810510447616,1638.0,1.37187126163000320293810510447616
65,1690.97499807066678471236762788330674,1689.6,1.37499807066678471236762788330674
66,1743.37807700983543827578788246931191,1742.0,1.37807700983543827578788246931191
67,1796.58110952404819574231742109832582,1795.2,1.38110952404819574231742109832582
68,1850.58409699373177028428944118053584,1849.2,1.38409699373177028428944118053584
69,1905.38704073861029398152918821300433,1904.0,1.38704073861029398152918821300433
70,1960.98994202121475318833657219053467,1959.6,1.38994202121475318833657219053467
71,2017.39280205014231809518637183728442,2016.0,1.39280205014231809518637183728442
72,2074.59562198308666465477540422943134,2073.2,1.39562198308666465477540422943134
73,2132.59840292965833403564355294705929,2131.2,1.39840292965833403564355294705929
74,2191.40114595401235591804060151354264,2190.0,1.40114595401235591804060151354264
75,2251.00385207729873084560878272492227,2249.6,1.40385207729873084560878272492227
76,2311.40652227994991728969386351566176,2310.0,1.40652227994991728969386351566176
77,2372.60915750381816668468090213171855,2371.2,1.40915750381816668468090213171855
78,2434.61175865417438389456982261214120,2433.2,1.41175865417438389456982261214120
79,2497.41432660157914375101417887272347,2496.0,1.41432660157914375101417887272347
80,2561.01686218363555617740160753387042,2559.6,1.41686218363555617740160753387042
81,2625.41936620663282307207977554567470,2624.0,1.41936620663282307207977554567470
82,2690.62183944708856867327670982228034,2689.2,1.42183944708856867327670982228034
83,2756.62428265319733639447688396782425,2755.2,1.42428265319733639447688396782425
84,2823.42669654619202082729788962391359,2822.0,1.42669654619202082729788962391359
85,2891.02908182162444433274022773055708,2889.6,1.42908182162444433274022773055708
86,2959.43143915057077177629357797729486,2958.0,1.43143915057077177629357797729486
87,3028.63376918076699949158487099455819,3027.2,1.43376918076699949158487099455819
88,3098.63607253767933117951746717829080,3097.2,1.43607253767933117951746717829080
89,3169.43834982551386994769114968652939,3168.0,1.43834982551386994769114968652939
90,3241.04060162816971247816377422762359,3239.6,1.44060162816971247816377422762359
91,3313.44282851013920985956665760633749,3312.0,1.44282851013920985956665760633749
92,3386.64503101735887132204643767343239,3385.2,1.44503101735887132204643767343239
93,3460.64720967801412485845305289534913,3459.2,1.44720967801412485845305289534913
94,3535.44936500330090578645566117012798,3534.0,1.44936500330090578645566117012798
95,3611.05149748814682315224099826376074,3609.6,1.45149748814682315224099826376074
96,3687.45360761189445205433310099608079,3686.0,1.45360761189445205433310099608079
97,3764.65569583894911562396615737303263,3763.2,1.45569583894911562396615737303263
98,3842.65776261939334752414689122281797,3841.2,1.45776261939334752414689122281797
99,3921.45980838957007235735771374917888,3920.0,1.45980838957007235735771374917888
100,4001.06183357263639503143481747771895,3999.6,1.46183357263639503143481747771895
101,4081.46383857908976082900448823217660,4080.0,1.46383857908976082900448823217660
102,4162.66582380726812235113948205286299,4161.2,1.46582380726812235113948205286299
103,4244.66778964382564159228729992554691,4243.2,1.46778964382564159228729992554691
104,4327.46973646418534813881351594037290,4326.0,1.46973646418534813881351594037290
105,4411.07166463297008140974638155182983,4409.6,1.47166463297008140974638155182983
106,4495.47357450441295409406886243285879,4494.0,1.47357450441295409406886243285879
107,4580.67546642274849585694946881732427,4579.2,1.47546642274849585694946881732427
108,4666.67734072258555714775059877413671,4665.2,1.47734072258555714775059877413671
109,4753.47919772926298434912130052612908,4752.0,1.47919772926298434912130052612908
110,4841.08103775918901508635761803747497,4839.6,1.48103775918901508635761803747497
111,4929.48286112016527665501690592460941,4928.0,1.48286112016527665501690592460941
112,5018.68466811169622109114173828438208,5017.2,1.48466811169622109114173828438208
113,5108.68645902528477487265575664932253,5107.2,1.48645902528477487265575664932253
114,5199.48823414471493248274020005498664,5198.0,1.48823414471493248274020005498664
115,5291.08999374632198261749924696212490,5289.6,1.48999374632198261749924696212490
116,5383.49173809925100748857567306843493,5382.0,1.49173809925100748857567306843493
117,5476.69346746570426395837391942086735,5475.2,1.49346746570426395837391942086735
118,5570.69518210117801421444453087933591,5569.2,1.49518210117801421444453087933591
119,5665.49688225468933997586892901370096,5664.0,1.49688225468933997586892901370096
120,5761.09856816899344838225180123156267,5759.6,1.49856816899344838225180123156267
121,5857.50024008079193944868554382848659,5856.0,1.50024008079193944868554382848659
122,5954.70189822093248605692090665280339,5953.2,1.50189822093248605692090665280339
123,6052.70354281460034526004883988940613,6051.2,1.50354281460034526004883988940613
124,6151.50517408150210199819090518154452,6150.0,1.50517408150210199819090518154452
125,6251.10679223604201675643710542250132,6249.6,1.50679223604201675643710542250132
126,6351.50839748749133349897268360640478,6350.0,1.50839748749133349897268360640478
127,6452.70999004015088363545269270584414,6451.2,1.50999004015088363545269270584414
128,6554.71157009350729918849585785693237,6553.2,1.51157009350729918849585785693237
129,6657.51313784238313625793338588670968,6656.0,1.51313784238313625793338588670968
130,6761.11469347708119149558358362298469,6759.6,1.51469347708119149558358362298469
131,6865.51623718352327890020850017915203,6864.0,1.51623718352327890020850017915203
132,6970.71776914338371926511062939891005,6969.2,1.51776914338371926511062939891005
133,7076.71928953421778282924489418971282,7075.2,1.51928953421778282924489418971282
134,7183.52079852958531440676845370831239,7182.0,1.52079852958531440676845370831239
135,7291.12229629916975216160802299581802,7289.6,1.52229629916975216160802299581802
136,7399.52378300889274750609846957492497,7398.0,1.52378300889274750609846957492497
137,7508.72525882102458029480659691677719,7507.2,1.52525882102458029480659691677719
138,7618.72672389429054987266491067285939,7617.2,1.52672389429054987266491067285939
139,7729.52817838397352043063881776262566,7728.0,1.52817838397352043063881776262566
140,7841.12962244201278367618559946992110,7839.6,1.52962244201278367618559946992110
141,7953.53105621709939726827560538117151,7952.0,1.53105621709939726827560538117151
142,8066.73247985476814939348456012472744,8065.2,1.53247985476814939348456012472744
143,8180.73389349748629120949773908118982,8179.2,1.53389349748629120949773908118982
144,8295.53529728473917170273513873474252,8294.0,1.53529728473917170273513873474252
145,8411.13669135311290531904883066447127,8409.6,1.53669135311290531904883066447127
146,8527.53807583637419485769989682436110,8526.0,1.53807583637419485769989682436110
147,8644.73945086554742391585641586580210,8643.2,1.53945086554742391585641586580210
148,8762.74081656898913421282608611819498,8761.2,1.54081656898913421282608611819498
149,8881.54217307245998959516756413395871,8880.0,1.54217307245998959516756413395871
150,9001.14352049919433036374845098179624,8999.6,1.54352049919433036374845098179624
151,9121.54485896996741383720163067968861,9120.0,1.54485896996741383720163067968861
152,9242.74618860316043145114754964052098,9241.2,1.54618860316043145114754964052098
153,9364.74750951482339134308050888595983,9363.2,1.54750951482339134308050888595983
154,9487.54882181873595032236701259930929,9486.0,1.54882181873595032236701259930929
155,9611.15012562646627346155991669029077,9609.6,1.55012562646627346155991669029077
156,9735.55142104742799917560670944307328,9734.0,1.55142104742799917560670944307328
157,9860.75270818893538083577298772257252,9859.2,1.55270818893538083577298772257252
158,9986.75398715625667673660681521897956,9985.2,1.55398715625667673660681521897956
159,10113.5552580526658520890033201309542,10112.0,1.5552580526658520890033201309542
160,10241.1565209794926593771413500066480,10239.6,1.5565209794926593771413500066480
161,10369.5577760361711555756468390111567,10368.0,1.5577760361711555756468390111567
162,10498.7590233202867156883249693932577,10497.2,1.5590233202867156883249693932577
163,10628.7602629276215974620050244697926,10627.2,1.5602629276215974620050244697926
164,10759.5614949521991119123440361241118,10758.0,1.5614949521991119123440361241118
165,10891.1627194863264482620619832426006,10889.6,1.5627194863264482620619832426006
166,11023.5639366206362038074576677399160,11022.0,1.5639366206362038074576677399160
167,11156.7651464441266659457909981239478,11155.2,1.5651464441266659457909981239478
168,11290.7663490442008890527185535156574,11289.2,1.5663490442008890527185535156574
169,11425.5675445067046112721482602534957,11424.0,1.5675445067046112721482602534957
170,11561.1687329159630509619146186955999,11559.6,1.5687329159630509619146186955999
171,11697.5699143548166229900229246246048,11696.0,1.5699143548166229900229246246048
172,11834.7710889046556127484164078225030,11833.2,1.5710889046556127484164078225030
173,11972.7722566454538432868985017986308,11971.2,1.5722566454538432868985017986308
174,12111.5734176558013714110324178800939,12110.0,1.5734176558013714110324178800939
175,12251.1745720129362467292646135242829,12249.6,1.5745720129362467292646135242829
176,12391.5757197927753633559469374887930,12390.0,1.5757197927753633559469374887930
177,12532.7768610699444375311214505628246,12531.2,1.5768610699444375311214505628246
178,12674.7779959178071403117986705924826,12673.2,1.5779959178071403117986705924826
179,12817.5791244084934117800173320427901,12816.0,1.5791244084934117800173320427901
180,12961.1802466129269877144323648024209,12959.6,1.5802466129269877144323648024209
181,13105.5813626008521613743735456432036,13104.0,1.5813626008521613743735456432036
182,13250.7824724408598080921225540934185,13249.2,1.5824724408598080921225540934185
183,13396.7835762004126957230552431210812,13395.2,1.5835762004126957230552431210812
184,13543.5846739458701051955613741862691,13542.0,1.5846739458701051955613741862691
185,13691.1857657425117829692545669507326,13689.6,1.5857657425117829692545669507326
186,13839.5868516545612463704829788433157,13838.0,1.5868516545612463704829788433157
187,13988.7879317452084656060443314156968,13987.2,1.5879317452084656060443314156968
188,14138.7890060766319378918286018350218,14137.2,1.5890060766319378918286018350218
189,14289.5900747100201774278972150786242,14288.0,1.5900747100201774278972150786242
190,14441.1911377055926368715010904222368,14439.6,1.5911377055926368715010904222368
191,14593.5921951226200795310245046344541,14592.0,1.5921951226200795310245046344541
192,14746.7932470194444186635000804266421,14745.2,1.5932470194444186635000804266421
193,14900.7942934534980421799946748204477,14899.2,1.5942934534980421799946748204477
194,15055.5953344813226361001094549055862,15054.0,1.5953344813226361001094549055862
195,15211.1963701585875246884239165774589,15209.6,1.5963701585875246884239165774589
196,15367.5974005401075409652622278957991,15366.0,1.5974005401075409652622278957991
197,15524.7984256798604419675937699040584,15523.2,1.5984256798604419675937699040584
198,15682.7994456310038829225457845357228,15681.2,1.5994456310038829225457845357228
199,15841.6004604458919631678935854990749,15840.0,1.6004604458919631678935854990749
200,16001.2014701760913577602484799187343,15999.6,1.6014701760913577602484799187343
201,16161.6024748723970457478921534795557,16160.0,1.6024748723970457478921534795557
202,16322.8034745848476484849549344051399,16321.2,1.6034745848476484849549344051399
203,16484.8044693627403886422105806806616,16483.2,1.6044693627403886422105806806616
204,16647.6054592546456815299589267057607,16646.0,1.6054592546456815299589267057607
205,16811.2064443084213686989251276249052,16809.6,1.6064443084213686989251276249052
206,16975.6074245712266068385059144919498,16974.0,1.6074245712266068385059144919498
207,17140.8084000895354178436322691877940,17139.2,1.6084000895354178436322691877940
208,17306.8093709091499142723108362242248,17305.2,1.6093709091499142723108362242248
209,17473.6103370752132059373443679886019,17472.0,1.6103370752132059373443679886019
210,17641.2112986322219991285142283972827,17639.6,1.6112986322219991285142283972827
211,17809.6122556240388958248816917358334,17808.0,1.6122556240388958248816917358334
212,17978.8132080939044031250439827784380,17977.2,1.6132080939044031250439827784380
213,18148.8141560844486572739632637022686,18147.2,1.6141560844486572739632637022686
214,18319.6150996377028772627941198218053,18318.0,1.6150996377028772627941198218053
215,18491.2160387951105472086958882951534,18489.6,1.6160387951105472086958882951534
216,18663.6169735975383414698557184854847,18662.0,1.6169735975383414698557184854847
217,18836.8179040852867964555491965802036,18835.2,1.6179040852867964555491965802036
218,19010.8188302981007381044903422840211,19009.2,1.6188302981007381044903422840211
219,19185.6197522751794683052270451334388,19184.0,1.6197522751794683052270451334388
220,19361.2206700551867227675443714582240,19359.6,1.6206700551867227675443714582240
221,19537.6215836762603982480199375447975,19536.0,1.6215836762603982480199375447975
222,19714.8224931760220663279702773493161,19713.2,1.6224931760220663279702773493161
223,19892.8233985915862673055081422923785,19891.2,1.6233985915862673055081422923785
224,20071.6242999595695992619213077721758,20070.0,1.6242999595695992619213077721758
225,20251.2251973160996048598445640745362,20249.6,1.6251973160996048598445640745362
226,20431.6260906968234594121145751476984,20430.0,1.6260906968234594121145751476984
227,20612.8269801369164688651248424015424,20611.2,1.6269801369164688651248424015424
228,20794.8278656710903795078732375424427,20793.2,1.6278656710903795078732375424427
229,20977.6287473336015065598565734855384,20976.0,1.6287473336015065598565734855384
230,21161.2296251582586863250850008534567,21159.6,1.6296251582586863250850008534567
231,21345.6304991784310537025366823433283,21344.0,1.6304991784310537025366823433283
232,21530.8313694270556554630474838643362,21529.2,1.6313694270556554630474838643362
233,21716.8322359366448942792362643155811,21715.2,1.6322359366448942792362643155811
234,21903.6330987392938196556543982401627,21902.0,1.6330987392938196556543982401627
235,22091.2339578666872589314047745067317,22089.6,1.6339578666872589314047745067317
236,22279.6348133501067980551711956216033,22278.0,1.6348133501067980551711956216033
237,22468.8356652204376157539841038949119,22467.2,1.6356652204376157539841038949119
238,22658.8365135081751728279571858547812,22657.2,1.6365135081751728279571858547812
