Eigenstate,Energy,Kinetic Energy,Potential Energy
1,0.500000000017288001333831462882046152,0.0,0.500000000017288001333831462882046152
2,1.84623093776396163662500988840174937,1.2,0.64623093776396163662500988840174937
3,3.93633761003645427157534339124983762,3.2,0.73633761003645427157534339124983762
4,6.79966527850467004642895469765507292,6.0,0.79966527850467004642895469765507292
5,10.4480465764816521008495546946914006,9.6,0.8480465764816521008495546946914006
6,14.8870659987209049571122651636367573,14.0,0.8870659987209049571122651636367573
7,20.1197208266600544940506908367411836,19.2,0.9197208266600544940506908367411836
8,26.1477838466757637397506633973983914,25.2,0.9477838466757637397506633973983914
9,32.9723835577741509367706961359615133,32.0,0.9723835577741509367706961359615133
10,40.5942802141036882691592035571926235,39.6,0.9942802141036882691592035571926235
11,49.0140093858053478734758241371526612,48.0,1.0140093858053478734758241371526612
12,58.2319621681837115052606870456571780,57.2,1.0319621681837115052606870456571780
13,68.2484326913045503794816871196071741,67.2,1.0484326913045503794816871196071741
14,79.0636476528509798168878028501796633,78.0,1.0636476528509798168878028501796633
15,90.6777854339376399769057602800378556,89.6,1.0777854339376399769057602800378556
16,103.090988903981138381628095825506516,102.0,1.090988903981138381628095825506516
17,116.303374254161552697566013285156064,115.2,1.103374254161552697566013285156064
18,130.315037248428629244102158692709511,129.2,1.115037248428629244102158692709511
19,145.126057746605760021000931323284067,144.0,1.126057746605760021000931323284067
20,160.736503042023918780192421013116176,159.6,1.136503042023918780192421013116176
21,177.146430367603357966273686869119627,176.0,1.146430367603357966273686869119627
22,194.355888807012348694003367342195085,193.2,1.155888807012348694003367342195085
23,212.364920772603705299686149874030718,211.2,1.164920772603705299686149874030718
24,231.173563162815207430168912900153275,230.0,1.173563162815207430168912900153275
25,250.781848278965526386695712073282443,249.6,1.181848278965526386695712073282443
26,271.189804559061812843008795244150539,270.0,1.189804559061812843008795244150539
27,292.397457170762272658872965462430469,291.2,1.197457170762272658872965462430469
28,314.404828494735206703081384711145540,313.2,1.204828494735206703081384711145540
29,337.211938521860962779869578208738782,336.0,1.211938521860962779869578208738782
30,360.818805182073760184323545090878194,359.6,1.218805182073760184323545090878194
31,385.225444618494408912967633496338093,384.0,1.225444618494408912967633496338093
32,410.431871417427045971484265253166975,409.2,1.231871417427045971484265253166975
33,436.438098802483363417752848577397199,435.2,1.238098802483363417752848577397199
34,463.244138799347256512518904111687326,462.0,1.244138799347256512518904111687326
35,490.850002376353625284525802867529336,489.6,1.250002376353625284525802867529336
36,519.255699565021583938570085332707379,518.0,1.255699565021583938570085332707379
37,548.461239563878247986569195467678398,547.2,1.261239563878247986569195467678398
38,578.466630828278850238706449937240756,577.2,1.266630828278850238706449937240756
39,609.271881148431088142294841321079871,608.0,1.271881148431088142294841321079871
40,640.876997717435784172532713862773712,639.6,1.276997717435784172532713862773712
41,673.281987190839190705665644207914616,672.0,1.281987190839190705665644207914616
42,706.486855738937278203614249661377249,705.2,1.286855738937278203614249661377249
43,740.491609092865859194253047128263754,739.2,1.291609092865859194253047128263754
44,775.296252585342306516055880435505824,774.0,1.296252585342306516055880435505824
45,810.900791186787054726855141123033174,809.6,1.300791186787054726855141123033174
46,847.305229537439937293892608845880208,846.0,1.305229537439937293892608845880208
47,884.509571975992935570028483539092087,883.2,1.309571975992935570028483539092087
48,922.513822565183329196744050362680944,921.2,1.313822565183329196744050362680944
49,961.317985114726575030691210589222786,960.0,1.317985114726575030691210589222786
50,1000.92206320191411897690087044531341,999.6,1.32206320191411897690087044531341
51,1041.32606019015587814929978359198102,1040.0,1.32606019015587814929978359198102
52,1082.52997924570878556489456689804577,1081.2,1.32997924570878556489456689804577
53,1124.53382335280033945944277346507229,1123.2,1.33382335280033945944277346507229
54,1167.33759532732853818098084354459290,1166.0,1.33759532732853818098084354459290
55,1210.94129782929610612507207409204794,1209.6,1.34129782929610612507207409204794
56,1255.34493337411684160551696710660610,1254.0,1.34493337411684160551696710660610
57,1300.54850434291471858915307070647435,1299.2,1.34850434291471858915307070647435
58,1346.55201299192157703708367069047508,1345.2,1.35201299192157703708367069047508
59,1393.35546146106648264740233121940471,1392.0,1.35546146106648264740233121940471
60,1440.95885178183881228678036796476004,1439.6,1.35885178183881228678036796476004
61,1489.36218588449755717078181857322738,1488.0,1.36218588449755717078181857322738
62,1538.56546560469103484765876527312735,1537.2,1.36546560469103484765876527312735
63,1588.56869268954395915136083399117534,1587.2,1.36869268954395915136083399117534
64,1639.37186880326250480957193718321985,1638.0,1.37186880326250480957193718321985
65,1690.97499553230246855261562132825148,1689.6,1.37499553230246855261562132825148
66,1743.37807439014078123001732294610132,1742.0,1.37807439014078123001732294610132
67,1796.58110682168636315018686204556477,1795.2,1.38110682168636315018686204556477
68,1850.58409420736255869787670920204390,1849.2,1.38409420736255869787670920204390
69,1905.38703786689007361334538501752363,1904.0,1.38703786689007361334538501752363
70,1960.98993906279641004889196586373040,1959.6,1.38993906279641004889196586373040
71,2017.39279900367519581469690232406118,2016.0,1.39279900367519581469690232406118
72,2074.59561884721650598352507384115020,2073.2,1.39561884721650598352507384115020
73,2132.59839970302722201744376865093199,2131.2,1.39839970302722201744376865093199
74,2191.40114263525865473115588335120263,2190.0,1.40114263525865473115588335120263
75,2251.00384866505702630544586115325951,2249.6,1.40384866505702630544586115325951
76,2311.40651877285095700748087572927572,2310.0,1.40651877285095700748087572927572
77,2372.60915390048879987629186271564495,2371.2,1.40915390048879987629186271564495
78,2434.61175495323750083357895315739531,2433.2,1.41175495323750083357895315739531
79,2497.41432280165361485999376251958679,2496.0,1.41432280165361485999376251958679
80,2561.01685828333617075140669236307112,2559.6,1.41685828333617075140669236307112
81,2625.41936220457022762819083541860097,2624.0,1.41936220457022762819083541860097
82,2690.62183534186920492000070436709530,2689.2,1.42183534186920492000070436709530
83,2756.62427844342337881473437320324548,2755.2,1.42427844342337881473437320324548
84,2823.42669223046131386865156509209438,2822.0,1.42669223046131386865156509209438
85,2891.02907739853043919844657904271023,2889.6,1.42907739853043919844657904271023
86,2959.43143461870246281068568951139986,2958.0,1.43143461870246281068568951139986
87,3028.63376453870886015321878822612025,3027.2,1.43376453870886015321878822612025
88,3098.63606778401124959543938690921069,3097.2,1.43606778401124959543938690921069
89,3169.43834495881108404210563349390889,3168.0,1.43834495881108404210563349390889
90,3241.04059664700274466870571407208427,3239.6,1.44059664700274466870571407208427
91,3313.44282341307380131430036797030973,3312.0,1.44282341307380131430036797030973
92,3386.64502580295591577023608844518524,3385.2,1.44502580295591577023608844518524
93,3460.64720434482960194806701548780129,3459.2,1.44720434482960194806701548780129
94,3535.44935954988581398128538962237245,3534.0,1.44935954988581398128538962237245
95,3611.05149191304711216143145265205786,3609.6,1.45149191304711216143145265205786
96,3687.45360191365095478703727065100216,3686.0,1.45360191365095478703727065100216
97,3764.65569001609747966174932865731228,3763.2,1.45569001609747966174932865731228
98,3842.65775667046396610368008130680756,3841.2,1.45775667046396610368008130680756
99,3921.45980231308801485584947695865742,3920.0,1.45980231308801485584947695865742
100,4001.06182736712133694716145412273701,3999.6,1.46182736712133694716145412273701
101,4081.46383224305591324920589784930458,4080.0,1.46383224305591324920589784930458
102,4162.66581733922416089945548449592742,4161.2,1.46581733922416089945548449592742
103,4244.66778304227463484781395887250331,4243.2,1.46778304227463484781395887250331
104,4327.46972972762468551876198198746327,4326.0,1.46972972762468551876198198746327
105,4411.07165775989140050758978164865190,4409.6,1.47165775989140050758978164865190
106,4495.47356749330206746496214179945175,4494.0,1.47356749330206746496214179945175
107,4580.67545927208531724210583678901938,4579.2,1.47545927208531724210583678901938
108,4666.67733343084402712935524584210661,4665.2,1.47733343084402712935524584210661
109,4753.47919029491099542725771154240046,4752.0,1.47919029491099542725771154240046
110,4841.08103018068833616931515145073451,4839.6,1.48103018068833616931515145073451
111,4929.48285339597147695423991570278025,4928.0,1.48285339597147695423991570278025
112,5018.68466024025859341196939431163503,5017.2,1.48466024025859341196939431163503
113,5108.68645100504625829188982170069785,5107.2,1.48645100504625829188982170069785
114,5199.48822597411203440396337268646880,5198.0,1.48822597411203440396337268646880
115,5291.08998542378470019495007280269814,5289.6,1.48998542378470019495007280269814
116,5383.49172962320274841026784074508443,5382.0,1.49172962320274841026784074508443
117,5476.69345883456176657902718533655384,5475.2,1.49345883456176657902718533655384
118,5570.69517331335126702867154849378434,5569.2,1.49517331335126702867154849378434
119,5665.49687330858150042193795526544905,5664.0,1.49687330858150042193795526544905
120,5761.09855906300076096661766409567773,5759.6,1.49855906300076096661766409567773
121,5857.50023081330365318135228984839549,5856.0,1.50023081330365318135228984839549
122,5954.70188879033077118756806855084083,5953.2,1.50188879033077118756806855084083
123,6052.70353321926020930471895037567081,6051.2,1.50353321926020930471895037567081
124,6151.50516431979130504620052758401601,6150.0,1.50516431979130504620052758401601
125,6251.10678230632098604703372962430425,6249.6,1.50678230632098604703372962430425
126,6351.50838738811307725711961779602705,6350.0,1.50838738811307725711961779602705
127,6452.70997976946090415598024016202089,6451.2,1.50997976946090415598024016202089
128,6554.71155964984350515771061994759818,6553.2,1.51155964984350515771061994759818
129,6657.51312722407575430162882523550414,6656.0,1.51312722407575430162882523550414
130,6761.11468268245267694224381545874377,6759.6,1.51468268245267694224381545874377
131,6865.51622621088822574804269040475045,6864.0,1.51622621088822574804269040475045
132,6970.71775799104876934139813149923045,6969.2,1.51775799104876934139813149923045
133,7076.71927820048153413031293940834041,7075.2,1.51927820048153413031293940834041
134,7183.52078701273822860675963153051157,7182.0,1.52078701273822860675963153051157
135,7291.12228459749406127803063356212300,7289.6,1.52228459749406127803063356212300
136,7399.52377112066235970998423473935041,7398.0,1.52377112066235970998423473935041
137,7508.72524674450498485312783371680369,7507.2,1.52524674450498485312783371680369
138,7618.72671162773872121048947508411794,7617.2,1.52671162773872121048947508411794
139,7729.52816592563782130032300662700318,7728.0,1.52816592563782130032300662700318
140,7841.12960979013286742072394994468480,7839.6,1.52960979013286742072394994468480
141,7953.53104336990610916574320754296869,7952.0,1.53104336990610916574320754296869
142,8066.73246681048342706931863123313283,8065.2,1.53246681048342706931863123313283
143,8180.73388025432306410317525058495006,8179.2,1.53388025432306410317525058495006
144,8295.53528384090125957520785548588954,8294.0,1.53528384090125957520785548588954
145,8411.13667770679491578710068691241742,8409.6,1.53667770679491578710068691241742
146,8527.53806198576141994118793172725872,8526.0,1.53806198576141994118793172725872
147,8644.73943680881573558359276492977676,8643.2,1.53943680881573558359276492977676
148,8762.74080230430487891264937953741223,8761.2,1.54080230430487891264937953741223
149,8881.54215859797988175353808221435024,8880.0,1.54215859797988175353808221435024
150,9001.14350581306534483998642086962591,8999.6,1.54350581306534483998642086962591
151,9121.54484407032667731726546815115525,9120.0,1.54484407032667731726546815115525
152,9242.74617348813511276562578171115801,9241.2,1.54617348813511276562578171115801
153,9364.74749418253059069384087125917951,9363.2,1.54749418253059069384087125917951
154,9487.54880626728258740207401112278163,9486.0,1.54880626728258740207401112278163
155,9611.15010985394897445003446424095674,9609.6,1.55010985394897445003446424095674
156,9735.55140505193298259675910270892359,9734.0,1.55140505193298259675910270892359
157,9860.75269196853834225859540608634747,9859.2,1.55269196853834225859540608634747
158,9986.75397070902267230345927791508088,9985.2,1.55397070902267230345927791508088
159,10113.5552413766491808541732115778830,10112.0,1.5552413766491808541732115778830
160,10241.1565040727367444383945304337208,10239.6,1.5565040727367444383945304337208
161,10369.5577588967084239812247214977053,10368.0,1.5577588967084239812247214977053
162,10498.7590059461384771015713148099309,10497.2,1.5590059461384771015713148099309
163,10628.7602453167979215655316240523849,10627.2,1.5602453167979215655316240523849
164,10759.5614771026987045333633811122724,10758.0,1.5614771026987045333633811122724
165,10891.1627013961365262002299235599372,10889.6,1.5627013961365262002299235599372
166,11023.5639182877323683462786858561710,11022.0,1.5639182877323683462786858561710
167,11156.7651278664727750283424696322868,11155.2,1.5651278664727750283424696322868
168,11290.7663302197489281021469749260854,11289.2,1.5663302197489281021469749260854
169,11425.5675254333945626370852038128468,11424.0,1.5675254333945626370852038128468
170,11561.1687135917227619666443945177606,11559.6,1.5687135917227619666443945177606
171,11697.5698947775616725689162655926753,11696.0,1.5698947775616725689162655926753
172,11834.7710690722891766438184144842355,11833.2,1.5710690722891766438184144842355
173,11972.7722365558665577893275969325084,11971.2,1.5722365558665577893275969325084
174,12111.5733973068711956202087722349100,12110.0,1.5733973068711956202087722349100
175,12251.1745514025283233141428365820772,12249.6,1.5745514025283233141428365820772
176,12391.5756989187418777915757431729760,12390.0,1.5756989187418777915757431729760
177,12532.7768399301244757897963305366880,12531.2,1.5768399301244757897963305366880
178,12674.7779745100265449856089071439890,12673.2,1.5779745100265449856089071439890
179,12817.5791027305646366115161980454153,12816.0,1.5791027305646366115161980454153
180,12961.1802246626489505117813438580299,12959.6,1.5802246626489505117813438580299
181,13105.5813403760100952869248938105638,13104.0,1.5813403760100952869248938105638
182,13250.7824499392251112220118181439006,13249.2,1.5824499392251112220118181439006
183,13396.7835534197427790479722097214393,13395.2,1.5835534197427790479722097214393
184,13543.5846508839082387774612700504334,13542.0,1.5846508839082387774612700504334
185,13691.1857423969869404233514436573376,13689.6,1.5857423969869404233514436573376
186,13839.5868280231879475684455363383415,13838.0,1.5868280231879475684455363383415
187,13988.7879078256866175868774726516309,13987.2,1.5879078256866175868774726516309
188,14138.7889818666466739534844054661947,14137.2,1.5889818666466739534844054661947
189,14289.5900502072416943722068936601651,14288.0,1.5900502072416943722068936601651
190,14441.1911129076760303745608455175383,14439.6,1.5911129076760303745608455175383
191,14593.5921700272051776106985922422561,14592.0,1.5921700272051776106985922422561
192,14746.7932216241556132152269825739265,14745.2,1.5932216241556132152269825739265
193,14900.7942677559441185515947811412390,14899.2,1.5942677559441185515947811412390
194,15055.5953084790966006757956104883950,15054.0,1.5953084790966006757956104883950
195,15211.1963438492664304517082944471181,15209.6,1.5963438492664304517082944471181
196,15367.5973739212523110099370643516094,15366.0,1.5973739212523110099370643516094
197,15524.7983987490156909254346318092877,15523.2,1.5983987490156909254346318092877
198,15682.7994183856977362758490475738428,15681.2,1.5994183856977362758490475738428
199,15841.6004328836358744144095859003569,15840.0,1.6004328836358744144095859003569
200,16001.2014422943799233975123974514468,15999.6,1.6014422943799233975123974514468
201,16161.6024466687078180433844641140959,16160.0,1.6024466687078180433844641140959
202,16322.8034460566409459979369598296796,16321.2,1.6034460566409459979369598296796
203,16484.8044405074591044624897262158581,16483.2,1.6044405074591044624897262158581
204,16647.6054300697150891982281807326154,16646.0,1.6054300697150891982281807326154
205,16811.2064147912489257727043597227721,16809.6,1.6064147912489257727043597227721
206,16975.6073947192017560670787769526071,16974.0,1.6073947192017560670787769526071
207,17140.8083699000293859147282960996426,17139.2,1.6083699000293859147282960996426
208,17306.8093403795155080926243832505835,17305.2,1.6093403795155080926243832505835
209,17473.6103062027846064083090259057306,17472.0,1.6103062027846064083090259057306
210,17641.2112674143145523780670917193058,17639.6,1.6112674143145523780670917193058
211,17809.6122240579489018552512420756608,17808.0,1.6122240579489018552512420756608
212,17978.8131761769089018358812110361696,17977.2,1.6131761769089018358812110361696
213,18148.8141238138052118194050491405195,18147.2,1.6141238138052118194050491405195
214,18319.6150670106493547003056282605713,18318.0,1.6150670106493547003056282605713
215,18491.2160058088648963967767494900200,18489.6,1.6160058088648963967767494900200
216,18663.6169402492983681709190366777231,18662.0,1.6169402492983681709190366777231
217,18836.8178703722299355994907560881263,18835.2,1.6178703722299355994907560881263
218,19010.8187962173838231676560917688168,19009.2,1.6187962173838231676560917688168
219,19185.6197178239384977586594772800158,19184.0,1.6197178239384977586594772800158
220,19361.2206352305366235475461865542655,19359.6,1.6206352305366235475461865542655
221,19537.6215484752947862012114288963623,19536.0,1.6215484752947862012114288963623
222,19714.8224575958130035821356877074236,19713.2,1.6224575958130035821356877074236
223,19892.8233626291840165166296326604042,19891.2,1.6233626291840165166296326604042
224,20071.6242636120023746868788567857727,20070.0,1.6242636120023746868788567857727
225,20251.2251605803733202033228944456514,20249.6,1.6251605803733202033228944456514
226,20431.6260535699214723953012224467920,20430.0,1.6260535699214723953012224467920
227,20612.8269426157993224628044927427942,20611.2,1.6269426157993224628044927427942
228,20794.8278277526955397995219568775153,20793.2,1.6278277526955397995219568775153
229,20977.6287090148430971393201623776921,20976.0,1.6287090148430971393201623776921
230,21161.2295864360272192123808498237740,21159.6,1.6295864360272192123808498237740
231,21345.6304600495931567002521154435993,21344.0,1.6304600495931567002521154435993
232,21530.8313298884537958987171185254956,21529.2,1.6313298884537958987171185254956
233,21716.8321959850970990739680615076961,21715.2,1.6321959850970990739680615076961
234,21903.6330583715933916581345243607671,21902.0,1.6330583715933916581345243607671
235,22091.2339170796024894552492202402530,22089.6,1.6339170796024894552492202402530
236,22279.6347721403806755564022563082986,22278.0,1.6347721403806755564022563082986
237,22468.8356235847875305841934703235455,22467.2,1.6356235847875305841934703235455
238,22658.8364714432926179974761285391174,22657.2,1.6364714432926179974761285391174
