Eigenstate,Energy,Kinetic Energy,Potential Energy
1,0.500000000079217072083039959257296254,0.0,0.500000000079217072083039959257296254
2,1.84623093816820331153071990992760821,1.2,0.64623093816820331153071990992760821
3,3.93633761122388601837934451356066781,3.2,0.73633761122388601837934451356066781
4,6.79966528097796747387423150160324142,6.0,0.79966528097796747387423150160324142
5,10.4480465807659373710873281740574332,9.6,0.8480465807659373710873281740574332
6,14.8870660053505082404903163802441983,14.0,0.8870660053505082404903163802441983
7,20.1197208361736382526250399056027458,19.2,0.9197208361736382526250399056027458
8,26.1477838596142912640909445371600206,25.2,0.9477838596142912640909445371600206
9,32.9723835746799434705984724652257997,32.0,0.9723835746799434705984724652257997
10,40.5942802355199480776890906167386852,39.6,0.9942802355199480776890906167386852
11,49.0140094122759006590007576319054467,48.0,1.0140094122759006590007576319054467
12,58.2319622002528606009718624042295582,57.2,1.0319622002528606009718624042295582
13,68.2484327295169917979958227798331036,67.2,1.0484327295169917979958227798331036
14,79.0636476977517523229975351223765372,78.0,1.0636476977517523229975351223765372
15,90.6777854860720962920619481362538473,89.6,1.0777854860720962920619481362538473
16,103.090988963894929664663097068167666,102.0,1.090988963894929664663097068167666
17,116.303374322400621663820127176964160,115.2,1.103374322400621663820127176964160
18,130.315037325539209080103633515107444,129.2,1.115037325539209080103633515107444
19,145.126057833134377293914342877508340,144.0,1.126057833134377293914342877508340
20,160.736503138517399167815919680053097,159.6,1.136503138517399167815919680053097
21,177.146430474608834022001528982539887,176.0,1.146430474608834022001528982539887
22,194.355888925077269109003127676380987,193.2,1.155888925077269109003127676380987
23,212.364920902275845286560311531860141,211.2,1.164920902275845286560311531860141
24,231.173563304642679960689788972504792,230.0,1.173563304642679960689788972504792
25,250.781848433496794090103255879620946,249.6,1.181848433496794090103255879620946
26,271.189804726845700422717259694248670,270.0,1.189804726845700422717259694248670
27,292.397457352347979721727620038413352,291.2,1.197457352347979721727620038413352
28,314.404828690672320921355948588121790,313.2,1.204828690672320921355948588121790
29,337.211938732699473325157778798520157,336.0,1.211938732699473325157778798520157
30,360.818805408364071386463711385736690,359.6,1.218805408364071386463711385736690
31,385.225444860787354107579372237831363,384.0,1.225444860787354107579372237831363
32,410.431871676273901507577554691488411,409.2,1.231871676273901507577554691488411
33,436.438099078435862802881954346247267,435.2,1.238099078435862802881954346247267
34,463.244139092957604677584387815508556,462.0,1.244139092957604677584387815508556
35,490.850002688174512953927529769604944,489.6,1.250002688174512953927529769604944
36,519.255699895606202094235957698316514,518.0,1.255699895606202094235957698316514
37,548.461239913780302416614398078927342,547.2,1.261239913780302416614398078927342
38,578.466631198052576163253456861051265,577.2,1.266631198052576163253456861051265
39,609.271881538631264910408188653388116,608.0,1.271881538631264910408188653388116
40,640.876998128617750025371993651144132,639.6,1.276998128617750025371993651144132
41,673.281987623558857601893892642583978,672.0,1.281987623558857601893892642583978
42,706.486856193751146703862227073836766,705.2,1.286856193751146703862227073836766
43,740.491609570331033402067440707745958,739.2,1.291609570331033402067440707745958
44,775.296253086016509073278097530936457,774.0,1.296253086016509073278097530936457
45,810.900791711228641861808453348682621,809.6,1.300791711228641861808453348682621
46,847.305230086207913921115526678438703,846.0,1.305230086207913921115526678438703
47,884.509572549646970440594354902517538,883.2,1.309572549646970440594354902517538
48,922.513823164283770098461856749634936,921.2,1.313823164283770098461856749634936
49,961.317985739834464037698433847879422,960.0,1.317985739834464037698433847879422
50,1000.92206385359120774834301924676298,999.6,1.32206385359120774834301924676298
51,1041.32606086896464327694839759668375,1040.0,1.32606086896464327694839759668375
52,1082.52997995221244396969032791273406,1081.2,1.32997995221244396969032791273406
53,1124.53382408756286383706657405799287,1123.2,1.33382408756286383706657405799287
54,1167.33759609091467249665648195639945,1166.0,1.33759609091467249665648195639945
55,1210.94129862227138115789169380410579,1209.6,1.34129862227138115789169380410579
56,1255.34493419704759054265686576745779,1254.0,1.34493419704759054265686576745779
57,1300.54850519636809267041442875247458,1299.2,1.34850519636809267041442875247458
58,1346.55201387646556125025202300383417,1345.2,1.35201387646556125025202300383417
59,1393.35546237726991147497151713529220,1392.0,1.35546237726991147497151713529220
60,1440.95885273027138550463326967522174,1439.6,1.35885273027138550463326967522174
61,1489.36218686572985569946148676175782,1488.0,1.36218686572985569946148676175782
62,1538.56546661929453665690071328923051,1537.2,1.36546661929453665690071328923051
63,1588.56869373809105521859056710844519,1587.2,1.36869373809105521859056710844519
64,1639.37186988632651513310196649633741,1638.0,1.37186988632651513310196649633741
65,1690.97499665045765822030379897914331,1689.6,1.37499665045765822030379897914331
66,1743.37807554396237654417324952557826,1742.0,1.37807554396237654417324952557826
67,1796.58110801175056780953614942072997,1795.2,1.38110801175056780953614942072997
68,1850.58409543424657003741405790733025,1849.2,1.38409543424657003741405790733025
69,1905.38703913117209890292723690028115,1904.0,1.38703913117209890292723690028115
70,1960.98994036505568285143737918344651,1959.6,1.38994036505568285143737918344651
71,2017.39280034449199240488292448611514,2016.0,1.39280034449199240488292448611514
72,2074.59562022717216182787842684356403,2073.2,1.39562022717216182787842684356403
73,2132.59840112270414831674626667574771,2131.2,1.39840112270414831674626667574771
74,2191.40114409524035502609513203429670,2190.0,1.40114409524035502609513203429670
75,2251.00385016592811314645670747466119,2249.6,1.40385016592811314645670747466119
76,2311.40652031519716868973598944944704,2310.0,1.40652031519716868973598944944704
77,2372.60915548489701724081265320181203,2371.2,1.40915548489701724081265320181203
78,2434.61175658029576413545014753196477,2433.2,1.41175658029576413545014753196477
79,2497.41432447195114070467683377649767,2496.0,1.41432447195114070467683377649767
80,2561.01685999746336910015862412021357,2559.6,1.41685999746336910015862412021357
81,2625.41936396311871887360616654059661,2624.0,1.41936396311871887360616654059661
82,2690.62183714543183703270563917986243,2689.2,1.42183714543183703270563917986243
83,2756.62428029259424456227249202086633,2755.2,1.42428029259424456227249202086633
84,2823.42669412583576810761134296244622,2822.0,1.42669412583576810761134296244622
85,2891.02907934070511624089141570430963,2889.6,1.42907934070511624089141570430963
86,2959.43143660827529386595736661939433,2958.0,1.43143660827529386595736661939433
87,3028.63376657627909084619577978515701,3027.2,1.43376657627909084619577978515701
88,3098.63606987017945756234153267436361,3097.2,1.43606987017945756234153267436361
89,3169.43834709417919660494686851768554,3168.0,1.43834709417919660494686851768554
90,3241.04059883217405658950669725232718,3239.6,1.44059883217405658950669725232718
91,3313.44282564865299263018312648602954,3312.0,1.44282564865299263018312648602954
92,3386.64502808954906971053275465512325,3385.2,1.44502808954906971053275465512325
93,3460.64720668304422293458503408308911,3459.2,1.44720668304422293458503408308911
94,3535.44936194033084571288176714159033,3534.0,1.44936194033084571288176714159033
95,3611.05149435633295578405881265170459,3609.6,1.45149435633295578405881265170459
96,3687.45360441038948715043479460157627,3686.0,1.45360441038948715043479460157627
97,3764.65569256690207166396213227104801,3763.2,1.45569256690207166396213227104801
98,3842.65775927594950112460075132162335,3841.2,1.45775927594950112460075132162335
99,3921.45980497387090728098634286630396,3920.0,1.45980497387090728098634286630396
100,4001.06183008381955078284846179119986,3999.6,1.46183008381955078284846179119986
101,4081.46383501628898083047982409786241,4080.0,1.46383501628898083047982409786241
102,4162.66582016961320169183698559403907,4161.2,1.46582016961320169183698559403907
103,4244.66778593044237434423964702292311,4243.2,1.46778593044237434423964702292311
104,4327.46973267419547423292618440546992,4326.0,1.46973267419547423292618440546992
105,4411.07166076549123306496528881878286,4409.6,1.47166076549123306496528881878286
106,4495.47357055855860179278073882036451,4494.0,1.47357055855860179278073882036451
107,4580.67546239762789385959071295769300,4579.2,1.47546239762789385959071295769300
108,4666.67733661730368853950889929520172,4665.2,1.47733661730368853950889929520172
109,4753.47919354292050561152065963840620,4752.0,1.47919354292050561152065963840620
110,4841.08103349088220018642245019679296,4839.6,1.48103349088220018642245019679296
111,4929.48285676898596064461438556637946,4928.0,1.48285676898596064461438556637946
112,5018.68466367673174320900271746521819,5017.2,1.48466367673174320900271746521819
113,5108.68645450561792114147467247598177,5107.2,1.48645450561792114147467247598177
114,5199.48822953942387779365227732533511,5198.0,1.48822953942387779365227732533511
115,5291.08998905448023229412912501746535,5289.6,1.48998905448023229412912501746535
116,5383.49173331992733832274624575747070,5382.0,1.49173331992733832274624575747070
117,5476.69346259796266470945634961417169,5475.2,1.49346259796266470945634961417169
118,5570.69517714407762556422053368248567,5569.2,1.49517714407762556422053368248567
119,5665.49687720728439393066519450674958,5664.0,1.49687720728439393066519450674958
120,5761.09856303033320711399261164494495,5759.6,1.49856303033320711399261164494495
121,5857.50023484992063356639376489107732,5856.0,1.50023484992063356639376489107732
122,5954.70189289688925230008017535397553,5953.2,1.50189289688925230008017535397553
123,6052.70353739641916360511922117079293,6051.2,1.50353739641916360511922117079293
124,6151.50516856821173216944905320983498,6150.0,1.50516856821173216944905320983498
125,6251.10678662666593413218651413817369,6249.6,1.50678662666593413218651413817369
126,6351.50839178104766440404385982095292,6350.0,1.50839178104766440404385982095292
127,6452.70998423565234001078386132605903,6451.2,1.50998423565234001078386132605903
128,6554.71156418996111262845345698802026,6553.2,1.51156418996111262845345698802026
129,6657.51313183879099140589796979630254,6656.0,1.51313183879099140589796979630254
130,6761.11468737243915878819089988946136,6759.6,1.51468737243915878819089988946136
131,6865.51623097682174665049636211695061,6864.0,1.51623097682174665049636211695061
132,6970.71776283360732507468132885430708,6969.2,1.51776283360732507468132885430708
133,7076.71928312034534431940952049098153,7075.2,1.51928312034534431940952049098153
134,7183.52079201058975925849216978480583,7182.0,1.52079201058975925849216978480583
135,7291.12228967401804745392718078659804,7289.6,1.52228967401804745392718078659804
136,7399.52377627654582834252832506420832,7398.0,1.52377627654582834252832506420832
137,7508.72525198043727770710335961664725,7507.2,1.52525198043727770710335961664725
138,7618.72671694441151799114890738483468,7617.2,1.52671694441151799114890738483468
139,7729.52817132374516291012503760465765,7728.0,1.52817132374516291012503760465765
140,7841.12961527037117936640406190952538,7839.6,1.52961527037117936640406190952538
141,7953.53104893297422511749858017013548,7952.0,1.53104893297422511749858017013548
142,8066.73247245708261257390717161287939,8065.2,1.53247245708261257390717161287939
143,8180.73388598515704045274664073284692,8179.2,1.53388598515704045274664073284692
144,8295.53528965667622783370332999063990,8294.0,1.53528965667622783370332999063990
145,8411.13668360821958097607706797739212,8409.6,1.53668360821958097607706797739212
146,8527.53806797354701538694068714215713,8526.0,1.53806797354701538694068714215713
147,8644.73944288367604742747235025170029,8643.2,1.53944288367604742747235025170029
148,8762.74080846695627078648465007952976,8761.2,1.54080846695627078648465007952976
149,8881.54216484914131962210096079910636,8880.0,1.54216484914131962210096079910636
150,9001.14351215345842201245161473390676,8999.6,1.54351215345842201245161473390676
151,9121.54485050067563962964054474387893,9120.0,1.54485050067563962964054474387893
152,9242.74618000916688393614687698729444,9241.2,1.54618000916688393614687698729444
153,9364.74750079497479785335109870670239,9363.2,1.54750079497479785335109870670239
154,9487.54881297187158680142268064586350,9486.0,1.54881297187158680142268064586350
155,9611.15011665141787734655715325088808,9609.6,1.55011665141787734655715325088808
156,9735.55141194301968132192109875341563,9734.0,1.55141194301968132192109875341563
157,9860.75269895398353646890246036615291,9859.2,1.55269895398353646890246036615291
158,9986.75397778956989541676335294113045,9985.2,1.55397778956989541676335294113045
159,10113.5552485530448266735232610852369,10112.0,1.5552485530448266735232610852369
160,10241.1565113457300939656059823996377,10239.6,1.5565113457300939656059823996377
161,10369.5577662670516724223650369723520,10368.0,1.5577662670516724223650369723520
162,10498.7590134145867610665830032212354,10497.2,1.5590134145867610665830032212354
163,10628.7602528841093464642381475911690,10627.2,1.5602528841093464642381475911690
164,10759.5614847696343721701286742912986,10758.0,1.5614847696343721701286742912986
165,10891.1627091634605625695671165744897,10889.6,1.5627091634605625695671165744897
166,11023.5639261562119516317286326126661,11022.0,1.5639261562119516317286326126661
167,11156.7651358368781638069690036904681,11155.2,1.5651358368781638069690036904681
168,11290.7663382928534897570219082779092,11289.2,1.5663382928534897570219082779092
169,11425.5675336099748019801622002876257,11424.0,1.5675336099748019801622002876257
170,11561.1687218725583500744484870348182,11559.6,1.5687218725583500744484870348182
171,11697.5699031634354758335023488311381,11696.0,1.5699031634354758335023488311381
172,11834.7710775639872860414802449099959,11833.2,1.5710775639872860414802449099959
173,11972.7722451541783183695667313431209,11971.2,1.5722451541783183695667313431209
174,12111.5734060125892362175012893387983,12110.0,1.5734060125892362175012893387983
175,12251.1745602164485864850709346714705,12249.6,1.5745602164485864850709346714705
176,12391.5757078416636499799202894642867,12390.0,1.5757078416636499799202894642867
177,12532.7768489628504177222162905084492,12531.2,1.5768489628504177222162905084492
178,12674.7779836533627223005638520590749,12673.2,1.5779836533627223005638520590749
179,12817.5791119853205507241185298339558,12816.0,1.5791119853205507241185298339558
180,12961.1802340296375697172962189308986,12959.6,1.5802340296375697172962189308986
181,13105.5813498560478861056670185040306,13104.0,1.5813498560478861056670185040306
182,13250.7824595331320699884203665529958,13249.2,1.5824595331320699884203665529958
183,13396.7835631283424637466777422811091,13395.2,1.5835631283424637466777422811091
184,13543.5846607080278011291908438732904,13542.0,1.5846607080278011291908438732904
185,13691.1857523374571582235528460583628,13689.6,1.5857523374571582235528460583628
186,13839.5868380808432572815431568419097,13838.0,1.5868380808432572815431568419097
187,13988.7879180013651471991090561341217,13987.2,1.5879180013651471991090561341217
188,14138.7889921611902760873013514415966,14137.2,1.5889921611902760873013514415966
189,14289.5900606214959796652565511042515,14288.0,1.5900606214959796652565511042515
190,14441.1911234424904011263049786900209,14439.6,1.5911234424904011263049786900209
191,14593.5921806834328616997590420934785,14592.0,1.5921806834328616997590420934785
192,14746.7932324026536982905860148632365,14745.2,1.5932324026536982905860148632365
193,14900.7942786575735865008152526234853,14899.2,1.5942786575735865008152526234853
194,15055.5953195047223623734640452822102,15054.0,1.5953195047223623734640452822102
195,15211.1963549997573607913430155932083,15209.6,1.5963549997573607913430155932083
196,15367.5973851974812842226417602553200,15366.0,1.5973851974812842226417602553200
197,15524.7984101518596161886184744515439,15523.2,1.5984101518596161886184744515439
198,15682.7994299160375936153739982993961,15681.2,1.5994299160375936153739982993961
199,15841.6004445423567509035672846116110,15840.0,1.6004445423567509035672846116110
200,16001.2014540823710496562737737845189,15999.6,1.6014540823710496562737737845189
201,16161.6024585868626050414072511860406,16160.0,1.6024585868626050414072511860406
202,16322.8034581058570221648605955351148,16321.2,1.6034581058570221648605955351148
203,16484.8044526886383531090881913227685,16483.2,1.6044526886383531090881913227685
204,16647.6054423837636862520373611645099,16646.0,1.6054423837636862520373611645099
205,16811.2064272390773778317840500848314,16809.6,1.6064272390773778317840500848314
206,16975.6074073017249387756154014861824,16974.0,1.6074073017249387756154014861824
207,17140.8083826181665826642302653340188,17139.2,1.6083826181665826642302653340188
208,17306.8093532341904490525085512585133,17305.2,1.6093532341904490525085512585133
209,17473.6103191949255078897248380518144,17472.0,1.6103191949255078897248380518144
210,17641.2112805448541565348521646163665,17639.6,1.6112805448541565348521646163665
211,17809.6122373278245167259617931679486,17808.0,1.6122373278245167259617931679486
212,17978.8131895870624417308898938806587,17977.2,1.6131895870624417308898938806587
213,18148.8141373651832380571097146305824,18147.2,1.6141373651832380571097146305824
214,18319.6150807042031166965426654317494,18318.0,1.6150807042031166965426654317494
215,18491.2160196455503731115854673764768,18489.6,1.6160196455503731115854673764768
216,18663.6169542300763099168558293561810,18662.0,1.6169542300763099168558293561810
217,18836.8178844980659062157453979007288,18835.2,1.6178844980659062157453979007288
218,19010.8188104892482425642762624970346,19009.2,1.6188104892482425642762624970346
219,19185.6197322428066848352458755629628,19184.0,1.6197322428066848352458755629628
220,19361.2206497973888394908351863597753,19359.6,1.6206497973888394908351863597753
221,19537.6215631911162781660202052795626,19536.0,1.6215631911162781660202052795626
222,19714.8224724615940487602014985034450,19713.2,1.6224724615940487602014985034450
223,19892.8233776459199665979340976341478,19891.2,1.6233776459199665979340976341478
224,20071.6242787806937007181072427173658,20070.0,1.6242787806937007181072427173658
225,20251.2251759020256578481689364855078,20249.6,1.6251759020256578481689364855078
226,20431.6260690455456676013893702450412,20430.0,1.6260690455456676013893702450412
227,20612.8269582464114775400629436785829,20611.2,1.6269582464114775400629436785829
228,20794.8278435393170599149045017948855,20793.2,1.6278435393170599149045017948855
229,20977.6287249585007372328376761951281,20976.0,1.6287249585007372328376761951281
230,21161.2296025377531313394692033643325,21159.6,1.6296025377531313394692033643325
231,21345.6304763104249378055688370490379,21344.0,1.6304763104249378055688370490379
232,21530.8313463094345360265270916696913,21529.2,1.6313463094345360265270916696913
233,21716.8322125672754300203464317839940,21715.2,1.6322125672754300203464317839940
234,21903.6330751160235360702838709939604,21902.0,1.6330751160235360702838709939604
235,22091.2339339873443103832995066414556,22089.6,1.6339339873443103832995066414556
236,22279.6347892124997264631322056711564,22278.0,1.6347892124997264631322056711564
237,22468.8356408223551058181860613867993,22467.2,1.6356408223551058181860613867993
238,22658.8364888473858037352935560902039,22657.2,1.6364888473858037352935560902039
