Eigenstate,Energy,Kinetic Energy,Potential Energy
1,0.500000000249876582350124963819026195,0.0,0.500000000249876582350124963819026195
2,1.84623093928219296233401508079008222,1.2,0.64623093928219296233401508079008222
3,3.93633761449620141230155321925974558,3.2,0.73633761449620141230155321925974558
4,6.79966528779399996198666901392750819,6.0,0.79966528779399996198666901392750819
5,10.4480465925730826904678471973442376,9.6,0.8480465925730826904678471973442376
6,14.8870660236217356493756530967769651,14.0,0.8870660236217356493756530967769651
7,20.1197208623941053918557264871206850,19.2,0.9197208623941053918557264871206850
8,26.1477838952757970727069412611495939,25.2,0.9477838952757970727069412611495939
9,32.9723836212783810271506317551073338,32.0,0.9723836212783810271506317551073338
10,40.5942802945540415345201754916107815,39.6,0.9942802945540415345201754916107815
11,49.0140094852465467221894049037489492,48.0,1.0140094852465467221894049037489492
12,58.2319622886627781313517344699241138,57.2,1.0319622886627781313517344699241138
13,68.2484328348705392089803795602444501,67.2,1.0484328348705392089803795602444501
14,79.0636478215548416011242260263089751,78.0,1.0636478215548416011242260263089751
15,90.6777856298321653644510965482257829,89.6,1.0777856298321653644510965482257829
16,103.090989129120951474221849336614116,102.0,1.090989129120951474221849336614116
17,116.303374510603137180224002983139123,115.2,1.103374510603137180224002983139123
18,130.315037538230376421259433576353043,129.2,1.115037538230376421259433576353043
19,145.126058071828032004390076879923752,144.0,1.126058071828032004390076879923752
20,160.736503404729122427479615883599176,159.6,1.136503404729122427479615883599176
21,177.146430769856026629180580553129222,176.0,1.146430769856026629180580553129222
22,194.355889250879229765519948754276240,193.2,1.155889250879229765519948754276240
23,212.364921260153852158560253591217633,211.2,1.164921260153852158560253591217633
24,231.173563696120074787747224826422598,230.0,1.173563696120074787747224826422598
25,250.781848860099068318810145020468681,249.6,1.181848860099068318810145020468681
26,271.189805190100582982549647935433423,270.0,1.189805190100582982549647935433423
27,292.397457853785526161071496331811827,291.2,1.197457853785526161071496331811827
28,314.404829231825003693425298109699253,313.2,1.204829231825003693425298109699253
29,337.211939315102273065860668067339400,336.0,1.211939315102273065860668067339400
30,360.818806033554569064880304665868132,359.6,1.218806033554569064880304665868132
31,385.225445530305823958555153467719073,384.0,1.225445530305823958555153467719073
32,410.431872391663404677724542852956706,409.2,1.231872391663404677724542852956706
33,436.438099841242341657920897607376801,435.2,1.238099841242341657920897607376801
34,463.244139904729977731796968713111044,462.0,1.244139904729977731796968713111044
35,490.850003550464770392483962600808352,489.6,1.250003550464770392483962600808352
36,519.255700809969501867018508174660189,518.0,1.255700809969501867018508174660189
37,548.461240881775066888384057465965913,547.2,1.261240881775066888384057465965913
38,578.466632221240589309983482367024709,577.2,1.266632221240589309983482367024709
39,609.271882618577770055617998450340708,608.0,1.271882618577770055617998450340708
40,640.876999266891548113551159813124456,639.6,1.276999266891548113551159813124456
41,673.281988821732406008770683705094313,672.0,1.281988821732406008770683705094313
42,706.486857453400658585468781355671586,705.2,1.286857453400658585468781355671586
43,740.491610893036577586379785704229533,739.2,1.291610893036577586379785704229533
44,775.296254473362110499738328341263434,774.0,1.296254473362110499738328341263434
45,810.900793164802382575326934531392788,809.6,1.300793164802382575326934531392788
46,847.305231607602034628248815259220790,846.0,1.305231607602034628248815259220790
47,884.509574140457972636535673648231916,883.2,1.309574140457972636535673648231916
48,922.513824826112518774295018695742376,921.2,1.313824826112518774295018695742376
49,961.317987474286290978075644835662364,960.0,1.317987474286290978075644835662364
50,1000.92206566227601543037105449621589,999.6,1.32206566227601543037105449621589
51,1041.32606275349700938162165479241573,1040.0,1.32606275349700938162165479241573
52,1082.52998191421172651770482344878856,1081.2,1.32998191421172651770482344878856
53,1124.53382612865330696129672186897147,1123.2,1.33382612865330696129672186897147
54,1167.33759821272551286398475062640841,1166.0,1.33759821272551286398475062640841
55,1210.94130082643695505345647125179122,1209.6,1.34130082643695505345647125179122
56,1255.34493648520744162993201023209963,1254.0,1.34493648520744162993201023209963
57,1300.54850757016708044085943035348983,1299.2,1.34850757016708044085943035348983
58,1346.55201633755397017657953316088393,1345.2,1.35201633755397017657953316088393
59,1393.35546492730356088237013675358471,1392.0,1.35546492730356088237013675358471
60,1440.95885537091174017456361113054209,1439.6,1.35885537091174017456361113054209
61,1489.36218959864413722091277811739479,1488.0,1.36218959864413722091277811739479
62,1538.56546944615583554025691552334244,1537.2,1.36546944615583554025691552334244
63,1588.56869666057844378750981755207509,1587.2,1.36869666057844378750981755207509
64,1639.37187290612516121006337767418399,1638.0,1.37187290612516121006337767418399
65,1690.97499976925893962172276659840990,1689.6,1.37499976925893962172276659840990
66,1743.37807876346399640122982323249344,1742.0,1.37807876346399640122982323249344
67,1796.58111133365667073110413761317671,1795.2,1.38111133365667073110413761317671
68,1850.58409886026785913171964671726064,1849.2,1.38409886026785913171964671726064
69,1905.38704266302595367480879628852807,1904.0,1.38704266302595367480879628852807
70,1960.98994400446627799231883726480679,1959.6,1.38994400446627799231883726480679
71,2017.39280409319041749281829473092579,2016.0,1.39280409319041749281829473092579
72,2074.59562408689654195526874069809574,2073.2,1.39562408689654195526874069809574
73,2132.59840509519976566357877506860171,2131.2,1.39840509519976566357877506860171
74,2191.40114818225977139680339393009473,2190.0,1.40114818225977139680339393009473
75,2251.00385436923129348875385874504585,2249.6,1.40385436923129348875385874504585
76,2311.40652463655160561402838987476641,2310.0,1.40652463655160561402838987476641
77,2372.60915992607785655906134994688720,2371.2,1.40915992607785655906134994688720
78,2434.61176114308593143861068852390678,2433.2,1.41176114308593143861068852390678
79,2497.41432915814146899811524554339144,2496.0,1.41432915814146899811524554339144
80,2561.01686480885272751671277169009010,2559.6,1.41686480885272751671277169009010
81,2625.41936890151414248423856018512593,2624.0,1.41936890151414248423856018512593
82,2690.62184221264865777497413136149343,2689.2,1.42184221264865777497413136149343
83,2756.62428549045622330713165095156526,2755.2,1.42428549045622330713165095156526
84,2823.42669945617522788534821146201489,2822.0,1.42669945617522788534821146201489
85,2891.02908480536307664729614445405969,2889.6,1.42908480536307664729614445405969
86,2959.43144220910160667013076579331180,2958.0,1.43144220910160667013076579331180
87,3028.63377231513257682170448686482536,3027.2,1.43377231513257682170448686482536
88,3098.63607574892804456374446414245045,3097.2,1.43607574892804456374446414245045
89,3169.43835311470005891203687277600037,3168.0,1.43835311470005891203687277600037
90,3241.04060499635375554193714717167811,3239.6,1.44060499635375554193714717167811
91,3313.44283195838761857548227261784962,3312.0,1.44283195838761857548227261784962
92,3386.64503454674438528884705005083541,3385.2,1.44503454674438528884705005083541
93,3460.64721328961580772383944167874715,3459.2,1.44721328961580772383944167874715
94,3535.44936869820424225839727987844475,3534.0,1.44936869820424225839727987844475
95,3611.05150126744381703702803412185166,3609.6,1.45150126744381703702803412185166
96,3687.45361147668372534002309833250019,3686.0,1.45361147668372534002309833250019
97,3764.65569979033600862817776652373958,3763.2,1.45569979033600862817776652373958
98,3842.65776665849002012545848071615807,3841.2,1.45776665849002012545848071615807
99,3921.45981251749560632988095286398783,3920.0,1.45981251749560632988095286398783
100,4001.06183779051689750245150719685889,3999.6,1.46183779051689750245150719685889
101,4081.46384288805846887988049568849708,4080.0,1.46384288805846887988049568849708
102,4162.66582820846550878206259979888467,4161.2,1.46582820846550878206259979888467
103,4244.66779413839952187171434958048999,4243.2,1.46779413839952187171434958048999
104,4327.46974105329098855885982067024954,4326.0,1.46974105329098855885982067024954
105,4411.07166931777030846910469963220968,4409.6,1.47166931777030846910469963220968
106,4495.47357928607826513040653699713815,4494.0,1.47357928607826513040653699713815
107,4580.67547130245717095110274491229306,4579.2,1.47547130245717095110274491229306
108,4666.67734570152377232241245084559414,4665.2,1.47734570152377232241245084559414
109,4753.47920280862492608510530586396990,4752.0,1.47920280862492608510530586396990
110,4841.08104294017699617991420057909008,4839.6,1.48104294017699617991420057909008
111,4929.48286640398985344008149124663947,4928.0,1.48286640398985344008149124663947
112,5018.68467349957631205080595952034095,5017.2,1.48467349957631205080595952034095
113,5108.68646451844778066457276007354098,5107.2,1.48646451844778066457276007354098
114,5199.48823974439685740360531250964175,5198.0,1.48823974439685740360531250964175
115,5291.08999945376755753218592069014106,5289.6,1.48999945376755753218592069014106
116,5383.49174391571381424995536840433730,5382.0,1.49174391571381424995536840433730
117,5476.69347339244686134430675874968977,5475.2,1.49347339244686134430675874968977
118,5570.69518813947206540889619348774311,5569.2,1.49518813947206540889619348774311
119,5665.49688840581574162158763326855479,5664.0,1.49688840581574162158763326855479
120,5761.09857443424246123292831327753302,5759.6,1.49857443424246123292831327753302
121,5857.50024646146332064901973570051989,5856.0,1.50024646146332064901973570051989
122,5954.70190471833562307952816761138335,5953.2,1.50190471833562307952816761138335
123,6052.70354943005439152866273748560633,6051.2,1.50354943005439152866273748560633
124,6151.50518081633611422715183004031075,6150.0,1.50518081633611422715183004031075
125,6251.10679909159509403700177998864504,6249.6,1.50679909159509403700177998864504
126,6351.50840446511275816353740350259135,6350.0,1.50840446511275816353740350259135
127,6452.70999714120026393135292233254057,6451.2,1.50999714120026393135292233254057
128,6554.71157731935471379362740958909626,6553.2,1.51157731935471379362740958909626
129,6657.51314519440928067103577318000185,6656.0,1.51314519440928067103577318000185
130,6761.11470095667752633463502360112329,6759.6,1.51470095667752633463502360112329
131,6865.51624479209218014300431601850556,6864.0,1.51624479209218014300431601850556
132,6970.71777688233863046673381919360950,6969.2,1.51777688233863046673381919360950
133,7076.71929740498336935178679647043520,7075.2,1.51929740498336935178679647043520
134,7183.52080653359761969732400109037399,7182.0,1.52080653359761969732400109037399
135,7291.12230443787635611524950945270173,7289.6,1.52230443787635611524950945270173
136,7399.52379128375292695122699451215549,7398.0,1.52379128375292695122699451215549
137,7508.72526723350947163899278563239259,7507.2,1.52526723350947163899278563239259
138,7618.72673244588331394781556789915464,7617.2,1.52673244588331394781556789915464
139,7729.52818707616950957707212251906519,7728.0,1.52818707616950957707212251906519
140,7841.12963127631971110595675051310547,7839.6,1.52963127631971110595675051310547
141,7953.53106519503750874887315349246840,7952.0,1.53106519503750874887315349246840
142,8066.73248897787039729381326477548716,8065.2,1.53248897787039729381326477548716
143,8180.73390276729851095087787627077344,8179.2,1.53390276729851095087787627077344
144,8295.53530670282026065848026812232732,8294.0,1.53530670282026065848026812232732
145,8411.13670092103500420703609750225002,8409.6,1.53670092103500420703609750225002
146,8527.53808555572287167121775815699849,8526.0,1.53808555572287167121775815699849
147,8644.73946073792186043890645308781717,8643.2,1.53946073792186043890645308781717
148,8762.74082659600231516696630866168953,8761.2,1.54082659600231516696630866168953
149,8881.54218325573889446591948363195054,8880.0,1.54218325573889446591948363195054
150,9001.14353084038012795554267004598430,8999.6,1.54353084038012795554267004598430
151,9121.54486947071565960681539981841419,9120.0,1.54486947071565960681539981841419
152,9242.74619926514126767058615642934936,9241.2,1.54619926514126767058615642934936
153,9364.74752033972175014387786697122972,9363.2,1.54752033972175014387786697122972
154,9487.54883280825175967432761189958818,9486.0,1.54883280825175967432761189958818
155,9611.15013678231466614003551624075607,9609.6,1.55013678231466614003551624075607
156,9735.55143237133952477249902162166882,9734.0,1.55143237133952477249902162166882
157,9860.75271968265622087057421479101591,9859.2,1.55271968265622087057421479101591
158,9986.75399882154886292494128200671423,9985.2,1.55399882154886292494128200671423
159,10113.5552698913074878273078228330642,10112.0,1.5552698913074878273078228330642
160,10241.1565329932781445033278998480730,10239.6,1.5565329932781445033278998480730
161,10369.5577882269114144668232025827577,10368.0,1.5577882269114144668232025827577
162,10498.7590356898094287579119494441137,10497.2,1.5590356898094287579119494441137
163,10628.7602754777714361198809644712383,10627.2,1.5602754777714361198809644712383
164,10759.5615076848379770529718583088007,10758.0,1.5615076848379770529718583088007
165,10891.1627324033337123469096092587864,10889.6,1.5627324033337123469096092587864
166,11023.5639497239089566094098339675404,11022.0,1.5639497239089566094098339675404
167,11156.7651597355799640246735345983491,11155.2,1.5651597355799640246735345983491
168,11290.7663625257680090325127185192686,11289.2,1.5663625257680090325127185192686
169,11425.5675581803373069919631656340605,11424.0,1.5675581803373069919631656340605
170,11561.1687467836318145743155297651057,11559.6,1.5687467836318145743155297651057
171,11697.5699284185109500818776721746110,11696.0,1.5699284185109500818776721746110
172,11834.7711031663842715610265523585102,11833.2,1.5711031663842715610265523585102
173,11972.7722711072451481138249960554332,11971.2,1.5722711072451481138249960554332
174,12111.5734323197034602537094914158094,12110.0,1.5734323197034602537094914158094
175,12251.1745868810173632922211318171845,12249.6,1.5745868810173632922211318171845
176,12391.5757348671241434652220619004109,12390.0,1.5757348671241434652220619004109
177,12532.7768763526702000612745829968960,12531.2,1.5768763526702000612745829968960
178,12674.7780114110401827087700653482656,12673.2,1.5780114110401827087700653482656
179,12817.5791401143853102689996570876013,12816.0,1.5791401143853102689996570876013
180,12961.1802625336509022838651029689587,12959.6,1.5802625336509022838651029689587
181,13105.5813787386031456291724737752111,13104.0,1.5813787386031456291724737752111
182,13250.7824887978551240713073312861536,13249.2,1.5824887978551240713073312861536
183,13396.7835927788921337790400208305842,13395.2,1.5835927788921337790400208305842
184,13543.5846907480963090345310628048572,13542.0,1.5846907480963090345310628048572
185,13691.1857827707705799542586267329291,13689.6,1.5857827707705799542586267329291
186,13839.5868689111619831911455113632582,13838.0,1.5868689111619831911455113632582
187,13988.7879492324843494211151669070860,13987.2,1.5879492324843494211151669070860
188,14138.7890237969403830531848319473543,14137.2,1.5890237969403830531848319473543
189,14289.5900926657431578970487207994890,14288.0,1.5900926657431578970487207994890
190,14441.1911558991370444421652399084908,14439.6,1.5911558991370444421652399084908
191,14593.5922135564180879739070460199695,14592.0,1.5922135564180879739070460199695
192,14746.7932656959538539120605896218215,14745.2,1.5932656959538539120605896218215
193,14900.7943123752027586786842935072766,14899.2,1.5943123752027586786842935072766
194,15055.5953536507328994393492064834023,15054.0,1.5953536507328994393492064834023
195,15211.1963895782404006534431087545750,15209.6,1.5963895782404006534431087545750
196,15367.5974202125672911288459280261929,15366.0,1.5974202125672911288459280261929
197,15524.7984456077189259597925352770967,15523.2,1.5984456077189259597925352770967
198,15682.7994658168809675134838075293396,15681.2,1.5994658168809675134838075293396
199,15841.6004808924359383029798632559476,15840.0,1.6004808924359383029798632559476
200,16001.2014908859793596903425381334159,15999.6,1.6014908859793596903425381334159
201,16161.6024958483354874003146486904650,16160.0,1.6024958483354874003146486904650
202,16322.8034958295726572246593139162453,16321.2,1.6034958295726572246593139162453
203,16484.8044908790182515759479805526302,16483.2,1.6044908790182515759479805526302
204,16647.6054810452732985098829808506867,16646.0,1.6054810452732985098829808506867
205,16811.2064663762267131857910329750532,16809.6,1.6064663762267131857910329750532
206,16975.6074469190691947884311257413317,16974.0,1.6074469190691947884311257413317
207,17140.8084227203067847862975775623884,17139.2,1.6084227203067847862975775623884
208,17306.8093938257741007525024340620177,17305.2,1.6093938257741007525024340620177
209,17473.6103602806472514958680228513488,17472.0,1.6103602806472514958680228513488
210,17641.2113221294564450027552348007186,17639.6,1.6113221294564450027552348007186
211,17809.6122794160982965536460639704720,17808.0,1.6122794160982965536460639704720
212,17978.8132321838478472467960216380066,17977.2,1.6132321838478472467960216380066
213,18148.8141804753702973121805943258167,18147.2,1.6141804753702973121805943258167
214,18319.6151243327324691968931043132462,18318.0,1.6151243327324691968931043132462
215,18491.2160637974139996338451366217884,18489.6,1.6160637974139996338451366217884
216,18663.6169989103182746539973433562845,18662.0,1.6169989103182746539973433562845
217,18836.8179297117831115070870170581092,18835.2,1.6179297117831115070870170581092
218,19010.8188562415911964693907310660754,19009.2,1.6188562415911964693907310660754
219,19185.6197785389802818177138224668542,19184.0,1.6197785389802818177138224668542
220,19361.2206966426531544841562887202065,19359.6,1.6206966426531544841562887202065
221,19537.6216105907873743005504661621639,19536.0,1.6216105907873743005504661621639
222,19714.8225204210447990367176110416643,19713.2,1.6225204210447990367176110416643
223,19892.8234261705808898003484697963251,19891.2,1.6234261705808898003484697963251
224,20071.6243278760538118649705617417682,20070.0,1.6243278760538118649705617417682
225,20251.2252255736333334899132229006317,20249.6,1.6252255736333334899132229006317
226,20431.6261192990095262777810893162189,20430.0,1.6261192990095262777810893162189
227,20612.8270090874012757200675473503739,20611.2,1.6270090874012757200675473503739
228,20794.8278949735646037491134448378104,20793.2,1.6278949735646037491134448378104
229,20977.6287769918008104567855014175698,20976.0,1.6287769918008104567855014175698
230,21161.2296551759644396745736784074466,21159.6,1.6296551759644396745736784074466
231,21345.6305295594710702130786848673558,21344.0,1.6305295594710702130786848673558
232,21530.8314001753049431787581683625479,21529.2,1.6314001753049431787581683625479
233,21716.8322670560264203626361682786567,21715.2,1.6322670560264203626361682786567
234,21903.6331302337792898565188069864162,21902.0,1.6331302337792898565188069864162
235,22091.2339897402979120775537615614888,22089.6,1.6339897402979120775537615614888
236,22279.6348456069142159099330910986341,22278.0,1.6348456069142159099330910986341
237,22468.8356978645645485941839955485359,22467.2,1.6356978645645485941839955485359
238,22658.8365465437963811056807507609848,22657.2,1.6365465437963811056807507609848
