Eigenstate,Energy,Kinetic Energy,Potential Energy
1,0.500000000216925927601419281978415589,0.0,0.500000000216925927601419281978415589
2,1.84623093906710468482103238580509506,1.2,0.64623093906710468482103238580509506
3,3.93633761386438064644447824274431296,3.2,0.73633761386438064644447824274431296
4,6.79966528647794291745071638781696799,6.0,0.79966528647794291745071638781696799
5,10.4480465902932998606706387696641562,9.6,0.8480465902932998606706387696641562
6,14.8870660200937809936968317378737504,14.0,0.8870660200937809936968317378737504
7,20.1197208573311558794365782460622778,19.2,0.9197208573311558794365782460622778
8,26.1477838883897188589703614182807613,25.2,0.9477838883897188589703614182807613
9,32.9723836122802164001522055658353441,32.0,0.9723836122802164001522055658353441
10,40.5942802831542479205674982585790669,39.6,0.9942802831542479205674982585790669
11,49.0140094711551189557676218182981456,48.0,1.0140094711551189557676218182981456
12,58.2319622715893112215750308745264255,57.2,1.0319622715893112215750308745264255
13,68.2484328145242586951094932680830196,67.2,1.0484328145242586951094932680830196
14,79.0636477976446152382241655546477337,78.0,1.0636477976446152382241655546477337
15,90.6777856020665035282727800230529695,89.6,1.0777856020665035282727800230529695
16,103.090989097208000462184802977138955,102.0,1.090989097208000462184802977138955
17,116.303374474250667873287879868735713,115.2,1.103374474250667873287879868735713
18,130.315037497145769816357539438849166,129.2,1.115037497145769816357539438849166
19,145.126058025718262572603123711462667,144.0,1.126058025718262572603123711462667
20,160.736503353300739919714807007413598,159.6,1.136503353300739919714807007413598
21,177.146430712815136744308274988266980,176.0,1.146430712815136744308274988266980
22,194.355889187931473964027560053630423,193.2,1.155889187931473964027560053630423
23,212.364921191004386818550860162796109,211.2,1.164921191004386818550860162796109
24,231.173563620473549842452178416130222,230.0,1.173563620473549842452178416130222
25,250.781848777659605475440626045959229,249.6,1.181848777659605475440626045959229
26,271.189805100571753594963153314764984,270.0,1.189805100571753594963153314764984
27,292.397457756870328809393866006093041,291.2,1.197457756870328809393866006093041
28,314.404829127225841509884809159822439,313.2,1.204829127225841509884809159822439
29,337.211939202520930835976809206501463,336.0,1.211939202520930835976809206501463
30,360.818805912692190125683748955381949,359.6,1.218805912692190125683748955381949
31,385.225445400862886909935027324739889,384.0,1.225445400862886909935027324739889
32,410.431872253339699918779535610774107,409.2,1.231872253339699918779535610774107
33,436.438099693736947756964947350428934,435.2,1.238099693736947756964947350428934
34,463.244139747741237636178607788919056,462.0,1.244139747741237636178607788919056
35,490.850003383690267482434478107463661,489.6,1.250003383690267482434478107463661
36,519.255700633106035856213209304793842,518.0,1.255700633106035856213209304793842
37,548.461240694518629572683970048052433,547.2,1.261240694518629572683970048052433
38,578.466632023286340164848725186272677,577.2,1.266632023286340164848725186272677
39,609.271882409620011681894210534772394,608.0,1.271882409620011681894210534772394
40,640.876999046623701530685391408961844,639.6,1.276999046623701530685391408961844
41,673.281988589846985793981957456975749,672.0,1.281988589846985793981957456975749
42,706.486857209589247856956953018532896,705.2,1.286857209589247856956953018532896
43,740.491610636989802828285947509975872,739.2,1.291610636989802828285947509975872
44,775.296254204769616226256370214164942,774.0,1.296254204769616226256370214164942
45,810.900792883352805831097866787215656,809.6,1.300792883352805831097866787215656
46,847.305231312982979321937942369306019,846.0,1.305231312982979321937942369306019
47,884.509573832355983704290942383967607,883.2,1.309573832355983704290942383967607
48,922.513824504213056169607064182481645,921.2,1.313824504213056169607064182481645
49,961.317987138273703484401768660302458,960.0,1.317987138273703484401768660302458
50,1000.92206531183351429274303377610082,999.6,1.32206531183351429274303377610082
51,1041.32606238830664175332782790116451,1040.0,1.32606238830664175332782790116451
52,1082.52998153395434871801802281565730,1081.2,1.32998153395434871801802281565730
53,1124.53382573300855754010951128138462,1123.2,1.33382573300855754010951128138462
54,1167.33759780137178546911004390091245,1166.0,1.33759780137178546911004390091245
55,1210.94130039905137109625413130229827,1209.6,1.34130039905137109625413130229827
56,1255.34493604146582274482901171625542,1254.0,1.34493604146582274482901171625542
57,1300.54850710974392073424184521428848,1299.2,1.34850710974392073424184521428848
58,1346.55201586012240826044790345518460,1345.2,1.35201586012240826044790345518460
59,1393.35546443253535168806579520387612,1392.0,1.35546443253535168806579520387612
60,1440.95885485847722654179068535949324,1439.6,1.35885485847722654179068535949324
61,1489.36218906821222125719919253534101,1488.0,1.36218906821222125719919253534101
62,1538.56546889739394974591711072919401,1537.2,1.36546889739394974591711072919401
63,1588.56869609315252194109170199150213,1587.2,1.36869609315252194109170199150213
64,1639.37187231969960900918188430320375,1638.0,1.37187231969960900918188430320375
65,1690.97499916349660507410218665576730,1689.6,1.37499916349660507410218665576730
66,1743.37807813802613996069681279630056,1742.0,1.37807813802613996069681279630056
67,1796.58111068820293517319182760885132,1795.2,1.38111068820293517319182760885132
68,1850.58409819445623916346186144211710,1849.2,1.38409819445623916346186144211710
69,1905.38704197651276527322051057385180,1904.0,1.38704197651276527322051057385180
70,1960.98994329690612746597544582178935,1959.6,1.38994329690612746597544582178935
71,2017.39280336423617026086137758777775,2016.0,1.39280336423617026086137758777775
72,2074.59562333619929103807990250835279,2073.2,1.39562333619929103807990250835279
73,2132.59840432240879987927578756699260,2131.2,1.39840432240879987927578756699260
74,2191.40114738702254325762392768644065,2190.0,1.40114738702254325762392768644065
75,2251.00385355119338679130154902601837,2249.6,1.40385355119338679130154902601837
76,2311.40652379535670271726386985762441,2310.0,1.40652379535670271726386985762441
77,2372.60915906136770534382716816399894,2371.2,1.40915906136770534382716816399894
78,2434.61176025450031194238317662946777,2433.2,1.41176025450031194238317662946777
79,2497.41432824531815971857915188113665,2496.0,1.41432824531815971857915188113665
80,2561.01686387142747137765478201697860,2559.6,1.41686387142747137765478201697860
81,2625.41936793912061245715434187985742,2624.0,1.41936793912061245715434187985742
82,2690.62184122491842214968016340513265,2689.2,1.42184122491842214968016340513265
83,2756.62428447701871060456711745981868,2755.2,1.42428447701871060456711745981868
84,2823.42669841665769140564455403278763,2822.0,1.42669841665769140564455403278763
85,2891.02908373939055864608140459643522,2889.6,1.42908373939055864608140459643522
86,2959.43144111629690215592353868730216,2958.0,1.43144111629690215592353868730216
87,3028.63377119511619696713685573290909,3027.2,1.43377119511619696713685573290909
88,3098.63607460131817972323650486122744,3097.2,1.43607460131817972323650486122744
89,3169.43835193911254123842469730084737,3168.0,1.43835193911254123842469730084737
90,3241.04060379240202119443416871021753,3239.6,1.44060379240202119443416871021753
91,3313.44283072568266951122795476356452,3312.0,1.44283072568266951122795476356452
92,3386.64503328489475063016960939311793,3385.2,1.44503328489475063016960939311793
93,3460.64721199822750469322767641774204,3459.2,1.44721199822750469322767641774204
94,3535.44936737688073667304355870250167,3534.0,1.44936737688073667304355870250167
95,3611.05149991578598335466735500212543,3609.6,1.45149991578598335466735500212543
96,3687.45361009428980624765378739306538,3686.0,1.45361009428980624765378739306538
97,3764.65569837680157416510642587065001,3763.2,1.45569837680157416510642587065001
98,3842.65776521340792633196600908617897,3841.2,1.45776521340792633196600908617897
99,3921.45981104045595341265711077794553,3920.0,1.45981104045595341265711077794553
100,4001.06183628110698750779325414618744,3999.6,1.46183628110698750779325414618744
101,4081.46384134586276286549341109542720,4080.0,1.46384134586276286549341109542720
102,4162.66582663306558347814525407487838,4161.2,1.46582663306558347814525407487838
103,4244.66779252937402582184256612098327,4243.2,1.46779252937402582184256612098327
104,4327.46973941021559773102151263326384,4326.0,1.46973941021559773102151263326384
105,4411.07166764021768132706530346738695,4409.6,1.47166764021768132706530346738695
106,4495.47357757361799715541147682860678,4494.0,1.47357757361799715541147682860678
107,4580.67546955465574860374492718770085,4579.2,1.47546955465574860374492718770085
108,4666.67734391794452643431086989849772,4665.2,1.47734391794452643431086989849772
109,4753.47920098882798466985516889816134,4752.0,1.47920098882798466985516889816134
110,4841.08104108371923665257837732043932,4839.6,1.48104108371923665257837732043932
111,4929.48286451042485423429860402137180,4928.0,1.48286451042485423429860402137180
112,5018.68467156845430362239146096485530,5017.2,1.48467156845430362239146096485530
113,5108.68646254931559587028595561316180,5107.2,1.48646254931559587028595561316180
114,5199.48823773679788124354737223134042,5198.0,1.48823773679788124354737223134042
115,5291.08999740724167624408093723863501,5289.6,1.48999740724167624408093723863501
116,5383.49174182979736374334897531821902,5382.0,1.49174182979736374334897531821902
117,5476.69347126667257496249455929972253,5475.2,1.49347126667257496249455929972253
118,5570.69518597336902100616614508252310,5569.2,1.49518597336902100616614508252310
119,5665.49688619890930794312821439269619,5664.0,1.49688619890930794312821439269619
120,5761.09857218605424358451618388093984,5759.6,1.49857218605424358451618388093984
121,5857.50024417151110584335627075119199,5856.0,1.50024417151110584335627075119199
122,5954.70190238613332364584640330301019,5953.2,1.50190238613332364584640330301019
123,6052.70354705511198917197013459994797,6051.2,1.50354705511198917197013459994797
124,6151.50517839815960252321455004285255,6150.0,1.50517839815960252321455004285255
125,6251.10679662968642034890859253301247,6249.6,1.50679662968642034890859253301247
126,6351.50840195896976476540933488656890,6350.0,1.50840195896976476540933488656890
127,6452.70999459031662832448486099272094,6451.2,1.50999459031662832448486099272094
128,6554.71157472321988820006267140398140,6553.2,1.51157472321988820006267140398140
129,6657.51314255250843068928196982638465,6656.0,1.51314255250843068928196982638465
130,6761.11469826849146874193112475165321,6759.6,1.51469826849146874193112475165321
131,6865.51624205709731982824206669720091,6864.0,1.51624205709731982824206669720091
132,6970.71777410000689647782405017922597,6969.2,1.51777410000689647782405017922597
133,7076.71929457478215004094057475969257,7075.2,1.51929457478215004094057475969257
134,7183.52080365498969694739025155642783,7182.0,1.52080365498969694739025155642783
135,7291.12230151031983862991531542063608,7289.6,1.52230151031983862991531542063608
136,7399.52378830670118259154367572362559,7398.0,1.52378830670118259154367572362559
137,7508.72526420641105878833798384930515,7507.2,1.52526420641105878833798384930515
138,7618.72672936818191188704302646291854,7617.2,1.52672936818191188704302646291854
139,7729.52818394730384785123098983675426,7728.0,1.52818394730384785123098983675426
140,7841.12962809572349786358634878072180,7839.6,1.52962809572349786358634878072180
141,7953.53106196213935803449192582271920,7952.0,1.53106196213935803449192582271920
142,8066.73248569209375527382529863964269,8065.2,1.53248569209375527382529863964269
143,8180.73389942806158105271638503683491,8179.2,1.53389942806158105271638503683491
144,8295.53530330953592760239220780368485,8294.0,1.53530330953592760239220780368485
145,8411.13669747311075690948756074740637,8409.6,1.53669747311075690948756074740637
146,8527.53808205256072499846568333606141,8526.0,1.53808205256072499846568333606141
147,8644.73945717891827578883636220157832,8643.2,1.53945717891827578883636220157832
148,8762.74082298054811985684111673462900,8761.2,1.54082298054811985684111673462900
149,8881.54217958321919990321564541184411,8880.0,1.54217958321919990321564541184411
150,9001.14352711017424656857363338129626,8999.6,1.54352711017424656857363338129626
151,9121.54486568219702051135104975553752,9120.0,1.54486568219702051135104975553752
152,9242.74619541767733104817618089776381,9241.2,1.54619541767733104817618089776381
153,9364.74751643267392030707203245055763,9363.2,1.54751643267392030707203245055763
154,9487.54882884097529679345985266084378,9486.0,1.54882884097529679345985266084378
155,9611.15013275415859660569919351899028,9609.6,1.55013275415859660569919351899028
156,9735.55142828164655016728703247316635,9734.0,1.55142828164655016728703247316635
157,9860.75271553076262552309252309540436,9859.2,1.55271553076262552309252309540436
158,9986.75399460678442001852250674677562,9985.2,1.55399460678442001852250674677562
159,10113.5552656129953640352577166094240,10112.0,1.5552656129953640352577166094240
160,10241.1565286507348031219266120932524,10239.6,1.5565286507348031219266120932524
161,10369.5577838194465170166798456452455,10368.0,1.5577838194465170166798456452455
162,10498.7590312167257350236289299447958,10497.2,1.5590312167257350236289299447958
163,10628.7602709383647025973293271818547,10627.2,1.5602709383647025973293271818547
164,10759.5615030783968537728041295896678,10758.0,1.5615030783968537728041295896678
165,10891.1627277291396380422480352190925,10889.6,1.5627277291396380422480352190925
166,11023.5639449812360521949402557907726,11022.0,1.5639449812360521949402557907726
167,11156.7651549236949243536489322291552,11155.2,1.5651549236949243536489322291552
168,11290.7663576439299928974267920785630,11289.2,1.5663576439299928974267920785630
169,11425.5675532277978253338926779294045,11424.0,1.5675532277978253338926779294045
170,11561.1687417596346168651460257680215,11559.6,1.5687417596346168651460257680215
171,11697.5699233222919088428265309370422,11696.0,1.5699233222919088428265309370422
172,11834.7710979971712649800534205763861,11833.2,1.5710979971712649800534205763861
173,11972.7722658642579407236759832653592,11971.2,1.5722658642579407236759832653592
174,12111.5734270021535816314757634241445,12110.0,1.5734270021535816314757634241445
175,12251.1745814881079847404036016208173,12249.6,1.5745814881079847404036016208173
176,12391.5757293980499526333833277758492,12390.0,1.5757293980499526333833277758492
177,12532.7768708066172734664230989615318,12531.2,1.5768708066172734664230989615318
178,12674.7780057871858561116634040252421,12673.2,1.5780057871858561116634040252421
179,12817.5791344118980468625675853768814,12816.0,1.5791344118980468625675853768814
180,12961.1802567516901586489441810779605,12959.6,1.5802567516901586489441810779605
181,13105.5813728763192354117046709553896,13104.0,1.5813728763192354117046709553896
182,13250.7824828543890793340931115019009,13249.2,1.5824828543890793340931115019009
183,13396.7835867533755639800416044298801,13395.2,1.5835867533755639800416044298801
184,13543.5846846396512575826006904139307,13542.0,1.5846846396512575826006904139307
185,13691.1857765785093782920143755187839,13689.6,1.5857765785093782920143755187839
186,13839.5868626341871023535356416063091,13838.0,1.5868626341871023535356416063091
187,13988.7879428698882490169971669513470,13987.2,1.5879428698882490169971669513470
188,14138.7890173478053576159978639451437,14137.2,1.5890173478053576159978639451437
189,14289.5900861291411805493796936247274,14288.0,1.5900861291411805493796936247274
190,14441.1911492741296078176912244851081,14439.6,1.5911492741296078176912244851081
191,14593.5922068420560423388471202139907,14592.0,1.5922068420560423388471202139907
192,14746.7932588912772424268831486568146,14745.2,1.5932588912772424268831486568146
193,14900.7943054792406497393895095653927,14899.2,1.5943054792406497393895095653927
194,15055.5953466625032160361819363914878,15054.0,1.5953466625032160361819363914878
195,15211.1963824967497466833875502673445,15209.6,1.5963824967497466833875502673445
196,15367.5974130368107745967060008593334,15366.0,1.5974130368107745967060008593334
197,15524.7984383366799790010742852753103,15523.2,1.5984383366799790010742852753103
198,15682.7994584495311631706622673729949,15681.2,1.5994584495311631706622673729949
199,15841.6004734277348039850547312057530,15840.0,1.6004734277348039850547312057530
200,16001.2014833228741872438617139216801,15999.6,1.6014833228741872438617139216801
201,16161.6024881857611397182717763783323,16160.0,1.6024881857611397182717763783323
202,16322.8034880664513713178468730562392,16321.2,1.6034880664513713178468730562392
203,16484.8044830142594380294742966746699,16483.2,1.6044830142594380294742966746699
204,16647.6054730777733372456322239387789,16646.0,1.6054730777733372456322239387789
205,16811.2064583048687454496254971625886,16809.6,1.6064583048687454496254971625886
206,16975.6074387427229112788936052455952,16974.0,1.6074387427229112788936052455952
207,17140.8084144378282098394763727073032,17139.2,1.6084144378282098394763727073032
208,17306.8093854360053724955651961596064,17305.2,1.6093854360053724955651961596064
209,17473.6103517824163978795502550480798,17472.0,1.6103517824163978795502550480798
210,17641.2113135215771556208080908086665,17639.6,1.6113135215771556208080908086665
211,17809.6122706973696901548981958714260,17808.0,1.6122706973696901548981958714260
212,17978.8132233530542348430688257720325,17977.2,1.6132233530542348430688257720325
213,18148.8141715312809407828072007033092,18147.2,1.6141715312809407828072007033092
214,18319.6151152741013352880335522381026,18318.0,1.6151152741013352880335522381026
215,18491.2160546229795092481550863261197,18489.6,1.6160546229795092481550863261197
216,18663.6169896188030473234940806741298,18662.0,1.6169896188030473234940806741298
217,18836.8179203018937049392662068177839,18835.2,1.6179203018937049392662068177839
218,19010.8188467120178410537720391025457,19009.2,1.6188467120178410537720391025457
219,19185.6197688883966099770329970826316,19184.0,1.6197688883966099770329970826316
220,19361.2206868697159247513735133175345,19359.6,1.6206868697159247513735133175345
221,19537.6216006941361899997050463631191,19536.0,1.6216006941361899997050463631191
222,19714.8225103993018214424264563472030,19713.2,1.6225103993018214424264563472030
223,19892.8234160223505456474134357188426,19891.2,1.6234160223505456474134357188426
224,20071.6243175999224950761298366444565,20070.0,1.6243175999224950761298366444565
225,20251.2252151681691009862355163536057,20249.6,1.6252151681691009862355163536057
226,20431.6261087627617877325583870000261,20430.0,1.6261087627617877325583870000261
227,20612.8269984189004771133086184134923,20611.2,1.6269984189004771133086184134923
228,20794.8278841713219045758717442887764,20793.2,1.6278841713219045758717442887764
229,20977.6287660543077544385642953511142,20976.0,1.6287660543077544385642953511142
230,21161.2296441016926188189439899666901,21159.6,1.6296441016926188189439899666901
231,21345.6305183468717820624049677936958,21344.0,1.6305183468717820624049677936958
232,21530.8313888228088410845559740391782,21529.2,1.6313888228088410845559740391782
233,21716.8322555620431566175843828910306,21715.2,1.6322555620431566175843828910306
234,21903.6331185966971515114953658229283,21902.0,1.6331185966971515114953658229283
235,22091.2339779584834492662765578399740,22089.6,1.6339779584834492662765578399740
236,22279.6348336787118624988394146002839,22278.0,1.6348336787118624988394146002839
237,22468.8356857882962349700856567940537,22467.2,1.6356857882962349700856567940537
238,22658.8365343177611389084656204143004,22657.2,1.6365343177611389084656204143004
