Eigenstate,Energy,Kinetic Energy,Potential Energy
1,0.500000000876625530487387230103719327,0.0,0.500000000876625530487387230103719327
2,1.84623094337342038041121109229318835,1.2,0.64623094337342038041121109229318835
3,3.93633762651447629691713587960258523,3.2,0.73633762651447629691713587960258523
4,6.79966531282847641034990835451441081,6.0,0.79966531282847641034990835451441081
5,10.4480466359418530293671267327498492,9.6,0.8480466359418530293671267327498492
6,14.8870660907384606277443287345214143,14.0,0.8870660907384606277443287345214143
7,20.1197209587192810151622427905291713,19.2,0.9197209587192810151622427905291713
8,26.1477840262968078830505523219940775,25.2,0.9477840262968078830505523219940775
9,32.9723837925005718755944610116117275,32.0,0.9723837925005718755944610116117275
10,40.5942805114965065589203173695772004,39.6,0.9942805114965065589203173695772004
11,49.0140097534401400251877537623331606,48.0,1.0140097534401400251877537623331606
12,58.2319626136492576866560134967333993,57.2,1.0319626136492576866560134967333993
13,68.2484332222023288126190226846851397,67.2,1.0484332222023288126190226846851397
14,79.0636482767951496453698086779867355,78.0,1.0636482767951496453698086779867355
15,90.6777861585553200360572156732825621,89.6,1.0777861585553200360572156732825621
16,103.090989736912873080490742664613963,102.0,1.090989736912873080490742664613963
17,116.303375203061900874335298667906127,115.2,1.103375203061900874335298667906127
18,130.315038320966836767622857657877446,129.2,1.115038320966836767622857657877446
19,145.126058950466491373836343538158502,144.0,1.126058950466491373836343538158502
20,160.736504384908031555912268873078051,159.6,1.136504384908031555912268873078051
21,177.146431857228709609052987747286407,176.0,1.146431857228709609052987747286407
22,194.355890451114628250209842908105940,193.2,1.155890451114628250209842908105940
23,212.364922578937285201962031536263647,211.2,1.164922578937285201962031536263647
24,231.173565139154011840206994770497369,230.0,1.173565139154011840206994770497369
25,250.781850433103913651060767613340212,249.6,1.181850433103913651060767613340212
26,271.189806898815470331755457588154217,270.0,1.189806898815470331755457588154217
27,292.397459703969122763210847318596042,291.2,1.197459703969122763210847318596042
28,314.404831229256323132767198595076535,313.2,1.204831229256323132767198595076535
29,337.211941465581496567210535413919511,336.0,1.211941465581496567210535413919511
30,360.818808342903874998934320614282884,359.6,1.218808342903874998934320614282884
31,385.225448004370225439611127567280440,384.0,1.225448004370225439611127567280440
32,410.431875036311595216138442988237975,409.2,1.231875036311595216138442988237975
33,436.438102662367548894056828835941299,435.2,1.238102662367548894056828835941299
34,463.244142908250825328738106769384370,462.0,1.244142908250825328738106769384370
35,490.850006742326148204998792653852955,489.6,1.250006742326148204998792653852955
36,519.255704196143444536779777278358671,518.0,1.255704196143444536779777278358671
37,548.461244468261641042104414478210804,547.2,1.261244468261641042104414478210804
38,578.466636014068789559353358178201475,577.2,1.266636014068789559353358178201475
39,609.271886623806424016755055200933104,608.0,1.271886623806424016755055200933104
40,640.877003490610230679881864600294590,639.6,1.277003490610230679881864600294590
41,673.281993270062363125462666664812040,672.0,1.281993270062363125462666664812040
42,706.486862132495740786179076010609411,705.2,1.286862132495740786179076010609411
43,740.491615809084183564534228630695085,739.2,1.291615809084183564534228630695085
44,775.296259632584140997089370941272336,774.0,1.296259632584140997089370941272336
45,810.900798573456204880368564174637618,809.6,1.300798573456204880368564174637618
46,847.305237271981457986374879002095060,846.0,1.305237271981457986374879002095060
47,884.509580066894234882744646366848879,883.2,1.309580066894234882744646366848879
48,922.513831020975284507887718799485765,921.2,1.313831020975284507887718799485765
49,961.317993943984661607248309442977768,960.0,1.317993943984661607248309442977768
50,1000.92207241325955142295095396946941,999.6,1.32207241325955142295095396946941
51,1041.32606979225676506648863650555413,1040.0,1.32606979225676506648863650555413
52,1082.52998924728129778973743706351748,1081.2,1.32998924728129778973743706351748
53,1124.53383376260989225102256124583329,1123.2,1.33383376260989225102256124583329
54,1167.33760615419098774153699045334384,1166.0,1.33760615419098774153699045334384
55,1210.94130908207896084497338822414659,1209.6,1.34130908207896084497338822414659
56,1255.34494506174048843321146355453257,1254.0,1.34494506174048843321146355453257
57,1300.54851647435366493592078457169534,1299.2,1.34851647435366493592078457169534
58,1346.55202557620570863581534851825489,1345.2,1.35202557620570863581534851825489
59,1393.35547450728233779420278873215328,1392.0,1.35547450728233779420278873215328
60,1440.95886529913087290398236895065513,1439.6,1.35886529913087290398236895065513
61,1489.36219988206955713997010466336453,1488.0,1.36219988206955713997010466336453
62,1538.56548009180728607156380687775508,1537.2,1.36548009180728607156380687775508
63,1588.56870767553069581400285930614370,1587.2,1.36870767553069581400285930614370
64,1639.37188429750924631483866690789329,1638.0,1.37188429750924631483866690789329
65,1690.97501154426340163255919614220540,1689.6,1.37501154426340163255919614220540
66,1743.37809092933616172556419065107806,1742.0,1.37809092933616172556419065107806
67,1796.58112389770393797869286897695657,1795.2,1.38112389770393797869286897695657
68,1850.58411182985900853404001428833477,1849.2,1.38411182985900853404001428833477
69,1905.38705604559247682242911377514469,1904.0,1.38705604559247682242911377514469
70,1960.98995780750372842401163741277707,1959.6,1.38995780750372842401163741277707
71,2017.39281832425978268313112285721874,2016.0,1.39281832425978268313112285721874
72,2074.59563875362563726059781144148314,2073.2,1.39563875362563726059781144148314
73,2132.59842020528465080054911211832650,2131.2,1.39842020528465080054911211832650
74,2191.40116374346619004093915620628823,2190.0,1.40116374346619004093915620628823
75,2251.00387038939613659605738752506016,2249.6,1.40387038939613659605738752506016
76,2311.40654112358439908317714780592617,2310.0,1.40654112358439908317714780592617
77,2372.60917688796227386750897586541129,2371.2,1.40917688796227386750897586541129
78,2434.61177858788133190194776025305176,2433.2,1.41177858788133190194776025305176
79,2497.41434709398446231863104400294604,2496.0,1.41434709398446231863104400294604
80,2561.01688324395876530421401763377834,2559.6,1.41688324395876530421401763377834
81,2625.41938784417913744985356283388360,2624.0,1.41938784417913744985356283388360
82,2690.62186167125063131690628434723967,2689.2,1.42186167125063131690628434723967
83,2756.62430547345698222616006907838404,2755.2,1.42430547345698222616006907838404
84,2823.42671997212207098731178484753990,2822.0,1.42671997212207098731178484753990
85,2891.02910586289053200987798260769471,2889.6,1.42910586289053200987798260769471
86,2959.43146381693320037198727303013850,2958.0,1.43146381693320037198727303013850
87,3028.63379448208263395340152490668867,3027.2,1.43379448208263395340152490668867
88,3098.63609848390352336207622478531122,3097.2,1.43609848390352336207622478531122
89,3169.43837642670241888215061285522628,3168.0,1.43837642670241888215061285522628
90,3241.04062889448086045529089281558092,3239.6,1.44062889448086045529089281558092
91,3313.44285645183567525604565498175677,3312.0,1.44285645183567525604565498175677
92,3386.64505964480991912516001394260492,3385.2,1.44505964480991912516001394260492
93,3460.64723900169767587057669941437809,3459.2,1.44723900169767587057669941437809
94,3535.44939503380568551800455483231902,3534.0,1.44939503380568551800455483231902
95,3611.05152823617455143981378038264632,3609.6,1.45152823617455143981378038264632
96,3687.45363908826207446984299194477660,3686.0,1.45363908826207446984299194477660
97,3764.65572805459107777058507828063040,3763.2,1.45572805459107777058507828063040
98,3842.65779558536391334592688499407428,3841.2,1.45779558536391334592688499407428
99,3921.45984211704568762150050028466625,3920.0,1.45984211704568762150050028466625
100,4001.06186807291809717536986674132422,3999.6,1.46186807291809717536986674132422
101,4081.46387386360563639876726355067712,4080.0,1.46387386360563639876726355067712
102,4162.66585988757581329304941263906812,4161.2,1.46585988757581329304941263906812
103,4244.66782653161490169665385711372325,4243.2,1.46782653161490169665385711372325
104,4327.46977417128065097240502449310637,4326.0,1.46977417128065097240502449310637
105,4411.07170317133328111307264734946282,4409.6,1.47170317133328111307264734946282
106,4495.47361388614600046022244539225273,4494.0,1.47361388614600046022244539225273
107,4580.67550666009620515086337114438294,4579.2,1.47550666009620515086337114438294
108,4666.67738182793844016832369658403953,4665.2,1.47738182793844016832369658403953
109,4753.47923971516013328179548636419620,4752.0,1.47923971516013328179548636419620
110,4841.08108063832105074045745567586194,4839.6,1.48108063832105074045745567586194
111,4929.48290490537735772855220237263256,4928.0,1.48290490537735772855220237263256
112,5018.68471281599111715588961630950490,5017.2,1.48471281599111715588961630950490
113,5108.68650466182600482425102478711921,5107.2,1.48650466182600482425102478711921
114,5199.48828072682997025428195215556766,5198.0,1.48828072682997025428195215556766
115,5291.09004128750553201090997578007813,5289.6,1.49004128750553201090997578007813
116,5383.49178661316834803568912756350561,5382.0,1.49178661316834803568912756350561
117,5476.69351696619466978358184913404276,5475.2,1.49351696619466978358184913404276
118,5570.69523260225824793277572993061380,5569.2,1.49523260225824793277572993061380
119,5665.49693377055722372469339045911696,5664.0,1.49693377055722372469339045911696
120,5761.09862071403151415150119832584699,5759.6,1.49862071403151415150119832584699
121,5857.50029366957116094365500563643776,5856.0,1.50029366957116094365500563643776
122,5954.70195286821609439946388805131405,5953.2,1.50195286821609439946388805131405
123,6052.70359853534773090841210709721184,6051.2,1.50359853534773090841210709721184
124,6151.50523089087280534296416514531464,6150.0,1.50523089087280534296416514531464
125,6251.10685014939980993024988793203224,6249.6,1.50685014939980993024988793203224
126,6351.50845652040839602075351840433039,6350.0,1.50845652040839602075351840433039
127,6452.71005020841207459642833741707113,6451.2,1.51005020841207459642833741707113
128,6554.71163141311452877678231095485891,6553.2,1.51163141311452877678231095485891
129,6657.51320032955983951168032469374422,6656.0,1.51320032955983951168032469374422
130,6761.11475714827690727136196666857694,6759.6,1.51475714827690727136196666857694
131,6865.51630205541833714380096134013406,6864.0,1.51630205541833714380096134013406
132,6970.71783523289403977626977576838482,6969.2,1.51783523289403977626977576838482
133,7076.71935685849978882046637028818857,7075.2,1.51935685849978882046637028818857
134,7183.52086710604096426891073476199327,7182.0,1.52086710604096426891073476199327
135,7291.12236614545169296641774773212445,7289.6,1.52236614545169296641774773212445
136,7399.52385414290959389760259697608885,7398.0,1.52385414290959389760259697608885
137,7508.72533126094632254832219896955847,7507.2,1.52533126094632254832219896955847
138,7618.72679765855409503204993078873120,7617.2,1.52679765855409503204993078873120
139,7729.52825349128837057161151837315352,7728.0,1.52825349128837057161151837315352
140,7841.12969891136685548633132267081272,7839.6,1.52969891136685548633132267081272
141,7953.53113406776498728295881397268729,7952.0,1.53113406776498728295881397268729
142,8066.73255910630804938159804440580068,8065.2,1.53255910630804938159804440580068
143,8180.73397416976005836406958334766327,8179.2,1.53397416976005836406958334766327
144,8295.53537939790955845918657439682466,8294.0,1.53537939790955845918657439682466
145,8411.13677492765245379864968034020570,8409.6,1.53677492765245379864968034020570
146,8527.53816089307200111586970440186819,8526.0,1.53816089307200111586970440186819
147,8644.73953742551607736470373424900730,8643.2,1.53953742551607736470373424900730
148,8762.74090465367183778511746854227709,8761.2,1.54090465367183778511746854227709
149,8881.54226270363786642314061979563440,8880.0,1.54226270363786642314061979563440
150,9001.14361169899392296121560567394820,8999.6,1.54361169899392296121560567394820
151,9121.54495176086838199771531925471863,9120.0,1.54495176086838199771531925471863
152,9242.74628300800345530899265231408195,9241.2,1.54628300800345530899265231408195
153,9364.74760555681828628806985553055609,9363.2,1.54760555681828628806985553055609
154,9487.54891952147000071429723486675647,9486.0,1.54891952147000071429723486675647
155,9611.15022501391279235629106792503090,9609.6,1.55022501391279235629106792503090
156,9735.55152214395512155262614747625536,9734.0,1.55152214395512155262614747625536
157,9860.75281101931509810733001933620325,9859.2,1.55281101931509810733001933620325
158,9986.75409174567412062179055019732652,9985.2,1.55409174567412062179055019732652
159,10113.5553644267288362530062037451197,10112.0,1.5553644267288362530062037451197
160,10241.1566291642414875672227421319374,10239.6,1.5566291642414875672227421319374
161,10369.5578860580887053316545415985270,10368.0,1.5578860580887053316545415985270
162,10498.7591352063088070678430333857171,10497.2,1.5591352063088070678430333857171
163,10628.7603767051476565990976351726889,10627.2,1.5603767051476565990976351726889
164,10759.5616106491031396253505663808261,10758.0,1.5616106491031396253505663808261
165,10891.1628371309683043408611239791259,10889.6,1.5628371309683043408611239791259
166,11023.5640562418732180450503563139378,11022.0,1.5640562418732180450503563139378
167,11156.7652680713255874340078813946981,11155.2,1.5652680713255874340078813946981
168,11290.7664727072501857384047104103692,11289.2,1.5664727072501857384047104103692
169,11425.5676702360271322694994520417023,11424.0,1.5676702360271322694994520417023
170,11561.1688607425290646399824571540803,11559.6,1.5688607425290646399824571540803
171,11697.5700443101572444030558035501143,11696.0,1.5700443101572444030558035501143
172,11834.7712210208766345520595463734429,11833.2,1.5712210208766345520595463734429
173,11972.7723909552499848868364845515919,11971.2,1.5723909552499848868364845515919
174,12111.5735541924709617239553205159392,12110.0,1.5735541924709617239553205159392
175,12251.1747108103963566007747294127160,12249.6,1.5747108103963566007747294127160
176,12391.5758608855774043779439761177237,12390.0,1.5758608855774043779439761177237
177,12532.7770044932902447342011870614103,12531.2,1.5770044932902447342011870614103
178,12674.7781417075655569782863653087844,12673.2,1.5781417075655569782863653087844
179,12817.5792726012173954325419185065993,12816.0,1.5792726012173954325419185065993
180,12961.1803972458712571857356376572987,12959.6,1.5803972458712571857356376572987
181,13105.5815157119914057587044649303620,13104.0,1.5815157119914057587044649303620
182,13250.7826280689074793197283142529676,13249.2,1.5826280689074793197283142529676
183,13396.7837343848404074896396649678531,13395.2,1.5837343848404074896396649678531
184,13543.5848347269276620210835172136593,13542.0,1.5848347269276620210835172136593
185,13691.1859291612478642582222617404385,13689.6,1.5859291612478642582222617404385
186,13839.5870177528447715022514020391918,13838.0,1.5870177528447715022514020391918
187,13988.7881005657506673021705499041174,13987.2,1.5881005657506673021705499041174
188,14138.7891776630091723919890800198768,14137.2,1.5891776630091723919890800198768
189,14289.5902491066975013603803386249750,14288.0,1.5902491066975013603803386249750
190,14441.1913149579481821331164421266528,14439.6,1.5913149579481821331164421266528
191,14593.5923752769702589991110233436322,14592.0,1.5923752769702589991110233436322
192,14746.7934301230699971545195423589036,14745.2,1.5934301230699971545195423589036
193,14900.7944795546711087502933936691261,14899.2,1.5944795546711087502933936691261
194,15055.5955236293345155604975493436227,15054.0,1.5955236293345155604975493436227
195,15211.1965624037776680813766322493026,15209.6,1.5965624037776680813766322493026
196,15367.5975959338934367383751493864419,15366.0,1.5975959338934367383751493864419
197,15524.7986242747685916763741548763870,15523.2,1.5986242747685916763741548763870
198,15682.7996474807018875173001952985466,15681.2,1.5996474807018875173001952985466
199,15841.6006656052217682714556099942761,15840.0,1.6006656052217682714556099942761
200,16001.2016787011037088342568163915379,15999.6,1.6016787011037088342568163915379
201,16161.6026868203872066846749471057066,16160.0,1.6026868203872066846749471057066
202,16322.8036900143924399598356004855051,16321.2,1.6036900143924399598356004855051
203,16484.8046883337366055280260433840411,16483.2,1.6046883337366055280260433840411
204,16647.6056818283499518235194738991611,16646.0,1.6056818283499518235194738991611
205,16811.2066705474915197504952280002810,16809.6,1.6066705474915197504952280002810
206,16975.6076545397646082237868364045827,16974.0,1.6076545397646082237868364045827
207,17140.8086338531319739877453094327468,17139.2,1.6086338531319739877453094327468
208,17306.8096085349307839426832365214209,17305.2,1.6096085349307839426832365214209
209,17473.6105786318873299842612153775324,17472.0,1.6105786318873299842612153775324
210,17641.2115441901315223867431104417467,17639.6,1.6115441901315223867431104417467
211,17809.6125052552111739172625265706838,17808.0,1.6125052552111739172625265706838
212,17978.8134618721060900505672727114149,17977.2,1.6134618721060900505672727114149
213,18148.8144140852419751422470919705611,18147.2,1.6144140852419751422470919705611
214,18319.6153619385041753790318148675757,18318.0,1.6153619385041753790318148675757
215,18491.2163054752512639456163794354701,18489.6,1.6163054752512639456163794354701
216,18663.6172447383284890157583485230624,18662.0,1.6172447383284890157583485230624
217,18836.8181797700810956322000062576630,18835.2,1.6181797700810956322000062576630
218,19010.8191106123675380408405950558567,19009.2,1.6191106123675380408405950558567
219,19185.6200373065725938705017979531551,19184.0,1.6200373065725938705017979531551
220,19361.2209598936204013518661768933042,19359.6,1.6209598936204013518661768933042
221,19537.6218784139874267754877010026023,19536.0,1.6218784139874267754877010026023
222,19714.8227929077153893452700228549510,19713.2,1.6227929077153893452700228549510
223,19892.8237034144241476624015916072322,19891.2,1.6237034144241476624015916072322
224,20071.6246099733245743468728208960838,20070.0,1.6246099733245743468728208960838
225,20251.2255126232314336387602887730946,20249.6,1.6255126232314336387602887730946
226,20431.6264114025762787104998461725541,20430.0,1.6264114025762787104998461725541
227,20612.8273063494203915106242064865096,20611.2,1.6273063494203915106242064865096
228,20794.8281975014677821949366876094814,20793.2,1.6281975014677821949366876094814
229,20977.6290848960782717030706642944461,20976.0,1.6290848960782717030706642944461
230,21161.2299685702806798333969212320405,21159.6,1.6299685702806798333969212320405
231,21345.6308485607861396437742800580110,21344.0,1.6308485607861396437742800580110
232,21530.8317249040015691186273973579210,21529.2,1.6317249040015691186273973579210
233,21716.8325976360433172463662423491786,21715.2,1.6325976360433172463662423491786
234,21903.6334667927510245862193642033382,21902.0,1.6334667927510245862193642033382
235,22091.2343324097017173653799120340398,22089.6,1.6343324097017173653799120340398
236,22279.6351945222241727910087153441221,22278.0,1.6351945222241727910087153441221
237,22468.8360531654135894969254070397656,22467.2,1.6360531654135894969254070397656
238,22658.8369083741465976882700652594694,22657.2,1.6369083741465976882700652594694
