Eigenstate,Energy,Kinetic Energy,Potential Energy
1,0.500000000111225756089877797787880496,0.0,0.500000000111225756089877797787880496
2,1.84623093837714075433231489077853315,1.2,0.64623093837714075433231489077853315
3,3.93633761183762944011696255727912646,3.2,0.73633761183762944011696255727912646
4,6.79966528225634361204986559307256772,6.0,0.79966528225634361204986559307256772
5,10.4480465829803876558020730785113724,9.6,0.8480465829803876558020730785113724
6,14.8870660087772507773883983767886119,14.0,0.8870660087772507773883983767886119
7,20.1197208410911522258385737720791920,19.2,0.9197208410911522258385737720791920
8,26.1477838663022714264287557242293760,25.2,0.9477838663022714264287557242293760
9,32.9723835834188172871211302187006530,32.0,0.9723835834188172871211302187006530
10,40.5942802465906337026724831497816356,39.6,0.9942802465906337026724831497816356
11,49.0140094259596782905555442609501125,48.0,1.0140094259596782905555442609501125
12,58.2319622168313016154776290174606843,57.2,1.0319622168313016154776290174606843
13,68.2484327492719193443955004690535554,67.2,1.0484327492719193443955004690535554
14,79.0636477209652200266537240618483655,78.0,1.0636477209652200266537240618483655
15,90.6777855130263778881910896897723087,89.6,1.0777855130263778881910896897723087
16,103.090988994872515501676715064497346,102.0,1.090988994872515501676715064497346
17,116.303374357684219679999071540686157,115.2,1.103374357684219679999071540686157
18,130.315037365411748784803697253290446,129.2,1.115037365411748784803697253290446
19,145.126057877879015823114142566328078,144.0,1.126057877879015823114142566328078
20,160.736503188417528807673278150177810,159.6,1.136503188417528807673278150177810
21,177.146430529948090794961865884414609,176.0,1.146430529948090794961865884414609
22,194.355888986139542145104058476212408,193.2,1.155888986139542145104058476212408
23,212.364920969345286786323386003373960,211.2,1.164920969345286786323386003373960
24,231.173563378003715611980563993285636,230.0,1.173563378003715611980563993285636
25,250.781848513434133839541144604119621,249.6,1.181848513434133839541144604119621
26,271.189804813644349528764369638801769,270.0,1.189804813644349528764369638801769
27,292.397457446293250035348895001792135,291.2,1.197457446293250035348895001792135
28,314.404828792049842353610270001404476,313.2,1.204828792049842353610270001404476
29,337.211938841795205470884151488267415,336.0,1.211938841795205470884151488267415
30,360.818805525464315280458525361721991,359.6,1.218805525464315280458525361721991
31,385.225444986178764095060178199972931,384.0,1.225444986178764095060178199972931
32,410.431871810243497214805706047996926,409.2,1.231871810243497214805706047996926
33,436.438099221271041196927244439312953,435.2,1.238099221271041196927244439312953
34,463.244139244946152206611849268245480,462.0,1.244139244946152206611849268245480
35,490.850002849604617761250561378414802,489.6,1.250002849604617761250561378414802
36,519.255700066766466300842098840323182,518.0,1.255700066766466300842098840323182
37,548.461240094959754468026373500016350,547.2,1.261240094959754468026373500016350
38,578.466631389540683237509595316406808,577.2,1.266631389540683237509595316406808
39,609.271881740717945384686085120688378,608.0,1.271881740717945384686085120688378
40,640.876998341593385999377388318070406,639.6,1.276998341593385999377388318070406
41,673.281987847714307476623426047584218,672.0,1.281987847714307476623426047584218
42,706.486856429377757814747485665624278,705.2,1.286856429377757814747485665624278
43,740.491609817720654705836368745409006,739.2,1.291609817720654705836368745409006
44,775.296253345461503888142268400944552,774.0,1.296253345461503888142268400944552
45,810.900791983021900660812174359816973,809.6,1.300791983021900660812174359816973
46,847.305230370642867178673453763246261,846.0,1.305230370642867178673453763246261
47,884.509572847017601532405217641228098,883.2,1.309572847017601532405217641228098
48,922.513823474884628255122626648895353,921.2,1.313823474884628255122626648895353
49,961.317986063960677352459847472067249,960.0,1.317986063960677352459847472067249
50,1000.92206419153849623954749026104293,999.6,1.32206419153849623954749026104293
51,1041.32606122102933200577789020454382,1040.0,1.32606122102933200577789020454382
52,1082.52998031869147621392680540508204,1081.2,1.32998031869147621392680540508204
53,1124.53382446875381432163330942024837,1123.2,1.33382446875381432163330942024837
54,1167.33759648711576068176622403892687,1166.0,1.33759648711576068176622403892687
55,1210.94129903378148458567872250281285,1209.6,1.34129903378148458567872250281285
56,1255.34493462416625824321543222795980,1254.0,1.34493462416625824321543222795980
57,1300.54850563939555862820673376660939,1299.2,1.34850563939555862820673376660939
58,1346.55201433570275793188574361634993,1345.2,1.35201433570275793188574361634993
59,1393.35546285301848341938006534677799,1392.0,1.35546285301848341938006534677799
60,1440.95885322283370297672254437613810,1439.6,1.35885322283370297672254437613810
61,1489.36218737540902840831483792593120,1488.0,1.36218737540902840831483792593120
62,1538.56546714639442753965986211801745,1537.2,1.36546714639442753965986211801745
63,1588.56869428291629429115434668687539,1587.2,1.36869428291629429115434668687539
64,1639.37187044918251340880741832276248,1638.0,1.37187044918251340880741832276248
65,1690.97499723165062169777569994252100,1689.6,1.37499723165062169777569994252100
66,1743.37807614379932026554835005525688,1742.0,1.37807614379932026554835005525688
67,1796.58110863053932999028788348399194,1795.2,1.38110863053932999028788348399194
68,1850.58409607229582626902210538853048,1849.2,1.38409607229582626902210538853048
69,1905.38703978879137642965445586877959,1904.0,1.38703978879137642965445586877959
70,1960.98994104255537492249386088833807,1959.6,1.38994104255537492249386088833807
71,2017.39280104218337270327419862108393,2016.0,1.39280104218337270327419862108393
72,2074.59562094536739897725129020281405,2073.2,1.39562094536739897725129020281405
73,2132.59840186171632046756223030878443,2131.2,1.39840186171632046756223030878443
74,2191.40114485538346452247750778970613,2190.0,1.40114485538346452247750778970613
75,2251.00385094751710127507341809815550,2249.6,1.40385094751710127507341809815550
76,2311.40652111854793051209587524879761,2310.0,1.40652111854793051209587524879761
77,2372.60915631032641651036890370657171,2371.2,1.40915631032641651036890370657171
78,2434.61175742812164830092015857097470,2433.2,1.41175742812164830092015857097470
79,2497.41432534249235600100346804763928,2496.0,1.41432534249235600100346804763928
80,2561.01686089103977572855350470486224,2559.6,1.41686089103977572855350470486224
81,2625.41936488005120627213147476518524,2624.0,1.41936488005120627213147476518524
82,2690.62183808604233923886660389230287,2689.2,1.42183808604233923886660389230287
83,2756.62428125720575566910875374658222,2755.2,1.42428125720575566910875374658222
84,2823.42669511477235781479129037258911,2822.0,1.42669511477235781479129037258911
85,2891.02908035429194550232982092117603,2889.6,1.42908035429194550232982092117603
86,2959.43143764683863063549285524818952,2958.0,1.43143764683863063549285524818952
87,3028.63376764014632592288128738209785,3027.2,1.43376764014632592288128738209785
88,3098.63607095967912053691732151760261,3097.2,1.43607095967912053691732151760261
89,3169.43834820964097190908260778734120,3168.0,1.43834820964097190908260778734120
90,3241.04059997392879964941606670580256,3239.6,1.44059997392879964941606670580256
91,3313.44282681703274612623179806296580,3312.0,1.44282681703274612623179806296580
92,3386.64502928488707994447776314336571,3385.2,1.44502928488707994447776314336571
93,3460.64720790567495630610163435946136,3459.2,1.44720790567495630610163435946136
94,3535.44936319059000530705133568057697,3534.0,1.44936319059000530705133568057697
95,3611.05149563455749807151007180811575,3609.6,1.45149563455749807151007180811575
96,3687.45360571691763880184848627212411,3686.0,1.45360571691763880184848627212411
97,3764.65569390207334648066857883893931,3763.2,1.45569390207334648066857883893931
98,3842.65776064010471708701824231544850,3841.2,1.45776064010471708701824231544850
99,3921.45980636735220371666792203470323,3920.0,1.45980636735220371666792203470323
100,4001.06183150697040565592400562205431,3999.6,1.46183150697040565592400562205431
101,4081.46383646945422815430041613409797,4080.0,1.46383646945422815430041613409797
102,4162.66582165313904906664855417097762,4161.2,1.46582165313904906664855417097762
103,4244.66778744467642062173337791745858,4243.2,1.46778744467642062173337791745858
104,4327.46973421948672730953432154236805,4326.0,1.46973421948672730953432154236805
105,4411.07166234219012780579161665923413,4409.6,1.47166234219012780579161665923413
106,4495.47357216701701808807689085546588,4494.0,1.47357216701701808807689085546588
107,4580.67546403819917481571118624772568,4579.2,1.47546403819917481571118624772568
108,4666.67733829034265880629975490556367,4665.2,1.47733829034265880629975490556367
109,4753.47919524878348984811960477201870,4752.0,1.47919524878348984811960477201870
110,4841.08103522992704166747071475445913,4839.6,1.48103522992704166747071475445913
111,4929.48285854157204000890421545924385,4928.0,1.48285854157204000890421545924385
112,5018.68466548321999735260795824856393,5017.2,1.48466548321999735260795824856393
113,5108.68645634637086225743584671083799,5107.2,1.48645634637086225743584671083799
114,5199.48823141480561256031218129974669,5198.0,1.48823141480561256031218129974669
115,5291.08999096485648121423967326969611,5289.6,1.48999096485648121423967326969611
116,5383.49173526566545521549259342726249,5382.0,1.49173526566545521549259342726249
117,5476.69346457943165635756991286723294,5475.2,1.49346457943165635756991286723294
118,5570.69517916164817151837873932380808,5569.2,1.49517916164817151837873932380808
119,5665.49687926132886647340219161168190,5664.0,1.49687926132886647340219161168190
120,5761.09856512122569138537217859193501,5759.6,1.49856512122569138537217859193501
121,5857.50023697803694785372301768383181,5856.0,1.50023697803694785372301768383181
122,5954.70189506260696849397050882679326,5953.2,1.50189506260696849397050882679326
123,6052.70353960011762782422933121571577,6051.2,1.50353960011762782422933121571577
124,6151.50517081027208555627348605058398,6150.0,1.50517081027208555627348605058398
125,6251.10678890747113382228259970325584,6249.6,1.50678890747113382228259970325584
126,6351.50839410098250467111948509370361,6350.0,1.50839410098250467111948509370361
127,6452.70998659510347359009894142599665,6451.2,1.50998659510347359009894142599665
128,6554.71156658931707222101851067719603,6553.2,1.51156658931707222101851067719603
129,6657.51313427844221136598449909746062,6656.0,1.51313427844221136598449909746062
130,6761.11468985277799699670002558748319,6759.6,1.51468985277799699670002558748319
131,6865.51623349824250657676464458681590,6864.0,1.51623349824250657676464458681590
132,6970.71776539650627802933516766412664,6969.2,1.51776539650627802933516766412664
133,7076.71928572512075190091311536639853,7075.2,1.51928572512075190091311536639853
134,7183.52079465764189599606800219317663,7182.0,1.52079465764189599606800219317663
135,7291.12229236374922364956234818786589,7289.6,1.52229236374922364956234818786589
136,7399.52377900936041311481498692958079,7398.0,1.52377900936041311481498692958079
137,7508.72525475674172223969757926744297,7507.2,1.52525475674172223969757926744297
138,7618.72671976461437898866807165903384,7617.2,1.52671976461437898866807165903384
139,7729.52817418825712626434091690561021,7728.0,1.52817418825712626434091690561021
140,7841.12961817960508403562641777621647,7839.6,1.52961817960508403562641777621647
141,7953.53105188734508722208170277746270,7952.0,1.53105188734508722208170277746270
142,8066.73247545700764971085088952463299,8065.2,1.53247545700764971085088952463299
143,8180.73388903105569623240265658334097,8179.2,1.53388903105569623240265658334097
144,8295.53529274897019664163765593896678,8294.0,1.53529274897019664163765593896678
145,8411.13668674733283296318001177157786,8409.6,1.53668674733283296318001177157786
146,8527.53807115990582169091741754637872,8526.0,1.53807115990582169091741754637872
147,8644.73944611770900562888905838061065,8643.2,1.53944611770900562888905838061065
148,8762.74081174909433060258794588404252,8761.2,1.54081174909433060258794588404252
149,8881.54216817981780884167206707123422,8880.0,1.54216817981780884167206707123422
150,9001.14351553310907267500051900966295,8999.6,1.54351553310907267500051900966295
151,9121.54485392973861445229097546218241,9120.0,1.54485392973861445229097546218241
152,9242.74618348808280299160834412663304,9241.2,1.54618348808280299160834412663304
153,9364.74750432418676550242057476339545,9363.2,1.54750432418676550242057476339545
154,9487.54881655182521888350620885384230,9486.0,1.54881655182521888350620885384230
155,9611.15012028256132863174954413718062,9609.6,1.55012028256132863174954413718062
156,9735.55141562580367322823085494841247,9734.0,1.55141562580367322823085494841247
157,9860.75270268886138504825877780401079,9859.2,1.55270268886138504825877780401079
158,9986.75398157699753961349272207270967,9985.2,1.55398157699753961349272207270967
159,10113.5552523934808568590345623679925,10112.0,1.5552523934808568590345623679925
160,10241.1565152396357807530753918715338,10239.6,1.5565152396357807530753918715338
161,10369.5577702148909957652651197418850,10368.0,1.5577702148909957652651197418850
162,10498.7590174168264396449548279236230,10497.2,1.5590174168264396449548279236230
163,10628.7602569412188673626598316108184,10627.2,1.5602569412188673626598316108184
164,10759.5614888820860208513901493583079,10758.0,1.5614888820860208513901493583079
165,10891.1627133317294531481177142850010,10889.6,1.5627133317294531481177142850010
166,11023.5639303807760574510222873378194,11022.0,1.5639303807760574510222873378194
167,11156.7651401182183483248900076857205,11155.2,1.5651401182183483248900076857205
168,11290.7663426314535377436351459755551,11289.2,1.5663426314535377436351459755551
169,11425.5675380063214510320920092111172,11424.0,1.5675380063214510320920092111172
170,11561.1687263271413224502526062129727,11559.6,1.5687263271413224502526062129727
171,11697.5699076767475106144703572348022,11696.0,1.5699076767475106144703572348022
172,11834.7710821365241716223503865696668,11833.2,1.5710821365241716223503865696668
173,11972.7722497864389252837194799481228,11971.2,1.5722497864389252837194799481228
174,12111.5734107050755503012560390619695,12110.0,1.5734107050755503012560390619695
175,12251.1745649696657423857778691384947,12249.6,1.5745649696657423857778691384947
176,12391.5757126561199650126094246183238,12390.0,1.5757126561199650126094246183238
177,12532.7768538390574260796355186354020,12531.2,1.5768538390574260796355186354020
178,12674.7779885918352096215083702647632,12673.2,1.5779885918352096215083702647632
179,12817.5791169865765890250272622304274,12816.0,1.5791169865765890250272622304274
180,12961.1802390941985526921639148045258,12959.6,1.5802390941985526921639148045258
181,13105.5813549844385647993958232288363,13104.0,1.5813549844385647993958232288363
182,13250.7824647258805888488109670293676,13249.2,1.5824647258805888488109670293676
183,13396.7835683859803970603377881029041,13395.2,1.5835683859803970603377881029041
184,13543.5846660310901898467174272902868,13542.0,1.5846660310901898467174272902868
185,13691.1857577264825471794260839128101,13689.6,1.5857577264825471794260839128101
186,13839.5868435363737328142494723080641,13838.0,1.5868435363737328142494723080641
187,13988.7879235239463751770966228019556,13987.2,1.5879235239463751770966228019556
188,14138.7889977513715403464540102037618,14137.2,1.5889977513715403464540102037618
189,14289.5900662798302208636595606115292,14288.0,1.5900662798302208636595606115292
190,14441.1911291695342560221630405541169,14439.6,1.5911291695342560221630405541169
191,14593.5921864797467028584168655494030,14592.0,1.5921864797467028584168655494030
192,14746.7932382688016742266920090259069,14745.2,1.5932382688016742266920090259069
193,14900.7942845941236622617620452569957,14899.2,1.5942845941236622617620452569957
194,15055.5953255122463605703332453531138,15054.0,1.5953255122463605703332453531138
195,15211.1963610788310030836775166623821,15209.6,1.5963610788310030836775166623821
196,15367.5973913486842332634669549618052,15366.0,1.5973913486842332634669549618052
197,15524.7984163757755180362323710858099,15523.2,1.5984163757755180362323710858099
198,15682.7994362132541206185277609580058,15681.2,1.5994362132541206185277609580058
199,15841.6004509134656450667606974674688,15840.0,1.6004509134656450667606974674688
200,16001.2014605279681664919945410371985,15999.6,1.6014605279681664919945410371985
201,16161.6024651075479579162502555522434,16160.0,1.6024651075479579162502555522434
202,16322.8034647022348271465714735369470,16321.2,1.6034647022348271465714735369470
203,16484.8044593613170743216864045177118,16483.2,1.6044593613170743216864045177118
204,16647.6054491333560817462865798070572,16646.0,1.6054491333560817462865798070572
205,16811.2064340662005459783920310092718,16809.6,1.6064340662005459783920310092718
206,16975.6074142070003651886624064814219,16974.0,1.6074142070003651886624064814219
207,17140.8083896022201876624447327435093,17139.2,1.6083896022201876624447327435093
208,17306.8093602976526356661284756828862,17305.2,1.6093602976526356661284756828862
209,17473.6103263384312104208075752994034,17472.0,1.6103263384312104208075752994034
210,17641.2112877690428896790210598050879,17639.6,1.6112877690428896790210598050879
211,17809.6122446333404252637051041134275,17808.0,1.6122446333404252637051041134275
212,17978.8131969745543507966582170710286,17977.2,1.6131969745543507966582170710286
213,18148.8141448353047039945913994891652,18147.2,1.6141448353047039945913994891652
214,18319.6150882576124785086305356439800,18318.0,1.6150882576124785086305356439800
215,18491.2160272829108045136869038442633,18489.6,1.6160272829108045136869038442633
216,18663.6169619520558720023382877589112,18662.0,1.6169619520558720023382877589112
217,18836.8178923053376007424515472496314,18835.2,1.6178923053376007424515472496314
218,19010.8188183824900658711892885605326,19009.2,1.6188183824900658711892885605326
219,19185.6197402227016823985335622620287,19184.0,1.6197402227016823985335622620287
220,19361.2206578646251611286520790071085,19359.6,1.6206578646251611286520790071085
221,19537.6215713463872339016009803908224,19536.0,1.6215713463872339016009803908224
222,19714.8224807055981653529361223929984,19713.2,1.6224807055981653529361223929984
223,19892.8233859793610447522739799297598,19891.2,1.6233859793610447522739799297598
224,20071.6242872042808729803152441193307,20070.0,1.6242872042808729803152441193307
225,20251.2251844164734472010917018180267,20249.6,1.6251844164734472010917018180267
226,20431.6260776515740467675991637062687,20430.0,1.6260776515740467675991637062687
227,20612.8269669447459290038884893677254,20611.2,1.6269669447459290038884893677254
228,20794.8278523306886366740458818905216,20793.2,1.6278523306886366740458818905216
229,20977.6287338436461242904393562617697,20976.0,1.6287338436461242904393562617697
230,21161.2296115174147079477067286554716,21159.6,1.6296115174147079477067286554716
231,21345.6304853853508404719920395823835,21344.0,1.6304853853508404719920395823835
232,21530.8313554803787222945904229953753,21529.2,1.6313554803787222945904229953753
233,21716.8322218349977430357504523873814,21715.2,1.6322218349977430357504523873814
234,21903.6330844812897699449498597290246,21902.0,1.6330844812897699449498597290246
235,22091.2339434509262763689976139420747,22089.6,1.6339434509262763689976139420747
236,22279.6347987751753199469898617186635,22278.0,1.6347987751753199469898617186635
237,22468.8356504849083741525106874730912,22467.2,1.6356504849083741525106874730912
238,22658.8364986106070149143563406522155,22657.2,1.6364986106070149143563406522155
