Eigenstate,Energy,Kinetic Energy,Potential Energy
1,0.500000000012647525219959179475686979,0.0,0.500000000012647525219959179475686979
2,1.84623093773367107451212361210609860,1.2,0.64623093773367107451212361210609860
3,3.93633760994747840675063097807021370,3.2,0.73633760994747840675063097807021370
4,6.79966527831934409947992278898535242,6.0,0.79966527831934409947992278898535242
5,10.4480465761606310043290225551047436,9.6,0.8480465761606310043290225551047436
6,14.8870659982241559260147504861831289,14.0,0.8870659982241559260147504861831289
7,20.1197208259472229524037915720529112,19.2,0.9197208259472229524037915720529112
8,26.1477838457063261218518969948507093,25.2,0.9477838457063261218518969948507093
9,32.9723835565074859187753992979746655,32.0,0.9723835565074859187753992979746655
10,40.5942802124991130870438718390066754,39.6,0.9942802124991130870438718390066754
11,49.0140093838221382053698525212048238,48.0,1.0140093838221382053698525212048238
12,58.2319621657811129785330672469806804,57.2,1.0319621657811129785330672469806804
13,68.2484326884417855184139268824830358,67.2,1.0484326884417855184139268824830358
14,79.0636476494872523664967623931396357,78.0,1.0636476494872523664967623931396357
15,90.6777854300321376439459762040531897,89.6,1.0777854300321376439459762040531897
16,103.090988899493034581441373987090550,102.0,1.090988899493034581441373987090550
17,116.303374249050007654342917370930861,115.2,1.103374249050007654342917370930861
18,130.315037242652790657619484650625013,129.2,1.115037242652790657619484650625013
19,145.126057740124763434816438796243025,144.0,1.126057740124763434816438796243025
20,160.736503034796887739329159020463887,159.6,1.136503034796887739329159020463887
21,177.146430359589404023305681717970068,176.0,1.146430359589404023305681717970068
22,194.355888798170571303884382838003927,193.2,1.155888798170571303884382838003927
23,212.364920762893191631523183285826338,211.2,1.164920762893191631523183285826338
24,231.173563152195032116025904889364889,230.0,1.173563152195032116025904889364889
25,250.781848267394751221975763033887992,249.6,1.181848267394751221975763033887992
26,271.189804546499486449115242242469960,270.0,1.189804546499486449115242242469960
27,292.397457157167430116130266464611362,291.2,1.197457157167430116130266464611362
28,314.404828480066869159945068727902502,313.2,1.204828480066869159945068727902502
29,337.211938506078137043033836523101517,336.0,1.211938506078137043033836523101517
30,360.818805165135438293287300320927109,359.6,1.218805165135438293287300320927109
31,385.225444600359567701837837854443425,384.0,1.225444600359567701837837854443425
32,410.431871398054646620204830155704494,409.2,1.231871398054646620204830155704494
33,436.438098781832350994497319569230954,435.2,1.238098781832350994497319569230954
34,463.244138777376559508638202688550287,462.0,1.244138777376559508638202688550287
35,490.850002353022155143172834716401377,489.6,1.250002353022155143172834716401377
36,519.255699540288234577911780871864551,518.0,1.255699540288234577911780871864551
37,548.461239537701895318329656047299325,547.2,1.261239537701895318329656047299325
38,578.466630800618351682652045552600951,577.2,1.266630800618351682652045552600951
39,609.271881119245282137165641268343158,608.0,1.271881119245282137165641268343158
40,640.876997686683489683838719193754993,639.6,1.276997686683489683838719193754993
41,673.281987158479206730696552157881451,672.0,1.281987158479206730696552157881451
42,706.486855704928383273954510728600352,705.2,1.286855704928383273954510728600352
43,740.491609057166810876047189420566548,739.2,1.291609057166810876047189420566548
44,775.296252547911840908230450334068512,774.0,1.296252547911840908230450334068512
45,810.900791147583885957471553107528971,809.6,1.300791147583885957471553107528971
46,847.305229496422757014778461469595074,846.0,1.305229496422757014778461469595074
47,884.509571933120412449812516724765320,883.2,1.309571933120412449812516724765320
48,922.513822520414108412401073317733080,921.2,1.313822520414108412401073317733080
49,961.317985068019277757687422234372485,960.0,1.317985068019277757687422234372485
50,1000.92206315322734187801649496378208,999.6,1.32206315322734187801649496378208
51,1041.32606013944819286219444636425417,1040.0,1.32606013944819286219444636425417
52,1082.52997919293873818847101945520057,1081.2,1.32997919293873818847101945520057
53,1124.53382329792645003905615430267523,1123.2,1.33382329792645003905615430267523
54,1167.33759527030930019253341214144616,1166.0,1.33759527030930019253341214144616
55,1210.94129777008998595802709822752132,1209.6,1.34129777008998595802709822752132
56,1255.34493331268227804486003185330969,1254.0,1.34493331268227804486003185330969
57,1300.54850427921012229632437001338482,1299.2,1.34850427921012229632437001338482
58,1346.55201292590533002990073458859269,1345.2,1.35201292590533002990073458859269
59,1393.35546139269693777898907350653529,1392.0,1.35546139269693777898907350653529
60,1440.95885171107429272351519412920236,1439.6,1.35885171107429272351519412920236
61,1489.36218581129635586927478296423851,1488.0,1.36218581129635586927478296423851
62,1538.56546552901141403076532792280190,1537.2,1.36546552901141403076532792280190
63,1588.56869261134414978323763764960874,1587.2,1.36869261134414978323763764960874
64,1639.37186872250070606977812712041930,1638.0,1.37186872250070606977812712041930
65,1690.97499544893684730926153403743100,1689.6,1.37499544893684730926153403743100
66,1743.37807430412947151196088688518425,1742.0,1.37807430412947151196088688518425
67,1796.58110673298746561827671334563476,1795.2,1.38110673298746561827671334563476
68,1850.58409411593414011523983523292400,1849.2,1.38409411593414011523983523292400
69,1905.38703777269016631471602603670912,1904.0,1.38703777269016631471602603670912
70,1960.98993896578301140897757316885769,1959.6,1.38993896578301140897757316885769
71,2017.39279890380626771557605486463576,2016.0,1.39279890380626771557605486463576
72,2074.59561874444997428107150808258349,2073.2,1.39561874444997428107150808258349
73,2132.59839959732097600676994629713857,2131.2,1.39839959732097600676994629713857
74,2191.40114252657054661106890404247191,2190.0,1.40114252657054661106890404247191
75,2251.00384855334487064190792846029845,2249.6,1.40384855334487064190792846029845
76,2311.40651865807253019606602038693522,2310.0,1.40651865807253019606602038693522
77,2372.60915378260183960363012763807643,2371.2,1.40915378260183960363012763807643
78,2434.61175483219970553777881388186383,2433.2,1.41175483219970553777881388186383
79,2497.41432267742264319003314987339864,2496.0,1.41432267742264319003314987339864
80,2561.01685815586964102548261652729380,2559.6,1.41685815586964102548261652729380
81,2625.41936207382571729101727436252263,2624.0,1.41936207382571729101727436252263
82,2690.62183520780424999904408749330209,2689.2,1.42183520780424999904408749330209
83,2756.62427830599547337537572030164416,2755.2,1.42427830599547337537572030164416
84,2823.42669208962790946826406363401287,2822.0,1.42669208962790946826406363401287
85,2891.02907725424894433937712639310243,2889.6,1.42907725424894433937712639310243
86,2959.43143447093024239212870244846996,2958.0,1.43143447093024239212870244846996
87,3028.63376438740323492197035076551463,3027.2,1.43376438740323492197035076551463
88,3098.63606762912949559551960996654511,3097.2,1.43606762912949559551960996654511
89,3169.43834480031043206323691113203327,3168.0,1.43834480031043206323691113203327
90,3241.04059648484037969363437595473039,3239.6,1.44059648484037969363437595473039
91,3313.44282324720686196494904606085134,3312.0,1.44282324720686196494904606085134
92,3386.64502563334149375267397734969444,3385.2,1.44502563334149375267397734969444
93,3460.64720417142474149628502796287095,3459.2,1.44720417142474149628502796287095
94,3535.44935937264751129976307799827182,3534.0,1.44935937264751129976307799827182
95,3611.05149173193231486648241649377808,3609.6,1.45149173193231486648241649377808
96,3687.45360172861656134691965452349672,3686.0,1.45360172861656134691965452349672
97,3764.65568982710033883552785874308328,3763.2,1.45568982710033883552785874308328
98,3842.65775647746087637882599877186572,3841.2,1.45775647746087637882599877186572
99,3921.45980211603572388456457564368590,3920.0,1.45980211603572388456457564368590
100,4001.06182716597654098141234238538241,3999.6,1.46182716597654098141234238538241
101,4081.46383203777525657445447494593139,4080.0,1.46383203777525657445447494593139
102,4162.66581712976423526707152165822353,4161.2,1.46581712976423526707152165822353
103,4244.66778282859197890615558543332192,4243.2,1.46778282859197890615558543332192
104,4327.46972950967578424290973378266284,4326.0,1.46972950967578424290973378266284
105,4411.07165753763268462771981884001167,4409.6,1.47165753763268462771981884001167
106,4495.47356726668991289334411332961848,4494.0,1.47356726668991289334411332961848
107,4580.67545904107604449871078331990867,4579.2,1.47545904107604449871078331990867
108,4666.67733319539390076605884602791986,4665.2,1.47733319539390076605884602791986
109,4753.47919005497622345062406910571409,4752.0,1.47919005497622345062406910571409
110,4841.08102993622506946194624509386988,4839.6,1.48102993622506946194624509386988
111,4929.48285314693580869467573581773847,4928.0,1.48285314693580869467573581773847
112,5018.68465998660655849312370502614344,5017.2,1.48465998660655849312370502614344
113,5108.68645074673383273800639999596274,5107.2,1.48645074673383273800639999596274
114,5199.48822571109513478607748697949841,5198.0,1.48822571109513478607748697949841
115,5291.08998515601918304483988172018287,5289.6,1.48998515601918304483988172018287
116,5383.49172935064440963288029579162631,5382.0,1.49172935064440963288029579162631
117,5476.69345855716634086336296457193087,5475.2,1.49345855716634086336296457193087
118,5570.69517303107442725711342028621713,5569.2,1.49517303107442725711342028621713
119,5665.49687302137885707800693370452326,5664.0,1.49687302137885707800693370452326
120,5761.09855877082786154114119821981253,5759.6,1.49855877082786154114119821981253
121,5857.50023051611598157702866242442753,5856.0,1.50023051611598157702866242442753
122,5954.70188848808374712191109217002228,5953.2,1.50188848808374712191109217002228
123,6052.70353291190918771136696282222038,6051.2,1.50353291190918771136696282222038
124,6151.50516400729157547457361621277855,6150.0,1.50516400729157547457361621277855
125,6251.10678198862777206032301115819462,6249.6,1.50678198862777206032301115819462
126,6351.50838706518153582859233185657859,6350.0,1.50838706518153582859233185657859
127,6452.70997944124612506358433221922038,6451.2,1.50997944124612506358433221922038
128,6554.71155931630051037696238226971768,6553.2,1.51155931630051037696238226971768
129,6657.51312688515949739676710987618785,6656.0,1.51312688515949739676710987618785
130,6761.11468233811804245563423914881812,6759.6,1.51468233811804245563423914881812
131,6865.51622586109002858781514969891993,6864.0,1.51622586109002858781514969891993
132,6970.71775763574175416730086892926934,6969.2,1.51775763574175416730086892926934
133,7076.71927783962037473776634582049714,7075.2,1.51927783962037473776634582049714
134,7183.52078664627752730909283528470348,7182.0,1.52078664627752730909283528470348
135,7291.12228422538834828688385727001258,7289.6,1.52228422538834828688385727001258
136,7399.52377074286609251385984336578346,7398.0,1.52377074286609251385984336578346
137,7508.72524636097254759407286630414675,7507.2,1.52524636097254759407286630414675
138,7618.72671123842442405889238733005911,7617.2,1.52671123842442405889238733005911
139,7729.52816553049589982780726000218997,7728.0,1.52816553049589982780726000218997
140,7841.12960938911748197112097913943423,7839.6,1.52960938911748197112097913943423
141,7953.53104296297134422412724119979227,7952.0,1.53104296297134422412724119979227
142,8066.73246639758329062908571709687987,8065.2,1.53246639758329062908571709687987
143,8180.73387983541148703114875160105865,8179.2,1.53387983541148703114875160105865
144,8295.53528341593209497475260420393839,8294.0,1.53528341593209497475260420393839
145,8411.13667727572193835922789119358232,8409.6,1.53667727572193835922789119358232
146,8527.53806154853832534363280667986826,8526.0,1.53806154853832534363280667986826
147,8644.73943636539613978784680216448729,8643.2,1.53943636539613978784680216448729
148,8762.74080185464231755892906299936947,8761.2,1.54080185464231755892906299936947
149,8881.54215814202780950367173510846836,8880.0,1.54215814202780950367173510846836
150,9001.14350535077713472820083378207119,8999.6,1.54350535077713472820083378207119
151,9121.54484360165562009885378523334591,9120.0,1.54484360165562009885378523334591
152,9242.74617301303441626347808394280764,9241.2,1.54617301303441626347808394280764
153,9364.74749370095337914281875448890780,9363.2,1.54749370095337914281875448890780
154,9487.54880577918190079121041373748894,9486.0,1.54880577918190079121041373748894
155,9611.15010935927776786253982369527162,9609.6,1.55010935927776786253982369527162
156,9735.55140455064412554781487077542626,9734.0,1.55140455064412554781487077542626
157,9860.75269146058461803091583261739217,9859.2,1.55269146058461803091583261739217
158,9986.75397019435677728060228404465454,9985.2,1.55397019435677728060228404465454
159,10113.5552408552237238515810397818475,10112.0,1.5552408552237238515810397818475
160,10241.1565035445042460321447929698223,10239.6,1.5565035445042460321447929698223
161,10369.5577583616213158344723528449984,10368.0,1.5577583616213158344723528449984
162,10498.7590054041491012886617559440005,10497.2,1.5590054041491012886617559440005
163,10628.7602447678585298937655926567049,10627.2,1.5602447678585298937655926567049
164,10759.5614765467614578623933738680243,10758.0,1.5614765467614578623933738680243
165,10891.1627008331534937590684697121714,10889.6,1.5627008331534937590684697121714
166,11023.5639177176555270478983777563731,11022.0,1.5639177176555270478983777563731
167,11156.7651272892540087818475791184078,11155.2,1.5651272892540087818475791184078
168,11290.7663296353400271224963492870992,11289.2,1.5663296353400271224963492870992
169,11425.5675248417472227523461098752165,11424.0,1.5675248417472227523461098752165
170,11561.1687129927885839227567767393257,11559.6,1.5687129927885839227567767393257
171,11697.5698941712921613319468119115792,11696.0,1.5698941712921613319468119115792
172,11834.7710684586357406996836996948743,11833.2,1.5710684586357406996836996948743
173,11972.7722359347805084409654495968629,11971.2,1.5722359347805084409654495968629
174,12111.5733966783037462821768975707213,12110.0,1.5733966783037462821768975707213
175,12251.1745507664305888046236070516281,12249.6,1.5745507664305888046236070516281
176,12391.5756982750648736217659415457047,12390.0,1.5756982750648736217659415457047
177,12532.7768392788191174506605223551818,12531.2,1.5768392788191174506605223551818
178,12674.7779738510436472319749781659686,12673.2,1.5779738510436472319749781659686
179,12817.5791020638549127434914851871084,12816.0,1.5791020638549127434914851871084
180,12961.1802239881630116534676589945990,12959.6,1.5802239881630116534676589945990
181,13105.5813396936984496624105863426445,13104.0,1.5813396936984496624105863426445
182,13250.7824492490381634286189526817649,13249.2,1.5824492490381634286189526817649
183,13396.7835527216308293267367373742059,13395.2,1.5835527216308293267367373742059
184,13543.5846501778214822808240057563621,13542.0,1.5846501778214822808240057563621
185,13691.1857416828754664800374727167181,13689.6,1.5857416828754664800374727167181
186,13839.5868273010017389455095887486522,13838.0,1.5868273010017389455095887486522
187,13988.7879070953755497488926535468614,13987.2,1.5879070953755497488926535468614
188,14138.7889811281605143188515220919535,14137.2,1.5889811281605143188515220919535
189,14289.5900494605301015665615031277537,14288.0,1.5900494605301015665615031277537
190,14441.1911121526885534812549861451129,14439.6,1.5911121526885534812549861451129
191,14593.5921692638912554183340565708940,14592.0,1.5921692638912554183340565708940
192,14746.7932208524645734622168327387811,14745.2,1.5932208524645734622168327387811
193,14900.7942669758251771677296430397647,14899.2,1.5942669758251771677296430397647
194,15055.5953076904988610207911823619117,15054.0,1.5953076904988610207911823619117
195,15211.1963430521388825507103572726928,15209.6,1.5963430521388825507103572726928
196,15367.5973731155438307859600923598371,15366.0,1.5973731155438307859600923598371
197,15524.7983979346750394287100102204562,15523.2,1.5983979346750394287100102204562
198,15682.7994175626735589100587249251736,15681.2,1.5994175626735589100587249251736
199,15841.6004320518767001597808437277078,15840.0,1.6004320518767001597808437277078
200,16001.2014414538341640307492725152225,15999.6,1.6014414538341640307492725152225
201,16161.6024458193237673544112468460788,16160.0,1.6024458193237673544112468460788
202,16322.8034451983667790034289328801921,16321.2,1.6034451983667790034289328801921
203,16484.8044396402428766161662944667492,16483.2,1.6044396402428766161662944667492
204,16647.6054291935047355978832495959074,16646.0,1.6054291935047355978832495959074
205,16811.2064139059922603639488025738128,16809.6,1.6064139059922603639488025738128
206,16975.6073938248464708437695290272980,16974.0,1.6073938248464708437695290272980
207,17140.8083689965230501160585746682969,17139.2,1.6083689965230501160585746682969
208,17306.8093394668055673968492959740265,17305.2,1.6093394668055673968492959740265
209,17473.6103052808183821230806903195311,17472.0,1.6103052808183821230806903195311
210,17641.2112664830392406273532519248586,17639.6,1.6112664830392406273532519248586
211,17809.6122231173115727628111489651878,17808.0,1.6122231173115727628111489651878
212,17978.8131752268564987052724191354956,17977.2,1.6131752268564987052724191354956
213,18148.8141228542845503104945766936508,18147.2,1.6141228542845503104945766936508
214,18319.6150660416071220022587749469218,18318.0,1.6150660416071220022587749469218
215,18491.2160048302476503974966773418395,18489.6,1.6160048302476503974966773418395
216,18663.6169392610525366229100853973071,18662.0,1.6169392610525366229100853973071
217,18836.8178693743018152821182328480821,18835.2,1.6178693743018152821182328480821
218,19010.8187952097195790457751769597682,19009.2,1.6187952097195790457751769597682
219,19185.6197168064841621375855977090863,19184.0,1.6197168064841621375855977090863
220,19361.2206342032380952243391474955671,19359.6,1.6206342032380952243391474955671
221,19537.6215474380978296122453431212518,19536.0,1.6215474380978296122453431212518
222,19714.8224565486632479469265666580389,19713.2,1.6224565486632479469265666580389
223,19892.8233615720269549778923333756166,19891.2,1.6233615720269549778923333756166
224,20071.6242625447833634467849091669273,20070.0,1.6242625447833634467849091669273
225,20251.2251595030375776559304930314302,20249.6,1.6251595030375776559304930314302
226,20431.6260524824140782551285241679941,20430.0,1.6260524824140782551285241679941
227,20612.8269415180652168895171541381426,20611.2,1.6269415180652168895171541381426
228,20794.8278266446795225187056706317354,20793.2,1.6278266446795225187056706317354
229,20977.6287078964898265593087115681745,20976.0,1.6287078964898265593087115681745
230,21161.2295853072812115371100359931871,21159.6,1.6295853072812115371100359931871
231,21345.6304589103987850381097630972726,21344.0,1.6304589103987850381097630972726
232,21530.8313287387552893673590425475798,21529.2,1.6313287387552893673590425475798
233,21716.8321948248385419010697882972065,21715.2,1.6321948248385419010697882972065
234,21903.6330572007187222780483130596367,21902.0,1.6330572007187222780483130596367
235,22091.2339158980554996015357233167477,22089.6,1.6339158980554996015357233167477
236,22279.6347709481050093502059706354289,22278.0,1.6347709481050093502059706354289
237,22468.8356223817266836184308732197480,22467.2,1.6356223817266836184308732197480
238,22658.8364702293899364168052686793103,22657.2,1.6364702293899364168052686793103
