Eigenstate,Energy,Kinetic Energy,Potential Energy
1,0.500000000000042109172648696779110066,0.0,0.500000000000042109172648696779110066
2,1.84623093765138974883278240170775961,1.2,0.64623093765138974883278240170775961
3,3.93633760970578484273865125584159779,3.2,0.73633760970578484273865125584159779
4,6.79966527781592740130480526790972034,6.0,0.79966527781592740130480526790972034
5,10.4480465752886177656004652543803342,9.6,0.8480465752886177656004652543803342
6,14.8870659968748070850919263547609790,14.0,0.8870659968748070850919263547609790
7,20.1197208240109284291114661541014367,19.2,0.9197208240109284291114661541014367
8,26.1477838430730205197062240016948732,25.2,0.9477838430730205197062240016948732
9,32.9723835530668426513470191937871161,32.0,0.9723835530668426513470191937871161
10,40.5942802081406436651038280932505403,39.6,0.9942802081406436651038280932505403
11,49.0140093784352468785134857575176020,48.0,1.0140093784352468785134857575176020
12,58.2319621592551286265463739022801204,57.2,1.0319621592551286265463739022801204
13,68.2484326806659811577237139286133075,67.2,1.0484326806659811577237139286133075
14,79.0636476403508575294840539382392709,78.0,1.0636476403508575294840539382392709
15,90.6777854194243464589897895290268838,89.6,1.0777854194243464589897895290268838
16,103.090988887303011152765465755426270,102.0,1.090988887303011152765465755426270
17,116.303374235166889685806650593000468,115.2,1.103374235166889685806650593000468
18,130.315037226965691899237744298264846,129.2,1.115037226965691899237744298264846
19,145.126057722522775318690215061687966,144.0,1.126057722522775318690215061687966
20,160.736503015169080444137028515242959,159.6,1.136503015169080444137028515242959
21,177.146430337824827127403859912469175,176.0,1.146430337824827127403859912469175
22,194.355888774158254136619755916105090,193.2,1.155888774158254136619755916105090
23,212.364920736522143399386873783936316,211.2,1.164920736522143399386873783936316
24,231.173563123354241858228400313480925,230.0,1.173563123354241858228400313480925
25,250.781848235973187634983672903057355,249.6,1.181848235973187634983672903057355
26,271.189804512386097609237402653089522,270.0,1.189804512386097609237402653089522
27,292.397457120251143121854081024052904,291.2,1.197457120251143121854081024052904
28,314.404828440236589710422553735968475,313.2,1.204828440236589710422553735968475
29,337.211938463222748965257811448785463,336.0,1.211938463222748965257811448785463
30,360.818805119143803027652199312338518,359.6,1.218805119143803027652199312338518
31,385.225444551120523753655255198456595,384.0,1.225444551120523753655255198456595
32,410.431871345457008983140371432809166,409.2,1.231871345457008983140371432809166
33,436.438098725764910550672249433568915,435.2,1.238098725764910550672249433568915
34,463.244138717728082409197419379387150,462.0,1.244138717728082409197419379387150
35,490.850002289681382172388647146662232,489.6,1.250002289681382172388647146662232
36,519.255699473143880503319223350403282,518.0,1.255699473143880503319223350403282
37,548.461239466642648228935792502849427,547.2,1.261239466642648228935792502849427
38,578.466630725532872316900968026552607,577.2,1.266630725532872316900968026552607
39,609.271881040022203202051708442286930,608.0,1.271881040022203202051708442286930
40,640.876997603211415166327278936376183,639.6,1.276997603211415166327278936376183
41,673.281987070646711202421995243141370,672.0,1.281987070646711202421995243141370
42,706.486855612624011190010812155267601,705.2,1.286855612624011190010812155267601
43,740.491608960279075868559055313254325,739.2,1.291608960279075868559055313254325
44,775.296252446329225075288316045346454,774.0,1.296252446329225075288316045346454
45,810.900791041194839147926657138523827,809.6,1.300791041194839147926657138523827
46,847.305229385115696109321648205842034,846.0,1.305229385115696109321648205842034
47,884.509571816783720638699670271850138,883.2,1.309571816783720638699670271850138
48,922.513822398936134470136955403639123,921.2,1.313822398936134470136955403639123
49,961.317984941288335314936519192632360,960.0,1.317984941288335314936519192632360
50,1000.92206302113170869097287355988026,999.6,1.32206302113170869097287355988026
51,1041.32606000187611007961143943027357,1040.0,1.32606000187611007961143943027357
52,1082.52997904977840961652494958336217,1081.2,1.32997904977840961652494958336217
53,1124.53382314906604140419548939462538,1123.2,1.33382314906604140419548939462538
54,1167.33759511563693840244510388319396,1166.0,1.33759511563693840244510388319396
55,1210.94129760949375836083493372238441,1209.6,1.34129760949375836083493372238441
56,1255.34493314605023168665515742667924,1254.0,1.34493314605023168665515742667924
57,1300.54850410643026317711545533817522,1299.2,1.34850410643026317711545533817522
58,1346.55201274686562235806011605772870,1345.2,1.35201274686562235806011605772870
59,1393.35546120728530322426160983189944,1392.0,1.35546120728530322426160983189944
60,1440.95885151917860966864807364039802,1439.6,1.35885151917860966864807364039802
61,1489.36218561280445866031911327587275,1488.0,1.36218561280445866031911327587275
62,1538.56546532381109222609379703701746,1537.2,1.36546532381109222609379703701746
63,1588.56869239932314740131679270969322,1587.2,1.36869239932314740131679270969322
64,1639.37186850354672083572874819218650,1638.0,1.37186850354672083572874819218650
65,1690.97499522293752990023602925391976,1689.6,1.37499522293752990023602925391976
66,1743.37807407097242480136268654105212,1742.0,1.37807407097242480136268654105212
67,1796.58110649256024391884306167957821,1795.2,1.38110649256024391884306167957821
68,1850.58409386812424842100622423532855,1849.2,1.38409386812424842100622423532855
69,1905.38703751738505954187764445319061,1904.0,1.38703751738505954187764445319061
70,1960.98993870287009363566069086690364,1959.6,1.38993870287009363566069086690364
71,2017.39279863317289142052990131859255,2016.0,1.39279863317289142052990131859255
72,2074.59561846598343958128925133834596,2073.2,1.39561846598343958128925133834596
73,2132.59839931090852989404547259415280,2131.2,1.39839931090852989404547259415280
74,2191.40114223209938218749449877969420,2190.0,1.40114223209938218749449877969420
75,2251.00384825070212635431641866172525,2249.6,1.40384825070212635431641866172525
76,2311.40651834714528906941964694350540,2310.0,1.40651834714528906941964694350540
77,2372.60915346327712847335714216289726,2371.2,1.40915346327712847335714216289726
78,2434.61175450436449428105770255612763,2433.2,1.41175450436449428105770255612763
79,2497.41432234096384395602337054096901,2496.0,1.41432234096384395602337054096901
80,2561.01685781067410746449985115853621,2559.6,1.41685781067410746449985115853621
81,2625.41936171978024378265030479608648,2624.0,1.41936171978024378265030479608648
82,2690.62183484479557087920967700135273,2689.2,1.42183484479557087920967700135273
83,2756.62427793391026216230717552814666,2755.2,1.42427793391026216230717552814666
84,2823.42669170835277808742850217815310,2822.0,1.42669170835277808742850217815310
85,2891.02907686367044234731588231848719,2889.6,1.42907686367044234731588231848719
86,2959.43143407093485619921479190432507,2958.0,1.43143407093485619921479190432507
87,3028.63376397787738701407636834492456,3027.2,1.43376397787738701407636834492456
88,3098.63606720995954375458901474686509,3097.2,1.43606720995954375458901474686509
89,3169.43834437138266858675121288945034,3168.0,1.43834437138266858675121288945034
90,3241.04059604604103061296834883753883,3239.6,1.44059604604103061296834883753883
91,3313.44282279842208626260571363048331,3312.0,1.44282279842208626260571363048331
92,3386.64502517445738257839081036255442,3385.2,1.44502517445738257839081036255442
93,3460.64720370232731738200244823921197,3459.2,1.44720370232731738200244823921197
94,3535.44935889322272737344608678340243,3534.0,1.44935889322272737344608678340243
95,3611.05149124206605406478587648807156,3609.6,1.45149124206605406478587648807156
96,3687.45360122819463562668754434119668,3686.0,1.45360122819463562668754434119668
97,3764.65568931600848838411650189882008,3763.2,1.45568931600848838411650189882008
98,3842.65775595558476882324114089653852,3841.2,1.45775595558476882324114089653852
99,3921.45980158326095349940187765783804,3920.0,1.45980158326095349940187765783804
100,4001.06182662218862789559074468507826,3999.6,1.46182662218862789559074468507826
101,4081.46383148285964597673163526057440,4080.0,1.46383148285964597673163526057440
102,4162.66581656360629661033039055026305,4161.2,1.46581656360629661033039055026305
103,4244.66778225107700511045103959113156,4243.2,1.46778225107700511045103959113156
104,4327.46972892068899089726393297524962,4326.0,1.46972892068899089726393297524962
105,4411.07165693705920919065493018001364,4409.6,1.47165693705920919065493018001364
106,4495.47356665441481389214081160389322,4494.0,1.47356665441481389214081160389322
107,4580.67545841698430072738083932607037,4579.2,1.47545841698430072738083932607037
108,4666.67733255937041048201999141090585,4665.2,1.47733255937041048201999141090585
109,4753.47918940690580357006516189992182,4752.0,1.47918940690580357006516189992182
110,4841.08102927599245475387070430804966,4839.6,1.48102927599245475387070430804966
111,4929.48285247442565097361104586200703,4928.0,1.48285247442565097361104586200703
112,5018.68465930170342581048469948273093,5017.2,1.48465930170342581048469948273093
113,5108.68645004932220857209995424130254,5107.2,1.48645004932220857209995424130254
114,5199.48822500105941723073610925196983,5198.0,1.48822500105941723073610925196983
115,5291.08998443324368399667161087071727,5289.6,1.48998443324368399667161087071727
116,5383.49172861501335397712223022199665,5382.0,1.49172861501335397712223022199665
117,5476.69345780856386565832564539907856,5475.2,1.49345780856386565832564539907856
118,5570.69517226938458091720318908479107,5569.2,1.49517226938458091720318908479107
119,5665.49687224648559855531333454597158,5664.0,1.49687224648559855531333454597158
120,5761.09855798261505950557637461519259,5759.6,1.49855798261505950557637461519259
121,5857.50022971446741359500562609711566,5856.0,1.50022971446741359500562609711566
122,5954.70188767288309883354767782505895,5953.2,1.50188767288309883354767782505895
123,6052.70353208304005200620217914701400,6051.2,1.50353208304005200620217914701400
124,6151.50516316463745166578305631086324,6150.0,1.50516316463745166578305631086324
125,6251.10678113207206505741987330644435,6249.6,1.50678113207206505741987330644435
126,6351.50838619460755530860056196257805,6350.0,1.50838619460755530860056196257805
127,6452.70997855653708464067030468444721,6451.2,1.50997855653708464067030468444721
128,6554.71155841733952677051146577691667,6553.2,1.51155841733952677051146577691667
129,6657.51312597182958959789140932842534,6656.0,1.51312597182958959789140932842534
130,6761.11468141030213089209772252792436,6759.6,1.51468141030213089209772252792436
131,6865.51622491867093428736230201150705,6864.0,1.51622491867093428736230201150705
132,6970.71775667860219791937491189818620,6969.2,1.51775667860219791937491189818620
133,7076.71927686764297625360310520734409,7075.2,1.51927686764297625360310520734409
134,7183.52078565934480438017612324753588,7182.0,1.52078565934480438017612324753588
135,7291.12228322338271594174824629060858,7289.6,1.52228322338271594174824629060858
136,7399.52376972566986217322669515241486,7398.0,1.52376972566986217322669515241486
137,7508.72524532846792622430528950724957,7507.2,1.52524532846792622430528950724957
138,7618.72671019049351332375482817423696,7617.2,1.52671019049351332375482817423696
139,7729.52816446702069523851534356719999,7728.0,1.52816446702069523851534356719999
140,7841.12960830997987203466709568052420,7839.6,1.52960830997987203466709568052420
141,7953.53104186805310958986742448788914,7952.0,1.53104186805310958986742448788914
142,8066.73246528676610323357318392689047,8065.2,1.53246528676610323357318392689047
143,8180.73387870857690924119945655098363,8179.2,1.53387870857690924119945655098363
144,8295.53528227296157872872809994964628,8294.0,1.53528227296157872872809994964628
145,8411.13667611649682430652072869862107,8409.6,1.53667611649682430652072869862107
146,8527.53806037293984198233960879966369,8526.0,1.53806037293984198233960879966369
147,8644.73943517330540260061409998824238,8643.2,1.53943517330540260061409998824238
148,8762.74080064594032814695695723121135,8761.2,1.54080064594032814695695723121135
149,8881.54215691659545471886028310715757,8880.0,1.54215691659545471886028310715757
150,9001.14350410849518580342415439790319,8999.6,1.54350410849518580342415439790319
151,9121.54484234240473177634660266825397,9120.0,1.54484234240473177634660266825397
152,9242.74617173669512592131956174278797,9241.2,1.54617173669512592131956174278797
153,9364.74749240740610591949827533128570,9363.2,1.54749240740610591949827533128570
154,9487.54880446830694470825997961710188,9486.0,1.54880446830694470825997961710188
155,9611.15010803095530894521764055295746,9609.6,1.55010803095530894521764055295746
156,9735.55140320475422294382456847562447,9734.0,1.55140320475422294382456847562447
157,9860.75269009700720912714585089367647,9859.2,1.55269009700720912714585089367647
158,9986.75396881297167681786971989641423,9985.2,1.55396881297167681786971989641423
159,10113.5552394559106230373643213321001,10112.0,1.5552394559106230373643213321001
160,10241.1565021271427116512893787466835,10239.6,1.5565021271427116512893787466835
161,10369.5577569260907893578536515092833,10368.0,1.5577569260907893578536515092833
162,10498.7590039503288979797893452831586,10497.2,1.5590039503288979797893452831586
163,10628.7602432956278379133128276667100,10627.2,1.5602432956278379133128276667100
164,10759.5614750559993373706363145659121,10758.0,1.5614750559993373706363145659121
165,10891.1626993237388760162180011359216,10889.6,1.5626993237388760162180011359216
166,11023.5639161894672135123094157252264,11022.0,1.5639161894672135123094157252264
167,11156.7651257421706702060891087628909,11155.2,1.5651257421706702060891087628909
168,11290.7663280692402026472659329935920,11289.2,1.5663280692402026472659329935920
169,11425.5675232565093189982125801977504,11424.0,1.5675232565093189982125801977504
170,11561.1687113882908740797145593557963,11559.6,1.5687113882908740797145593557963
171,11697.5698925474127842467654582616067,11696.0,1.5698925474127842467654582616067
172,11834.7710668152526999610359458111083,11833.2,1.5710668152526999610359458111083
173,11972.7722342717716714623172241834007,11971.2,1.5722342717716714623172241834007
174,12111.5733949955468433824224908870964,12110.0,1.5733949955468433824224908870964
175,12251.1745490638032122864491955395465,12249.6,1.5745490638032122864491955395465
176,12391.5756965524444768477245933939276,12390.0,1.5756965524444768477245933939276
177,12532.7768375360830139169417237853829,12531.2,1.5768375360830139169417237853829
178,12674.7779720880690096398516532570824,12673.2,1.5779720880690096398516532570824
179,12817.5791002805187720684274037090074,12816.0,1.5791002805187720684274037090074
180,12961.1802221843422562118680365050608,12959.6,1.5802221843422562118680365050608
181,13105.5813378692698241759986245797302,13104.0,1.5813378692698241759986245797302
182,13250.7824474038782680864210132892141,13249.2,1.5824474038782680864210132892141
183,13396.7835508556161188446586910070844,13395.2,1.5835508556161188446586910070844
184,13543.5846482908282649588013163737953,13542.0,1.5846482908282649588013163737953
185,13691.1857397747799032567413587836530,13689.6,1.5857397747799032567413587836530
186,13839.5868253716798424505917469723879,13838.0,1.5868253716798424505917469723879
187,13988.7879051447031833527507080336697,13987.2,1.5879051447031833527507080336697
188,14138.7889791560133911798974439856981,14137.2,1.5889791560133911798974439856981
189,14289.5900474667837836759751151918179,14288.0,1.5900474667837836759751151918179
190,14441.1911101372184507052045511236053,14439.6,1.5911101372184507052045511236053
191,14593.5921672265726245376459373016886,14592.0,1.5921672265726245376459373016886
192,14746.7932187931725172094760576733982,14745.2,1.5932187931725172094760576733982
193,14900.7942648944346432617932072767488,14899.2,1.5942648944346432617932072767488
194,15055.5953055868846411986957218894417,15054.0,1.5953055868846411986957218894417
195,15211.1963409261756115969558673456930,15209.6,1.5963409261756115969558673456930
196,15367.5973709671059855591512071975513,15366.0,1.5973709671059855591512071975513
197,15524.7983957636369378855362670909388,15523.2,1.5983957636369378855362670909388
198,15682.7994153689093591265952353316593,15681.2,1.5994153689093591265952353316593
199,15841.6004298352603993500905444344797,15840.0,1.6004298352603993500905444344797
200,16001.2014392142395975627680229435786,15999.6,1.6014392142395975627680229435786
201,16161.6024435566246077630968878407417,16160.0,1.6024435566246077630968878407417
202,16322.8034429124365350011552060555968,16321.2,1.6034429124365350011552060555968
203,16484.8044373309548921003426698853121,16483.2,1.6044373309548921003426698853121
204,16647.6054268607321886557813734415979,16646.0,1.6054268607321886557813734415979
205,16811.2064115496081622747164265739958,16809.6,1.6064115496081622747164265739958
206,16975.6073914447236650776124718907211,16974.0,1.6073914447236650776124718907211
207,17140.8083665925342113305713084089967,17139.2,1.6083665925342113305713084089967
208,17306.8093370388232004304746080866769,17305.2,1.6093370388232004304746080866769
209,17473.6103028287148209856788126964572,17472.0,1.6103028287148209856788126964572
210,17641.2112640066866474878606820981977,17639.6,1.6112640066866474878606820981977
211,17809.6122206165819369339693835382391,17808.0,1.6122206165819369339693835382391
212,17978.8131727016216356254067195658405,17977.2,1.6131727016216356254067195658405
213,18148.8141203044161005223226264566919,18147.2,1.6141203044161005223226264566919
214,18319.6150634669765501287092674041801,18318.0,1.6150634669765501287092674041801
215,18491.2160022307262441145175277121013,18489.6,1.6160022307262441145175277121013
216,18663.6169366365114056292459676388873,18662.0,1.6169366365114056292459676388873
217,18836.8178667246118902660370679018079,18835.2,1.6178667246118902660370679018079
218,19010.8187925347516106487230810006004,19009.2,1.6187925347516106487230810006004
219,19185.6197141061087199147495988437563,19184.0,1.6197141061087199147495988437563
220,19361.2206314773255666020970447328147,19359.6,1.6206314773255666020970447328147
221,19537.6215446865184188424818611497168,19536.0,1.6215446865184188424818611497168
222,19714.8224537712869750581948668244124,19713.2,1.6224537712869750581948668244124
223,19892.8233587687236547233999085511924,19891.2,1.6233587687236547233999085511924
224,20071.6242597154226842491827215158304,20070.0,1.6242597154226842491827215158304
225,20251.2251566474889805488840647668593,20249.6,1.6251566474889805488840647668593
226,20431.6260496005468358216497363519156,20430.0,1.6260496005468358216497363519156
227,20612.8269386097484121970352485904573,20611.2,1.6269386097484121970352485904573
228,20794.8278237097820480508559081196892,20793.2,1.6278237097820480508559081196892
229,20977.6287049348803831444170421219289,20976.0,1.6287049348803831444170421219289
230,21161.2295823188283072733519859684989,21159.6,1.6295823188283072733519859684989
231,21345.6304558949707342153216786481817,21344.0,1.6304558949707342153216786481817
232,21530.8313256962202113854796683621958,21529.2,1.6313256962202113854796683621958
233,21716.8321917550643601851900947468726,21715.2,1.6321917550643601851900947468726
234,21903.6330541035731631900473117840382,21902.0,1.6330541035731631900473117840382
235,22091.2339127734060913482799755912501,22089.6,1.6339127734060913482799755912501
236,22279.6347677958190808882903707125529,22278.0,1.6347677958190808882903707125529
237,22468.8356192016713635554380324871106,22467.2,1.6356192016713635554380324871106
238,22658.8364670214321519090609061052512,22657.2,1.6364670214321519090609061052512
