Eigenstate,Energy,Kinetic Energy,Potential Energy
1,0.500000000015948619407702208989431432,0.0,0.500000000015948619407702208989431432
2,1.84623093775521886094385689112811335,1.2,0.64623093775521886094385689112811335
3,3.93633761001077312605347744401008990,3.2,0.73633761001077312605347744401008990
4,6.79966527845117930273298285361344575,6.0,0.79966527845117930273298285361344575
5,10.4480465763889955177701518403475883,9.6,0.8480465763889955177701518403475883
6,14.8870659985775277558337230391174875,14.0,0.8870659985775277558337230391174875
7,20.1197208264543089650111898871482504,19.2,0.9197208264543089650111898871482504
8,26.1477838463959533350631416574088390,25.2,0.9477838463959533350631416574088390
9,32.9723835574085508191652975575850760,32.0,0.9723835574085508191652975575850760
10,40.5942802136405557837893970295017879,39.6,0.9942802136405557837893970295017879
11,49.0140093852329282758968717362862152,48.0,1.0140093852329282758968717362862152
12,58.2319621674902412720522142532382946,57.2,1.0319621674902412720522142532382946
13,68.2484326904782592028787298982034284,67.2,1.0484326904782592028787298982034284
14,79.0636476518800918420824177259024358,78.0,1.0636476518800918420824177259024358
15,90.6777854328103745824915581464207076,89.6,1.0777854328103745824915581464207076
16,103.090988902685710673094687869891886,102.0,1.090988902685710673094687869891886
17,116.303374252686173814160643193715251,115.2,1.103374252686173814160643193715251
18,130.315037246761506540554836766632628,129.2,1.115037246761506540554836766632628
19,145.126057744735097163072297988448403,144.0,1.126057744735097163072297988448403
20,160.736503039937915779452666668469698,159.6,1.136503039937915779452666668469698
21,177.146430365290211171115763867373896,176.0,1.146430365290211171115763867373896
22,194.355888804460250748533840725800040,193.2,1.155888804460250748533840725800040
23,212.364920769800845078633039591051515,211.2,1.164920769800845078633039591051515
24,231.173563159749769955603297418885966,230.0,1.173563159749769955603297418885966
25,250.781848275625692730765660057316001,249.6,1.181848275625692730765660057316001
26,271.189804555435760019773555209239576,270.0,1.189804555435760019773555209239576
27,292.397457166838173507540437129483998,291.2,1.197457166838173507540437129483998
28,314.404828490501229764388576636667064,313.2,1.204828490501229764388576636667064
29,337.211938517305272166935700882577139,336.0,1.211938517305272166935700882577139
30,360.818805177184515449002978138077670,359.6,1.218805177184515449002978138077670
31,385.225444613259764908504269125248312,384.0,1.225444613259764908504269125248312
32,410.431871411835152712098336318993621,409.2,1.231871411835152712098336318993621
33,436.438098796522365935661380263860648,435.2,1.238098796522365935661380263860648
34,463.244138793005294712790832570678919,462.0,1.244138793005294712790832570678919
35,490.850002369618833798095009365708826,489.6,1.250002369618833798095009365708826
36,519.255699557882091973668625248163958,518.0,1.255699557882091973668625248163958
37,548.461239556322179178794829143552000,547.2,1.261239556322179178794829143552000
38,578.466630820294322499900243570429342,577.2,1.266630820294322499900243570429342
39,609.271881140006213508373874222995560,608.0,1.271881140006213508373874222995560
40,640.876997708558668650398132344172683,639.6,1.276997708558668650398132344172683
41,673.281987181497934119286169142572399,672.0,1.281987181497934119286169142572399
42,706.486855729119974039368803216641279,705.2,1.286855729119974039368803216641279
43,740.491609082560594445602656537134425,739.2,1.291609082560594445602656537134425
44,775.296252574537161527603867113652294,774.0,1.296252574537161527603867113652294
45,810.900791175470103037845351201792797,809.6,1.300791175470103037845351201792797
46,847.305229525599245481187719584828248,846.0,1.305229525599245481187719584828248
47,884.509571963616563090603962401771758,883.2,1.309571963616563090603962401771758
48,922.513822552259328229727898797841062,921.2,1.313822552259328229727898797841062
49,961.317985101242990318975033356319911,960.0,1.317985101242990318975033356319911
50,1000.92206318785898766834391404311258,999.6,1.32206318785898766834391404311258
51,1041.32606017551722963754426606424196,1040.0,1.32606017551722963754426606424196
52,1082.52997923047464132980778535909178,1081.2,1.32997923047464132980778535909178
53,1124.53382333695871290719904658411284,1123.2,1.33382333695871290719904658411284
54,1167.33759531086743448379424663181411,1166.0,1.33759531086743448379424663181411
55,1210.94129781220352206058912230484887,1209.6,1.34129781220352206058912230484887
56,1255.34493335638076539587683463223054,1254.0,1.34493335638076539587683463223054
57,1300.54850432452312973972157437967771,1299.2,1.34850432452312973972157437967771
58,1346.55201297286244617486605958544386,1345.2,1.35201297286244617486605958544386
59,1393.35546144132777135913889094291929,1392.0,1.35546144132777135913889094291929
60,1440.95885176140847295672793971557937,1439.6,1.35885176140847295672793971557937
61,1489.36218586336353281818353413034640,1488.0,1.36218586336353281818353413034640
62,1538.56546558284125896390359950783389,1537.2,1.36546558284125896390359950783389
63,1588.56869266696635553683395083609323,1587.2,1.36869266696635553683395083609323
64,1639.37186877994498741019626416547504,1638.0,1.37186877994498741019626416547504
65,1690.97499550823294129608458779800301,1689.6,1.37499550823294129608458779800301
66,1743.37807436530713786171827512189030,1742.0,1.37807436530713786171827512189030
67,1796.58110679607648706881426989774237,1795.2,1.38110679607648706881426989774237
68,1850.58409418096432279073394305755679,1849.2,1.38409418096432279073394305755679
69,1905.38703783969134009133351904275608,1904.0,1.38703783969134009133351904275608
70,1960.98993903478503028118379587092513,1959.6,1.38993903478503028118379587092513
71,2017.39279897483901016309410738895357,2016.0,1.39279897483901016309410738895357
72,2074.59561881754334363649622792276694,2073.2,1.39561881754334363649622792276694
73,2132.59839967250490082384069779179200,2131.2,1.39839967250490082384069779179200
74,2191.40114260387498103360568507213560,2190.0,1.40114260387498103360568507213560
75,2251.00384863279979477341572393840852,2249.6,1.40384863279979477341572393840852
76,2311.40651873970795047001269004387604,2310.0,1.40651873970795047001269004387604
77,2372.60915386644778915440346850129712,2371.2,1.40915386644778915440346850129712
78,2434.61175491828624457232874170340045,2433.2,1.41175491828624457232874170340045
79,2497.41432276577985936020523092316409,2496.0,1.41432276577985936020523092316409
80,2561.01685824652764980104943477969278,2559.6,1.41685824652764980104943477969278
81,2625.41936216681466233341436535336418,2624.0,1.41936216681466233341436535336418
82,2690.62183530315430353581739390780828,2689.2,1.42183530315430353581739390780828
83,2756.62427840373683657534772173942559,2755.2,1.42427840373683657534772173942559
84,2823.42669218979081281742592037380470,2822.0,1.42669218979081281742592037380470
85,2891.02907735686364801751436124567552,2889.6,1.42907735686364801751436124567552
86,2959.43143457602703665018810155568487,2958.0,1.43143457602703665018810155568487
87,3028.63376449501244046017591995137793,3027.2,1.43376449501244046017591995137793
88,3098.63606773928146394224556914017461,3097.2,1.43606773928146394224556914017461
89,3169.43834491303554595464583252400637,3168.0,1.43834491303554595464583252400637
90,3241.04059660016905345408870792772040,3239.6,1.44059660016905345408870792772040
91,3313.44282336516954188820437963463955,3312.0,1.44282336516954188820437963463955
92,3386.64502575396865848386252325330906,3385.2,1.44502575396865848386252325330906
93,3460.64720429474690241469788038192713,3459.2,1.44720429474690241469788038192713
94,3535.44935949869521290243993761009745,3534.0,1.44935949869521290243993761009745
95,3611.05149186073613515261755117150707,3609.6,1.45149186073613515261755117150707
96,3687.45360186020711220309295108511164,3686.0,1.45360186020711220309295108511164
97,3764.65568996150826642176992899460862,3763.2,1.45568996150826642176992899460862
98,3842.65775661471686151552635869969086,3841.2,1.45775661471686151552635869969086
99,3921.45980225617048244023202972301384,3920.0,1.45980225617048244023202972301384
100,4001.06182730902082426129675855814414,3999.6,1.46182730902082426129675855814414
101,4081.46383218375985171003921650268249,4080.0,1.46383218375985171003921650268249
102,4162.66581727871996560644588465837142,4161.2,1.46581727871996560644588465837142
103,4244.66778298054970440527664118305160,4243.2,1.46778298054970440527664118305160
104,4327.46972966466640185776307183883828,4326.0,1.46972966466640185776307183883828
105,4411.07165769568712870738872968145727,4409.6,1.47165769568712870738872968145727
106,4495.47356742783915557399682133164022,4494.0,1.47356742783915557399682133164022
107,4580.67545920535109609851541437557382,4579.2,1.47545920535109609851541437557382
108,4666.67733336282581018103585742193929,4665.2,1.47733336282581018103585742193929
109,4753.47919022559607855144595212609304,4752.0,1.47919022559607855144595212609304
110,4841.08103011006399749169435899597281,4839.6,1.48103011006399749169435899597281
111,4929.48285332402497666756418713319048,4928.0,1.48285332402497666756418713319048
112,5018.68466016697717359420025776826424,5017.2,1.48466016697717359420025776826424
113,5108.68645093041714272384045094525246,5107.2,1.48645093041714272384045094525246
114,5199.48822589812242838644519817741752,5198.0,1.48822589812242838644519817741752
115,5291.08998534642179036541662316340545,5289.6,1.48998534642179036541662316340545
116,5383.49172954445370255895060817939289,5382.0,1.49172954445370255895060817939289
117,5476.69345875441373346455829434487536,5475.2,1.49345875441373346455829434487536
118,5570.69517323179137619318796047565448,5569.2,1.49517323179137619318796047565448
119,5665.49687322559686200566192918816955,5664.0,1.49687322559686200566192918816955
120,5761.09855897857846552190815509662461,5759.6,1.49855897857846552190815509662461
121,5857.50023072743077148622194062993245,5856.0,1.50023072743077148622194062993245
122,5954.70188870299435405866041907535603,5953.2,1.50188870299435405866041907535603
123,6052.70353313044728740974046135813190,6051.2,1.50353313044728740974046135813190
124,6151.50516422948888871580199921988001,6150.0,1.50516422948888871580199921988001
125,6251.10678221451606508613563457875141,6249.6,1.50678221451606508613563457875141
126,6351.50838729479262075567587427640235,6350.0,1.50838729479262075567587427640235
127,6452.70997967461186029917490429935197,6451.2,1.50997967461186029917490429935197
128,6554.71155955345280103558194115998449,6553.2,1.51155955345280103558194115998449
129,6657.51312712613029571811509264243588,6656.0,1.51312712613029571811509264243588
130,6761.11468258293934822364538985562443,6759.6,1.51468258293934822364538985562443
131,6865.51622610979388955089457847364705,6864.0,1.51622610979388955089457847364705
132,6970.71775788836026645974743644830129,6969.2,1.51775788836026645974743644830129
133,7076.71927809618568330239549316998895,7075.2,1.51927809618568330239549316998895
134,7183.52078690682182632107008263550768,7182.0,1.52078690682182632107008263550768
135,7291.12228448994388157878022279297321,7289.6,1.52228448994388157878022279297321
136,7399.52377101146515400194047519355144,7398.0,1.52377101146515400194047519355144
137,7508.72524663364748170583027881127737,7507.2,1.52524663364748170583027881127737
138,7618.72671151520762616183571569711798,7617.2,1.52671151520762616183571569711798
139,7729.52816581141981665951902118174749,7728.0,1.52816581141981665951902118174749
140,7841.12960967421461207059288117552351,7839.6,1.52960967421461207059288117552351
141,7953.53104325227423836438663558006276,7952.0,1.53104325227423836438663558006276
142,8066.73246669112455225112435491669311,8065.2,1.53246669112455225112435491669311
143,8180.73388013322377267916556101885951,8179.2,1.53388013322377267916556101885951
144,8295.53528371804811473272227254946863,8294.0,1.53528371804811473272227254946863
145,8411.13667758217445628880707083201458,8409.6,1.53667758217445628880707083201458
146,8527.53806185936015992341585955532686,8526.0,1.53806185936015992341585955532686
147,8644.73943668062016435398303543476276,8643.2,1.53943668062016435398303543476276
148,8762.74080217430146074711346403884338,8761.2,1.54080217430146074711346403884338
149,8881.54215846615505569252131181267557,8880.0,1.54215846615505569252131181267557
150,9001.14350567940552448402866408497177,8999.6,1.54350567940552448402866408497177
151,9121.54484393481825062185302207104127,9120.0,1.54484393481825062185302207104127
152,9242.74617335076444183532815619482124,9241.2,1.54617335076444183532815619482124
153,9364.74749404328401157572610694518058,9363.2,1.54749404328401157572610694518058
154,9487.54880612614640987839618007367034,9486.0,1.54880612614640987839618007367034
155,9611.15010971090948183018689353584754,9609.6,1.55010971090948183018689353584754
156,9735.55140490697643150848688260750341,9734.0,1.55140490697643150848688260750341
157,9860.75269182165096243846067035093920,9859.2,1.55269182165096243846067035093920
158,9986.75397056019066638655275486294282,9985.2,1.55397056019066638655275486294282
159,10113.5552412258587241630654450069210,10112.0,1.5552412258587241630654450069210
160,10241.1565039199739847713201815885667,10239.6,1.5565039199739847713201815885667
161,10369.5577587419594813994933223149149,10368.0,1.5577587419594813994933223149149
162,10498.7590057893894437161977447670488,10497.2,1.5590057893894437161977447670488
163,10628.7602451580348613230796420140313,10627.2,1.5602451580348613230796420140313
164,10759.5614769419076530009954225466092,10758.0,1.5614769419076530009954225466092
165,10891.1627012333034903499563577650290,10889.6,1.5627012333034903499563577650290
166,11023.5639181228433263383997276490333,11022.0,1.5639181228433263383997276490333
167,11156.7651276995136759940758351726821,11155.2,1.5651276995136759940758351726821
168,11290.7663300507056919254343768713809,11289.2,1.5663300507056919254343768713809
169,11425.5675252622530797355707225450629,11424.0,1.5675252622530797355707225450629
170,11561.1687134184688930718177292942239,11559.6,1.5687134184688930718177292942239
171,11697.5698946021812485054138114215600,11696.0,1.5698946021812485054138114215600
172,11834.7710688947679981078751055530361,11833.2,1.5710688947679981078751055530361
173,11972.7722363761903951263723553043141,11971.2,1.5722363761903951263723553043141
174,12111.5733971250257886015964206752471,12110.0,1.5733971250257886015964206752471
175,12251.1745512184993809130152581924663,12249.6,1.5745512184993809130152581924663
176,12391.5756987325150779578450175353757,12390.0,1.5756987325150779578450175353757
177,12532.7768397416854652242425645894635,12531.2,1.5768397416854652242425645894635
178,12674.7779743193609389130854057571622,12673.2,1.5779743193609389130854057571622
179,12817.5791025376580185532545944546973,12816.0,1.5791025376580185532545944546973
180,12961.1802244674868720567892609557866,12959.6,1.5802244674868720567892609557866
181,13105.5813401785780758624686250029942,13104.0,1.5813401785780758624686250029942
182,13250.7824497395086378631765525424922,13249.2,1.5824497395086378631765525424922
183,13396.7835532177273061662921888122876,13395.2,1.5835532177273061662921888122876
184,13543.5846506795791879286122792014473,13542.0,1.5846506795791879286122792014473
185,13691.1857421903297000738979669626096,13689.6,1.5857421903297000738979669626096
186,13839.5868278141878728616348665140710,13838.0,1.5868278141878728616348665140710
187,13988.7879076143290301074730059057765,13987.2,1.5879076143290301074730059057765
188,14138.7889816529168614916303218630580,14137.2,1.5889816529168614916303218630580
189,14289.5900499911249106863163615072810,14288.0,1.5900499911249106863163615072810
190,14441.1911126891574949532198390548402,14439.6,1.5911126891574949532198390548402
191,14593.5921698062700754335773570000271,14592.0,1.5921698062700754335773570000271
192,14746.7932214007890945129911707349934,14745.2,1.5932214007890945129911707349934
193,14900.7942675301312985648081574836784,14899.2,1.5942675301312985648081574836784
194,15055.5953082508225594128062375634800,15054.0,1.5953082508225594128062375634800
195,15211.1963436185162124455100520002502,15209.6,1.5963436185162124455100520002502
196,15367.5973736880109250739982521065751,15366.0,1.5973736880109250739982521065751
197,15524.7983985132681099084854202591664,15523.2,1.5983985132681099084854202591664
198,15682.7994181474288968156194455608862,15681.2,1.5994181474288968156194455608862
199,15841.6004326428306766903095362212408,15840.0,1.6004326428306766903095362212408
200,16001.2014420510232308822455897064015,15999.6,1.6014420510232308822455897064015
201,16161.6024464227844572534873896180084,16160.0,1.6024464227844572534873896180084
202,16322.8034458081357062432346336471798,16321.2,1.6034458081357062432346336471798
203,16484.8044402563567375944595290054092,16483.2,1.6044402563567375944595290054092
204,16647.6054298160003093572631324492534,16646.0,1.6054298160003093572631324492534
205,16811.2064145349064091342671363013760,16809.6,1.6064145349064091342671363013760
206,16975.6073944602161405867377011632954,16974.0,1.6073944602161405867377011632954
207,17140.8083696383852710720664834948597,17139.2,1.6083696383852710720664834948597
208,17306.8093401151974546340131513359474,17305.2,1.6093401151974546340131513359474
209,17473.6103059357771360885366394027986,17472.0,1.6103059357771360885366394027986
210,17641.2112671446021477008138409817210,17639.6,1.6112671446021477008138409817210
211,17809.6122237855160058124017898877102,17808.0,1.6122237855160058124017898877102
212,17978.8131759017399176456650999307505,17977.2,1.6131759017399176456650999307505
213,18148.8141235358845026633561629921600,18147.2,1.6141235358845026633561629921600
214,18319.6150667299612434590314060863918,18318.0,1.6150667299612434590314060863918
215,18491.2160055253936653845278021617288,18489.6,1.6160055253936653845278021617288
216,18663.6169399630282588689498345074754,18662.0,1.6169399630282588689498345074754
217,18836.8178700831451483882019275027845,18835.2,1.6178700831451483882019275027845
218,19010.8187959254685170575088728256804,19009.2,1.6187959254685170575088728256804
219,19185.6197175291767901198527071375452,19184.0,1.6197175291767901198527071375452
220,19361.2206349329125898384462619767475,19359.6,1.6206349329125898384462619767475
221,19537.6215481747924596955255046503213,19536.0,1.6215481747924596955255046503213
222,19714.8224572924163750948183741360294,19713.2,1.6224572924163750948183741360294
223,19892.8233623228770341285133676178168,19891.2,1.6233623228770341285133676178168
224,20071.6242633027689434680180549742298,20070.0,1.6242633027689434680180549742298
225,20251.2251602681973019350419098570255,20249.6,1.6251602681973019350419098570255
226,20431.6260532547866852909361179157802,20430.0,1.6260532547866852909361179157802
227,20612.8269422976895408871284711201196,20611.2,1.6269422976895408871284711201196
228,20794.8278274315944939868443479694525,20793.2,1.6278274315944939868443479694525
229,20977.6287086907344729102486695584695,20976.0,1.6287086907344729102486695584695
230,21161.2295861088946576892367598463927,21159.6,1.6295861088946576892367598463927
231,21345.6304597194202540211281192214618,21344.0,1.6304597194202540211281192214618
232,21530.8313295552241029301672464943400,21529.2,1.6313295552241029301672464943400
233,21716.8321956487941211223192243294419,21715.2,1.6321956487941211223192243294419
234,21903.6330580322005881794090426100084,21902.0,1.6330580322005881794090426100084
235,22091.2339167371032737636876884246970,22089.6,1.6339167371032737636876884246970
236,22279.6347717947584145315759492518979,22278.0,1.6347717947584145315759492518979
237,22468.8356232360255443766954938275605,22467.2,1.6356232360255443766954938275605
238,22658.8364710913741797331803932520491,22657.2,1.6364710913741797331803932520491
