Eigenstate,Energy,Kinetic Energy,Potential Energy
1,0.500000000029532282947828287781751168,0.0,0.500000000029532282947828287781751168
2,1.84623093784388589606011599456035530,1.2,0.64623093784388589606011599456035530
3,3.93633761027122519781766862244288300,3.2,0.73633761027122519781766862244288300
4,6.79966527899367068852980289357585503,6.0,0.79966527899367068852980289357585503
5,10.4480465773287004193989111935455204,9.6,0.8480465773287004193989111935455204
6,14.8870660000316353031712269455413637,14.0,0.8870660000316353031712269455413637
7,20.1197208285409525403986202678421966,19.2,0.9197208285409525403986202678421966
8,26.1477838492337637614616935526903244,25.2,0.9477838492337637614616935526903244
9,32.9723835611164483204400314142378262,32.0,0.9723835611164483204400314142378262
10,40.5942802183376441449601408527601721,39.6,0.9942802183376441449601408527601721
11,49.0140093910384371143164607481479863,48.0,1.0140093910384371143164607481479863
12,58.2319621745234928250401250375593288,57.2,1.0319621745234928250401250375593288
13,68.2484326988586484620653863307706354,67.2,1.0484326988586484620653863307706354
14,79.0636476617270743686695385916264686,78.0,1.0636476617270743686695385916264686
15,90.6777854442434589561300901465483422,89.6,1.0777854442434589561300901465483422
16,103.090988915824453851244053647732195,102.0,1.090988915824453851244053647732195
17,116.303374267650178384555312918883003,115.2,1.103374267650178384555312918883003
18,130.315037263670419243117358158952131,129.2,1.115037263670419243117358158952131
19,145.126057763708608286177982620134955,144.0,1.126057763708608286177982620134955
20,160.736503061095759172881409404254504,159.6,1.136503061095759172881409404254504
21,177.146430388752164703269152862785551,176.0,1.146430388752164703269152862785551
22,194.355888830346137089854673204375790,193.2,1.155888830346137089854673204375790
23,212.364920798230532728701198669789560,211.2,1.164920798230532728701198669789560
24,231.173563190843174455140038040776661,230.0,1.173563190843174455140038040776661
25,250.781848309502778015987095845403071,249.6,1.181848309502778015987095845403071
26,271.189804592216539887798071733931563,270.0,1.189804592216539887798071733931563
27,292.397457206642713169515203563288807,291.2,1.197457206642713169515203563288807
28,314.404828533449647468713482246871447,313.2,1.204828533449647468713482246871447
29,337.211938563517740879121813594451188,336.0,1.211938563517740879121813594451188
30,360.818805226781264577769695290976307,359.6,1.218805226781264577769695290976307
31,385.225444666361082070008766816236834,384.0,1.225444666361082070008766816236834
32,410.431871468561385525919107833242974,409.2,1.231871468561385525919107833242974
33,436.438098856993923847475835970891570,435.2,1.238098856993923847475835970891570
34,463.244138857342650839702165885513780,462.0,1.244138857342650839702165885513780
35,490.850002437942526793352567051154889,489.6,1.250002437942526793352567051154889
36,519.255699630312727908144444568808763,518.0,1.255699630312727908144444568808763
37,548.461239632980433437067612871800977,547.2,1.261239632980433437067612871800977
38,578.466630901300941689186949998674232,577.2,1.266630901300941689186949998674232
39,609.271881225482017378860830555056559,608.0,1.271881225482017378860830555056559
40,640.876997798624552025775150890061398,639.6,1.276997798624552025775150890061398
41,673.281987276274868836491373911807821,672.0,1.281987276274868836491373911807821
42,706.486855828729010896718726392270945,705.2,1.286855828729010896718726392270945
43,740.491609187122865158619205604645891,739.2,1.291609187122865158619205604645891
44,775.296252684173880691962920803200169,774.0,1.296252684173880691962920803200169
45,810.900791290302570098965671645314261,809.6,1.300791290302570098965671645314261
46,847.305229645748846710057217966689885,846.0,1.305229645748846710057217966689885
47,884.509572089204773565505976629651661,883.2,1.309572089204773565505976629651661
48,922.513822683407713823585394882331970,921.2,1.313822683407713823585394882331970
49,961.317985238073209692077315905299505,960.0,1.317985238073209692077315905299505
50,1000.92206333049279426626003896253997,999.6,1.32206333049279426626003896253997
51,1041.32606032407647369406110789857667,1040.0,1.32606032407647369406110789857667
52,1082.52997938508127187475956087799324,1081.2,1.32997938508127187475956087799324
53,1124.53382349773477977907983752387196,1123.2,1.33382349773477977907983752387196
54,1167.33759547793509034706641894288446,1166.0,1.33759547793509034706641894288446
55,1210.94129798568502442761893440444231,1209.6,1.34129798568502442761893440444231
56,1255.34493353639847865344452007119372,1254.0,1.34493353639847865344452007119372
57,1300.54850451119952718006703824716336,1299.2,1.34850451119952718006703824716336
58,1346.55201316632011203124350903987991,1345.2,1.35201316632011203124350903987991
59,1393.35546164168940284586425043300308,1392.0,1.35546164168940284586425043300308
60,1440.95885196879688231371225449942059,1439.6,1.35885196879688231371225449942059
61,1489.36218607790164935995373305174444,1488.0,1.36218607790164935995373305174444
62,1538.56546580465213113311924379232042,1537.2,1.36546580465213113311924379232042
63,1588.56869289617315296231497706166901,1587.2,1.36869289617315296231497706166901
64,1639.37186901667100296948240074489556,1638.0,1.37186901667100296948240074489556
65,1690.97499575260159318255223242665485,1689.6,1.37499575260159318255223242665485
66,1743.37807461744197165628508952107138,1742.0,1.37807461744197165628508952107138
67,1796.58110705610117781626582267141718,1795.2,1.38110705610117781626582267141718
68,1850.58409444900267708071034124794253,1849.2,1.38409444900267708071034124794253
69,1905.38703811586729814401729324991685,1904.0,1.38703811586729814401729324991685
70,1960.98993931922266803773315666838968,1959.6,1.38993931922266803773315666838968
71,2017.39279926766254138086850056871060,2016.0,1.39279926766254138086850056871060
72,2074.59561911887712198912340784795743,2073.2,1.39561911887712198912340784795743
73,2132.59839998247342200617686182595468,2131.2,1.39839998247342200617686182595468
74,2191.40114292260288487164216723841128,2190.0,1.40114292260288487164216723841128
75,2251.00384896041186733918764358951970,2249.6,1.40384896041186733918764358951970
76,2311.40651907632912620156661183502960,2310.0,1.40651907632912620156661183502960
77,2372.60915421220315298088273308858582,2371.2,1.40915421220315298088273308858582
78,2434.61175527330103404423656498984104,2433.2,1.41175527330103404423656498984104
79,2497.41432313017946678490703404433620,2496.0,1.41432313017946678490703404433620
80,2561.01685862043762438357708936358104,2559.6,1.41685862043762438357708936358104
81,2625.41936255036071232263624547636043,2624.0,1.41936255036071232263624547636043
82,2690.62183569646229837603920736703336,2689.2,1.42183569646229837603920736703336
83,2756.62427880693280906341011731546509,2755.2,1.42427880693280906341011731546509
84,2823.42669260300096126536585437226673,2822.0,1.42669260300096126536585437226673
85,2891.02907778021433842085813160807172,2889.6,1.42907778021433842085813160807172
86,2959.43143500964480486194479066652984,2958.0,1.43143500964480486194479066652984
87,3028.63376493902399437060087703727648,3027.2,1.43376493902399437060087703727648
88,3098.63606819381368566444431773967299,3097.2,1.43606819381368566444431773967299
89,3169.43834537821549401608955468741616,3168.0,1.43834537821549401608955468741616
90,3241.04059707612396499411317767868482,3239.6,1.44059707612396499411317767868482
91,3313.44282385202683486156495900525424,3312.0,1.44282385202683486156495900525424
92,3386.64502625185593387041846062943628,3385.2,1.44502625185593387041846062943628
93,3460.64720480379194643529984743510651,3459.2,1.44720480379194643529984743510651
94,3535.44936001902599924109536482536341,3534.0,1.44936001902599924109536482536341
95,3611.05149239248082718500895129915545,3609.6,1.45149239248082718500895129915545
96,3687.45360240349406523152500533020326,3686.0,1.45360240349406523152500533020326
97,3764.65569051646602991662175560805360,3763.2,1.45569051646602991662175560805360
98,3842.65775718147418136328588742437908,3841.2,1.45775718147418136328588742437908
99,3921.45980283485630319819006890909577,3920.0,1.45980283485630319819006890909577
100,4001.06182789976429141897882944773381,3999.6,1.46182789976429141897882944773381
101,4081.46383278669031395745383609411364,4080.0,1.46383278669031395745383609411364
102,4162.66581789396697710922850210370900,4161.2,1.46581789396697710922850210370900
103,4244.66778360824302708680895503868176,4243.2,1.46778360824302708680895503868176
104,4327.46973030493600768834808467095583,4326.0,1.46973030493600768834808467095583
105,4411.07165834866320200056231486371300,4409.6,1.47165834866320200056231486371300
106,4495.47356809365209529005719675030290,4494.0,1.47356809365209529005719675030290
107,4580.67545988413151815535240039166492,4579.2,1.47545988413151815535240039166492
108,4666.67733405470454977234233801066205,4665.2,1.47733405470454977234233801066205
109,4753.47919093070419247239451303964737,4752.0,1.47919093070419247239451303964737
110,4841.08103082853276647216254364841303,4839.6,1.48103082853276647216254364841303
111,4929.48285405598590771299239678985003,4928.0,1.48285405598590771299239678985003
112,5018.68466091256200233416681942792541,5017.2,1.48466091256200233416681942792541
113,5108.68645168975783576843889795891181,5107.2,1.48645168975783576843889795891181
114,5199.48822667135118569054935357817679,5198.0,1.48822667135118569054935357817679
115,5291.08998613367104760091960829602323,5289.6,1.48998613367104760091960829602323
116,5383.49173034585613349506440826142868,5382.0,1.49173034585613349506440826142868
117,5476.69345957010225235626106779652788,5475.2,1.49345957010225235626106779652788
118,5570.69517406189914017790681042907307,5569.2,1.49517406189914017790681042907307
119,5665.49687407025727350827938329708772,5664.0,1.49687407025727350827938329708772
120,5761.09855983792517466818115947092114,5759.6,1.49855983792517466818115947092114
121,5857.50023160159767852470270747134550,5856.0,1.50023160159767852470270747134550
122,5954.70188959211561179120902109422261,5953.2,1.50188959211561179120902109422261
123,6052.70353403465730363071962112330822,6051.2,1.50353403465730363071962112330822
124,6151.50516514892232866004505697910830,6150.0,1.50516514892232866004505697910830
125,6251.10678314930785388577927668939037,6249.6,1.50678314930785388577927668939037
126,6351.50838824507794590594973794778229,6350.0,1.50838824507794590594973794778229
127,6452.70998064052617413324074819353970,6451.2,1.50998064052617413324074819353970
128,6554.71156053513182320851566311037800,6553.2,1.51156053513182320851566311037800
129,6657.51312812371001570012543903862187,6656.0,1.51312812371001570012543903862187
130,6761.11468359655602780262377737038692,6759.6,1.51468359655602780262377737038692
131,6865.51622713958406534439102253759694,6864.0,1.51622713958406534439102253759694
132,6970.71775893446075243646830731005423,6969.2,1.51775893446075243646830731005423
133,7076.71927915873357331331916383242075,7075.2,1.51927915873357331331916383242075
134,7183.52078798595449664027737274057226,7182.0,1.52078798595449664027737274057226
135,7291.12228558579899345409708953577654,7289.6,1.52228558579899345409708953577654
136,7399.52377212418065621549089759843719,7398.0,1.52377212418065621549089759843719
137,7508.72524776336161314459809100151664,7507.2,1.52524776336161314459809100151664
138,7618.72671266205891839833462060558108,7617.2,1.52671266205891839833462060558108
139,7729.52816697554709654267075629826870,7728.0,1.52816697554709654267075629826870
140,7841.12961085575700432691408605592816,7839.6,1.52961085575700432691408605592816
141,7953.53104445137116820958558894613929,7952.0,1.53104445137116820958558894613929
142,8066.73246790791574801220952500421699,8065.2,1.53246790791574801220952500421699
143,8180.73388136784926842716840150421077,8179.2,1.53388136784926842716840150421077
144,8295.53528497064825292613755679390720,8294.0,1.53528497064825292613755679390720
145,8411.13667885288989042785453232175459,8409.6,1.53667885288989042785453232175459
146,8527.53806314833185721522772830754619,8526.0,1.53806314833185721522772830754619
147,8644.73943798798940838882269877539087,8643.2,1.53943798798940838882269877539087
148,8762.74080350020985418573112634758604,8761.2,1.54080350020985418573112634758604
149,8881.54215981074452296475331575474721,8880.0,1.54215981074452296475331575474721
150,9001.14350704281831449874777033574811,8999.6,1.54350704281831449874777033574811
151,9121.54484531719693948837770897095184,9120.0,1.54484531719693948837770897095184
152,9242.74617475225193559639969066113876,9241.2,1.54617475225193559639969066113876
153,9364.74749546402354895216290074872300,9363.2,1.54749546402354895216290074872300
154,9487.54880756628156502553558229183090,9486.0,1.54880756628156502553558229183090
155,9611.15011117058416710622546359735116,9609.6,1.55011117058416710622546359735116
156,9735.55140638633490025483087607510765,9734.0,1.55140638633490025483087607510765
157,9860.75269332083781177219916117860473,9859.2,1.55269332083781177219916117860473
158,9986.75397207935084000516666891729504,9985.2,1.55397207935084000516666891729504
159,10113.5552427651375151614865650121775,10112.0,1.5552427651375151614865650121775
160,10241.1565054795170384714548653994933,10239.6,1.5565054795170384714548653994933
161,10369.5577603219127981923265846026356,10368.0,1.5577603219127981923265846026356
162,10498.7590073898993819165941327101651,10497.2,1.5590073898993819165941327101651
163,10628.7602467792481400373979998925912,10627.2,1.5602467792481400373979998925912
164,10759.5614785839713550076356735364354,10758.0,1.5614785839713550076356735364354
165,10891.1627028963650649929571657147788,10889.6,1.5627028963650649929571657147788
166,11023.5639198070505924342066340847003,11022.0,1.5639198070505924342066340847003
167,11156.7651294050148247516004612566538,11155.2,1.5651294050148247516004612566538
168,11290.7663317776492898795260658831578,11289.2,1.5663317776492898795260658831578
169,11425.5675270107880716940228172180285,11424.0,1.5675270107880716940228172180285
170,11561.1687151887446050760316894141751,11559.6,1.5687151887446050760316894141751
171,11697.5698963943473908048450469792187,11696.0,1.5698963943473908048450469792187
172,11834.7710707089746681483854827724808,11833.2,1.5710707089746681483854827724808
173,11972.7722382125880805526150918209723,11971.2,1.5722382125880805526150918209723
174,12111.5733989837653702735600882944500,12110.0,1.5733989837653702735600882944500
175,12251.1745530997321359368544547916105,12249.6,1.5745530997321359368544547916105
176,12391.5757006363926827311262522163605,12390.0,1.5757006363926827311262522163605
177,12532.7768416683599984957348066140603,12531.2,1.5768416683599984957348066140603
178,12674.7779762689848848572256768960660,12673.2,1.5779762689848848572256768960660
179,12817.5791045103842698594199580250620,12816.0,1.5791045103842698594199580250620
180,12961.1802264634687330335075596781898,12959.6,1.5802264634687330335075596781898
181,13105.5813421979692655567012151176251,13104.0,1.5813421979692655567012151176251
182,13250.7824517824632931948073398134108,13249.2,1.5824517824632931948073398134108
183,13396.7835552843999850779582218486213,13395.2,1.5835552843999850779582218486213
184,13543.5846527701248725510121720411162,13542.0,1.5846527701248725510121720411162
185,13691.1857443049037999067155423586234,13689.6,1.5857443049037999067155423586234
186,13839.5868299529462279702161262835399,13838.0,1.5868299529462279702161262835399
187,13988.7879097774279143353960165461253,13987.2,1.5879097774279143353960165461253
188,14138.7889838405129856893082708871537,14137.2,1.5889838405129856893082708871537
189,14289.5900522033754259557752924014281,14288.0,1.5900522033754259557752924014281
190,14441.1911149262199959091936485651643,14439.6,1.5911149262199959091936485651643
191,14593.5921720683026034810635867047231,14592.0,1.5921720683026034810635867047231
192,14746.7932236879501411414123759208736,14745.2,1.5932236879501411414123759208736
193,14900.7942698425798086589246107489115,14899.2,1.5942698425798086589246107489115
194,15055.5953105887179345805269435384551,15054.0,1.5953105887179345805269435384551
195,15211.1963459820183143627500774573488,15209.6,1.5963459820183143627500774573488
196,15367.5973760772800788467316327280307,15366.0,1.5973760772800788467316327280307
197,15524.7984009284651074521439399074751,15523.2,1.5984009284651074521439399074751
198,15682.7994205887150002519887942920166,15681.2,1.5994205887150002519887942920166
199,15841.6004351103676217620755956114414,15840.0,1.6004351103676217620755956114414
200,16001.2014445449732303853446457400912,15999.6,1.6014445449732303853446457400912
201,16161.6024489433102044874153446558950,16160.0,1.6024489433102044874153446558950
202,16322.8034483554003784794716060395455,16321.2,1.6034483554003784794716060395455
203,16484.8044428305239995631672166040193,16483.2,1.6044428305239995631672166040193
204,16647.6054324172343167524137908141009,16646.0,1.6054324172343167524137908141009
205,16811.2064171633718121373641103682083,16809.6,1.6064171633718121373641103682083
206,16975.6073971160780874092887974746860,16974.0,1.6073971160780874092887974746860
207,17140.8083723218094115169727080397318,17139.2,1.6083723218094115169727080397318
208,17306.8093428263499436760366580414117,17305.2,1.6093428263499436760366580414117
209,17473.6103086748246374740130410866667,17472.0,1.6103086748246374740130410866667
210,17641.2112699117118375667753133343831,17639.6,1.6112699117118375667753133343831
211,17809.6122265808555763252787792074918,17808.0,1.6122265808555763252787792074918
212,17978.8131787254775806597356698292251,17977.2,1.6131787254775806597356698292251
213,18148.8141263881889933991136347301257,18147.2,1.6141263881889933991136347301257
214,18319.6150696110018242016420196146367,18318.0,1.6150696110018242016420196146367
215,18491.2160084353401292025516979493761,18489.6,1.6160084353401292025516979493761
216,18663.6169429020509333535000313149389,18662.0,1.6169429020509333535000313149389
217,18836.8178730514148994127173598048515,18835.2,1.6178730514148994127173598048515
218,19010.8187989231567525583189307214175,19009.2,1.6187989231567525583189307214175
219,19185.6197205564554638977123300113952,19184.0,1.6197205564554638977123300113952
220,19361.2206379899542053812219273032039,19359.6,1.6206379899542053812219273032039
221,19537.6215512617700740222140712481324,19536.0,1.6215512617700740222140712481324
222,19714.8224604095036026210821033577999,19713.2,1.6224604095036026210821033577999
223,19892.8233654702480505539160603022709,19891.2,1.6233654702480505539160603022709
224,20071.6242664805984896851486525864239,20070.0,1.6242664805984896851486525864239
225,20251.2251634766606879607136734610179,20249.6,1.6251634766606879607136734610179
226,20431.6260564940597942196507561901015,20430.0,1.6260564940597942196507561901015
227,20612.8269455679488328669963707925265,20611.2,1.6269455679488328669963707925265
228,20794.8278307330170102181536145669616,20793.2,1.6278307330170102181536145669616
229,20977.6287120234978396668772238746613,20976.0,1.6287120234978396668772238746613
230,21161.2295894731770903631034261879310,21159.6,1.6295894731770903631034261879310
231,21345.6304631154005611898802631155612,21344.0,1.6304631154005611898802631155612
232,21530.8313329830816904483041793428510,21529.2,1.6313329830816904483041793428510
233,21716.8321991087089962359522317289848,21715.2,1.6321991087089962359522317289848
234,21903.6330615243533636648607387020675,21902.0,1.6330615243533636648607387020675
235,22091.2339202616751720901348382270321,22089.6,1.6339202616751720901348382270321
236,22279.6347753519312720479418352739282,22278.0,1.6347753519312720479418352739282
237,22468.8356268259818155229997042973371,22467.2,1.6356268259818155229997042973371
238,22658.8364747142969412765554175298811,22657.2,1.6364747142969412765554175298811
