Eigenstate,Energy,Kinetic Energy,Potential Energy
1,0.500000000000059968134956424638208322,0.0,0.500000000000059968134956424638208322
2,1.84623093765150632225316901684968663,1.2,0.64623093765150632225316901684968663
3,3.93633760970612726511602685065152736,3.2,0.73633760970612726511602685065152736
4,6.79966527781664062048837343954913352,6.0,0.79966527781664062048837343954913352
5,10.4480465752898531905591100357467691,9.6,0.8480465752898531905591100357467691
6,14.8870659968767187640938616163732224,14.0,0.8870659968767187640938616163732224
7,20.1197208240136716395537049529238120,19.2,0.9197208240136716395537049529238120
8,26.1477838430767511781598498573232977,25.2,0.9477838430767511781598498573232977
9,32.9723835530717170375237407312931156,32.0,0.9723835530717170375237407312931156
10,40.5942802081468182801873648840919162,39.6,0.9942802081468182801873648840919162
11,49.0140093784428783667429838654165774,48.0,1.0140093784428783667429838654165774
12,58.2319621592643737290313637641927836,57.2,1.0319621592643737290313637641927836
13,68.2484326806769966838053426902292225,67.2,1.0484326806769966838053426902292225
14,79.0636476403638003381935471672777101,78.0,1.0636476403638003381935471672777101
15,90.6777854194393734465977132788700421,89.6,1.0777854194393734465977132788700421
16,103.090988887320279244156272088509059,102.0,1.090988887320279244156272088509059
17,116.303374235186555828340872221078113,115.2,1.103374235186555828340872221078113
18,130.315037226987913058281826494705346,129.2,1.115037226987913058281826494705346
19,145.126057722547708474294472347013806,144.0,1.126057722547708474294472347013806
20,160.736503015196882588522894604271519,159.6,1.136503015196882588522894604271519
21,177.146430337855655263033668335553787,176.0,1.146430337855655263033668335553787
22,194.355888774192265274693754342404690,193.2,1.155888774192265274693754342404690
23,212.364920736559494558658894986087673,211.2,1.164920736559494558658894986087673
24,231.173563123395090064062847033983431,230.0,1.173563123395090064062847033983431
25,250.781848236017689918597783061795237,249.6,1.181848236017689918597783061795237
26,271.189804512434411007087569564512174,270.0,1.189804512434411007087569564512174
27,292.397457120303424675135468467506730,291.2,1.197457120303424675135468467506730
28,314.404828440292996464658756393739660,313.2,1.204828440292996464658756393739660
29,337.211938463283437969962778406686663,336.0,1.211938463283437969962778406686663
30,360.818805119208931336050670239497813,359.6,1.218805119208931336050670239497813
31,385.225444551190248422450968433864245,384.0,1.225444551190248422450968433864245
32,410.431871345531487072323574937131581,409.2,1.231871345531487072323574937131581
33,436.438098725844299123359778321846842,435.2,1.238098725844299123359778321846842
34,463.244138717812538531499938177053214,462.0,1.244138717812538531499938177053214
35,490.850002289771062913300692015361206,489.6,1.250002289771062913300692015361206
36,519.255699473238942934628492320360945,518.0,1.255699473238942934628492320360945
37,548.461239466743249425148773895284148,547.2,1.261239466743249425148773895284148
38,578.466630725639169355182508267476946,577.2,1.266630725639169355182508267476946
39,609.271881040134353162176530135123729,608.0,1.271881040134353162176530135123729
40,640.876997603329575130641790529060320,639.6,1.276997603329575130641790529060320
41,673.281987070771038255815001903952433,672.0,1.281987070771038255815001903952433
42,706.486855612754662419891956616582034,705.2,1.286855612754662419891956616582034
43,740.491608960416208364843997391167701,739.2,1.291608960416208364843997391167701
44,775.296252446472995930389808073533888,774.0,1.296252446472995930389808073533888
45,810.900791041345405456750795810008007,809.6,1.300791041345405456750795810008007
46,847.305229385273214969268686123406795,846.0,1.305229385273214969268686123406795
47,884.509571816948349149668856524060199,883.2,1.309571816948349149668856524060199
48,922.513822399108029734534946892386755,921.2,1.313822399108029734534946892386755
49,961.317984941467654437688965607198050,960.0,1.317984941467654437688965607198050
50,1000.92206302131860877953883062358952,999.6,1.32206302131860877953883062358952
51,1041.32606000207074824400030933802328,1040.0,1.32606000207074824400030933802328
52,1082.52997904998094296931568508295090,1081.2,1.32997904998094296931568508295090
53,1124.53382314927662706055783035259332,1123.2,1.33382314927662706055783035259332
54,1167.33759511585573348016264290793911,1166.0,1.33759511585573348016264290793911
55,1210.94129760972091998032983143565644,1209.6,1.34129760972091998032983143565644
56,1255.34493314628591697101434866516631,1254.0,1.34493314628591697101434866516631
57,1300.54850410667462925211820554723699,1299.2,1.34850410667462925211820554723699
58,1346.55201274711882635220680287762692,1345.2,1.35201274711882635220680287762692
59,1393.35546120754750226880361844821565,1392.0,1.35546120754750226880361844821565
60,1440.95885151944996089761870649015716,1439.6,1.35885151944996089761870649015716
61,1489.36218561308511921056542514733524,1488.0,1.36218561308511921056542514733524
62,1538.56546532410121923730927584280749,1537.2,1.36546532410121923730927584280749
63,1588.56869239962289801607481434364366,1587.2,1.36869239962289801607481434364366
64,1639.37186850385625219951674098218001,1638.0,1.37186850385625219951674098218001
65,1690.97499522325699916149028999789475,1689.6,1.37499522325699916149028999789475
66,1743.37807407130198911150379562907710,1742.0,1.37807407130198911150379562907710
67,1796.58110649290006043231184986228906,1795.2,1.38110649290006043231184986228906
68,1850.58409386847447429530024804039259,1849.2,1.38409386847447429530024804039259
69,1905.38703751774585193758813127654689,1904.0,1.38703751774585193758813127654689
70,1960.98993870324160971650991821203910,1959.6,1.38993870324160971650991821203910
71,2017.39279863355528835340897796585192,2016.0,1.39279863355528835340897796585192
72,2074.59561846637687453629627098109678,2073.2,1.39561846637687453629627098109678
73,2132.59839931131316004452401309270639,2131.2,1.39839931131316004452401309270639
74,2191.40114223251536471007244246933348,2190.0,1.40114223251536471007244246933348
75,2251.00384825112961842894507126876849,2249.6,1.40384825112961842894507126876849
76,2311.40651834758444787941313447463084,2310.0,1.40651834758444787941313447463084
77,2372.60915346372811120543206688425439,2371.2,1.40915346372811120543206688425439
78,2434.61175450482745812537304069004939,2433.2,1.41175450482745812537304069004939
79,2497.41432234143894610622059574038728,2496.0,1.41432234143894610622059574038728
80,2561.01685781116150511774326897914021,2559.6,1.41685781116150511774326897914021
81,2625.41936172028009413966758468200184,2624.0,1.41936172028009413966758468200184
82,2690.62183484530803114433256922631216,2689.2,1.42183484530803114433256922631216
83,2756.62427793443548954351240154536454,2755.2,1.42427793443548954351240154536454
84,2823.42669170889092979637880767572462,2822.0,1.42669170889092979637880767572462
85,2891.02907686422167559940124311776932,2889.6,1.42907686422167559940124311776932
86,2959.43143407149932821359376346019594,2958.0,1.43143407149932821359376346019594
87,3028.63376397845525501371757042706478,3027.2,1.43376397845525501371757042706478
88,3098.63606721055096496631274334774679,3097.2,1.43606721055096496631274334774679
89,3169.43834437198780024127117203731545,3168.0,1.43834437198780024127117203731545
90,3241.04059604666002994493349550185290,3239.6,1.44059604666002994493349550185290
91,3313.44282279905511051064220935217605,3312.0,1.44282279905511051064220935217605
92,3386.64502517510458898514407370680865,3385.2,1.44502517510458898514407370680865
93,3460.64720370298886319417930256340330,3459.2,1.44720370298886319417930256340330
94,3535.44935889389876984185699812333018,3534.0,1.44935889389876984185699812333018
95,3611.05149124275675044438727684606384,3609.6,1.45149124275675044438727684606384
96,3687.45360122890014317662423579062529,3686.0,1.45360122890014317662423579062529
97,3764.65568931672896436776413739208562,3763.2,1.45568931672896436776413739208562
98,3842.65775595632037050824877776493249,3841.2,1.45775595632037050824877776493249
99,3921.45980158401183815773460020243878,3920.0,1.45980158401183815773460020243878
100,4001.06182662295495280357235235030427,3999.6,1.46182662295495280357235235030427
101,4081.46383148364156841508739319966323,4080.0,1.46383148364156841508739319966323
102,4162.66581656440397386422983953135294,4161.2,1.46581656440397386422983953135294
103,4244.66778225189059446955086236049289,4243.2,1.46778225189059446955086236049289
104,4327.46972892151864965575087447946934,4326.0,1.46972892151864965575087447946934
105,4411.07165693790509464728876906428009,4409.6,1.47165693790509464728876906428009
106,4495.47356665527708335029738064870733,4494.0,1.47356665527708335029738064870733
107,4580.67545841786311149509509260389529,4579.2,1.47545841786311149509509260389529
108,4666.67733256026591987202911602911258,4665.2,1.47733256026591987202911602911258
109,4753.47918940781816889985173239703708,4752.0,1.47918940781816889985173239703708
110,4841.08102927692183334570587780837586,4839.6,1.48102927692183334570587780837586
111,4929.48285247537220015459779624735627,4928.0,1.48285247537220015459779624735627
112,5018.68465930266730291260108892935968,5017.2,1.48465930266730291260108892935968
113,5108.68645005030357093224244053861845,5107.2,1.48645005030357093224244053861845
114,5199.48822500205842219076288742725950,5198.0,1.48822500205842219076288742725950
115,5291.08998443426048890344598774379016,5289.6,1.48998443426048890344598774379016
116,5383.49172861604811618255603054545995,5382.0,1.49172861604811618255603054545995
117,5476.69345780961674251942264832182960,5475.2,1.49345780961674251942264832182960
118,5570.69517227045572979610259381701534,5569.2,1.49517227045572979610259381701534
119,5665.49687224757517681933325402325098,5664.0,1.49687224757517681933325402325098
120,5761.09855798372322452725735616519554,5759.6,1.49855798372322452725735616519554
121,5857.50022971559432275215419806676710,5856.0,1.50022971559432275215419806676710
122,5954.70188767402890950927992124093009,5953.2,1.50188767402890950927992124093009
123,6052.70353208420492158898732348004017,6051.2,1.50353208420492158898732348004017
124,6151.50516316582153754948709851384767,6150.0,1.50516316582153754948709851384767
125,6251.10678113327552464134921928484670,6249.6,1.50678113327552464134921928484670
126,6351.50838619583054599754568972085388,6350.0,1.50838619583054599754568972085388
127,6452.70997855777976384494944843032322,6451.2,1.50997855777976384494944843032322
128,6554.71155841860205190601432023667368,6553.2,1.51155841860205190601432023667368
129,6657.51312597311211808612285368764188,6656.0,1.51312597311211808612285368764188
130,6761.11468141160482016022156327389483,6759.6,1.51468141160482016022156327389483
131,6865.51622491999394176824503413380911,6864.0,1.51622491999394176824503413380911
132,6970.71775667994568105162949794122489,6969.2,1.51775667994568105162949794122489
133,7076.71927686900709248163277146951906,7075.2,1.51927686900709248163277146951906
134,7183.52078566072971115421817275550728,7182.0,1.52078566072971115421817275550728
135,7291.12228322478857071791788803286352,7289.6,1.52228322478857071791788803286352
136,7399.52376972709682241356088900411495,7398.0,1.52376972709682241356088900411495
137,7508.72524532991614939680660653540415,7507.2,1.52524532991614939680660653540415
138,7618.72671019196315690243532582804178,7617.2,1.52671019196315690243532582804178
139,7729.52816446851191670344045533912366,7728.0,1.52816446851191670344045533912366
140,7841.12960831149282887199953490991144,7839.6,1.52960831149282887199953490991144
141,7953.53104186958795929191110186484473,7952.0,1.53104186958795929191110186484473
142,8066.73246528832300329881713840699657,8065.2,1.53246528832300329881713840699657
143,8180.73387871015601717436179931393871,8179.2,1.53387871015601717436179931393871
144,8295.53528227456305204079997110990203,8294.0,1.53528227456305204079997110990203
145,8411.13667611812082051481026640789456,8409.6,1.53667611812082051481026640789456
146,8527.53806037458651861051593052329219,8526.0,1.53806037458651861051593052329219
147,8644.73943517497491717875129563569897,8643.2,1.53943517497491717875129563569897
148,8762.74080064763283821157809386247896,8761.2,1.54080064763283821157809386247896
149,8881.54215691831111781298142103566938,8880.0,1.54215691831111781298142103566938
150,9001.14350411023415947659837431670647,8999.6,1.54350411023415947659837431670647
151,9121.54484234416717358470804371368313,9120.0,1.54484234416717358470804371368313
152,9242.74617173848119342762747018763440,9241.2,1.54617173848119342762747018763440
153,9364.74749240921595669318106372534321,9363.2,1.54749240921595669318106372534321
154,9487.54880447014073632545929615792073,9486.0,1.54880447014073632545929615792073
155,9611.15010803281319898883244848537914,9609.6,1.55010803281319898883244848537914
156,9735.55140320663636900355523541171734,9734.0,1.55140320663636900355523541171734
157,9860.75269009891376879953824776937403,9859.2,1.55269009891376879953824776937403
158,9986.75396881490280770635932948999169,9985.2,1.55396881490280770635932948999169
159,10113.5552394578664827523203560934500,10112.0,1.5552394578664827523203560934500
160,10241.1565021291234578100589078841407,10239.6,1.5565021291234578100589078841407
161,10369.5577569280965795848057371039975,10368.0,1.5577569280965795848057371039975
162,10498.7590039523598899063591873753268,10497.2,1.5590039523598899063591873753268
163,10628.7602432976841891780459180570171,10627.2,1.5602432976841891780459180570171
164,10759.5614750580812056192325993227022,10758.0,1.5614750580812056192325993227022
165,10891.1626993258464189015760516487601,10889.6,1.5626993258464189015760516487601
166,11023.5639161916005886945706081656139,11022.0,1.5639161916005886945706081656139
167,11156.7651257443300353526818118400024,11155.2,1.5651257443300353526818118400024
168,11290.7663280714257154329497039608806,11289.2,1.5663280714257154329497039608806
169,11425.5675232587211371051223688941533,11424.0,1.5675232587211371051223688941533
170,11561.1687113905291551974049203105579,11559.6,1.5687113905291551974049203105579
171,11697.5698925496776860722547706915695,11696.0,1.5698925496776860722547706915695
172,11834.7710668175443801988506414551555,11833.2,1.5710668175443801988506414551555
173,11972.7722342740902878245360228469286,11971.2,1.5722342740902878245360228469286
174,12111.5733949978925535887206436765415,12110.0,1.5733949978925535887206436765415
175,12251.1745490661761740641427356488845,12249.6,1.5745490661761740641427356488845
176,12391.5756965548448479318145944329427,12390.0,1.5756965548448479318145944329427
177,12532.7768375385109520501585655331018,12531.2,1.5768375385109520501585655331018
178,12674.7779720905246725726992947811653,12673.2,1.5779720905246725726992947811653
179,12817.5791002830023175592276637868276,12816.0,1.5791002830023175592276637868276
180,12961.1802221868538420268048813128708,12959.6,1.5802221868538420268048813128708
181,13105.5813378718096080891624625707505,13104.0,1.5813378718096080891624625707505
182,13250.7824474064464078798529971830782,13249.2,1.5824474064464078798529971830782
183,13396.7835508582127723083950268903752,13395.2,1.5835508582127723083950268903752
184,13543.5846482934535898909175797814762,13542.0,1.5846482934535898909175797814762
185,13691.1857397774340574633968178637631,13689.6,1.5857397774340574633968178637631
186,13839.5868253743629837460736925036795,13838.0,1.5868253743629837460736925036795
187,13988.7879051474154695595187903751537,13987.2,1.5879051474154695595187903751537
188,14138.7889791587549801286280168734223,14137.2,1.5889791587549801286280168734223
189,14289.5900474695548332056055863644871,14288.0,1.5900474695548332056055863644871
190,14441.1911101400191186629777397358510,14439.6,1.5911101400191186629777397358510
191,14593.5921672294030687791544380690662,14592.0,1.5921672294030687791544380690662
192,14746.7932187960328955987066117457978,14745.2,1.5932187960328955987066117457978
193,14900.7942648973251136711710797935067,14899.2,1.5942648973251136711710797935067
194,15055.5953055898053615091290862085818,15054.0,1.5953055898053615091290862085818
195,15211.1963409291267396978801958733993,15209.6,1.5963409291267396978801958733993
196,15367.5973709700876793485736688405921,15366.0,1.5973709700876793485736688405921
197,15524.7983957666493552700801313023005,15523.2,1.5983957666493552700801313023005
198,15682.7994153719526580215442826650793,15681.2,1.5994153719526580215442826650793
199,15841.6004298383347376794334836914277,15840.0,1.6004298383347376794334836914277
200,16001.2014392173451332592429148349522,15999.6,1.6014392173451332592429148349522
201,16161.6024435597614987682355750599982,16160.0,1.6024435597614987682355750599982
202,16322.8034429156049392653277499661667,16321.2,1.6034429156049392653277499661667
203,16484.8044373341549675828017935705374,16483.2,1.6044373341549675828017935705374
204,16647.6054268639640933247069112890747,16646.0,1.6054268639640933247069112890747
205,16811.2064115528720541072597802262787,16809.6,1.6064115528720541072597802262787
206,16975.6073914480197020599410726479393,16974.0,1.6073914480197020599410726479393
207,17140.8083665958625514579130860635202,17139.2,1.6083665958625514579130860635202
208,17306.8093370421840017071624661315642,17305.2,1.6093370421840017071624661315642
209,17473.6103028321082414251951099542525,17472.0,1.6103028321082414251951099542525
210,17641.2112640101128451128817207404450,17639.6,1.6112640101128451128817207404450
211,17809.6122206200410697764099034988530,17808.0,1.6122206200410697764099034988530
212,17978.8131727051138617264643992577244,17977.2,1.6131727051138617264643992577244
213,18148.8141203079415779325225899571958,18147.2,1.6141203079415779325225899571958
214,18319.6150634705354369079485979262053,18318.0,1.6150634705354369079485979262053
215,18491.2160022343186983321097874833494,18489.6,1.6160022343186983321097874833494
216,18663.6169366401375853639657241147565,18662.0,1.6169366401375853639657241147565
217,18836.8178667282719536061644263787784,18835.2,1.6178667282719536061644263787784
218,19010.8187925384457156920882235113796,19009.2,1.6187925384457156920882235113796
219,19185.6197141098370247687773294780841,19184.0,1.6197141098370247687773294780841
220,19361.2206314810882293838513412740684,19359.6,1.6206314810882293838513412740684
221,19537.6215446903155976787104330818151,19536.0,1.6215446903155976787104330818151
222,19714.8224537751188280853737197048635,19713.2,1.6224537751188280853737197048635
223,19892.8233587725903400877779147392098,19891.2,1.6233587725903400877779147392098
224,20071.6242597193243601068261972268946,20070.0,1.6242597193243601068261972268946
225,20251.2251566514258050657213535564995,20249.6,1.6251566514258050657213535564995
226,20431.6260496045189671735157989368276,20430.0,1.6260496045189671735157989368276
227,20612.8269386137560085697162590463468,20611.2,1.6269386137560085697162590463468
228,20794.8278237138252676401338564733597,20793.2,1.6278237138252676401338564733597
229,20977.6287049389593841561143432989503,20976.0,1.6287049389593841561143432989503
230,21161.2295823229432479233760951732897,21159.6,1.6295823229432479233760951732897
231,21345.6304558991217727297097131106523,21344.0,1.6304558991217727297097131106523
232,21530.8313257004075060004430355003335,21529.2,1.6313257004075060004430355003335
233,21716.8321917592880691471591267286644,21715.2,1.6321917592880691471591267286644
234,21903.6330541078334447557159065752622,21902.0,1.6330541078334447557159065752622
235,22091.2339127777031037846502443730985,22089.6,1.6339127777031037846502443730985
236,22279.6347678001529824727172917208439,22278.0,1.6347678001529824727172917208439
237,22468.8356192060423125756741113749989,22467.2,1.6356192060423125756741113749989
238,22658.8364670258403066633008427050043,22657.2,1.6364670258403066633008427050043
