Eigenstate,Energy,Kinetic Energy,Potential Energy
1,0.500000000036260136424599769335904953,0.0,0.500000000036260136424599769335904953
2,1.84623093788780185366806005220686467,1.2,0.64623093788780185366806005220686467
3,3.93633761040022494503234420239858236,3.2,0.73633761040022494503234420239858236
4,6.79966527926236290405528404881872152,6.0,0.79966527926236290405528404881872152
5,10.4480465777941313623812861510960619,9.6,0.8480465777941313623812861510960619
6,14.8870660007518502696651694303498241,14.0,0.8870660007518502696651694303498241
7,20.1197208295744658408903463699191692,19.2,0.9197208295744658408903463699191692
8,26.1477838506393376921586089589723973,25.2,0.9477838506393376921586089589723973
9,32.9723835629529903962559455653549824,32.0,0.9723835629529903962559455653549824
10,40.5942802206641549513522319866834354,39.6,0.9942802206641549513522319866834354
11,49.0140093939139819882071388474344442,48.0,1.0140093939139819882071388474344442
12,58.2319621780071856787197552545538653,57.2,1.0319621780071856787197552545538653
13,68.2484327030096422178205508265200406,67.2,1.0484327030096422178205508265200406
14,79.0636476666045551979366326281278017,78.0,1.0636476666045551979366326281278017
15,90.6777854499066428138914696730974226,89.6,1.0777854499066428138914696730974226
16,103.090988922332584452229905105207354,102.0,1.090988922332584452229905105207354
17,116.303374275062526117372571202512504,115.2,1.103374275062526117372571202512504
18,130.315037272046280713429994504904907,129.2,1.115037272046280713429994504904907
19,145.126057773107306293270068140702386,144.0,1.126057773107306293270068140702386
20,160.736503071576642992002649639114082,159.6,1.136503071576642992002649639114082
21,177.146430400374610588382775947117536,176.0,1.146430400374610588382775947117536
22,194.355888843169548938331267053084514,193.2,1.155888843169548938331267053084514
23,212.364920812314342867103351104488217,211.2,1.164920812314342867103351104488217
24,231.173563206246844517009950827153651,230.0,1.173563206246844517009950827153651
25,250.781848326285799890577520876025980,249.6,1.181848326285799890577520876025980
26,271.189804610438436724265957100364516,270.0,1.189804610438436724265957100364516
27,292.397457226363040425040279092207236,291.2,1.197457226363040425040279092207236
28,314.404828554727993991833779268320210,313.2,1.204828554727993991833779268320210
29,337.211938586413730021638006735538046,336.0,1.211938586413730021638006735538046
30,360.818805251354555330089325491199603,359.6,1.218805251354555330089325491199603
31,385.225444692671370215935424211487182,384.0,1.225444692671370215935424211487182
32,410.431871496668404813747679433139491,409.2,1.231871496668404813747679433139491
33,436.438098886957447174907883495638770,435.2,1.238098886957447174907883495638770
34,463.244138889222491450598407676062212,462.0,1.244138889222491450598407676062212
35,490.850002471798539484730309114479511,489.6,1.250002471798539484730309114479511
36,519.255699666204810246134175537114590,518.0,1.255699666204810246134175537114590
37,548.461239670968526980785063029566919,547.2,1.261239670968526980785063029566919
38,578.466630941445033221669597903789600,577.2,1.266630941445033221669597903789600
39,609.271881267842140144372319712186935,608.0,1.271881267842140144372319712186935
40,640.876997843260786972905748719749074,639.6,1.276997843260786972905748719749074
41,673.281987323247345866583839313950559,672.0,1.281987323247345866583839313950559
42,706.486855878097910117231664419617380,705.2,1.286855878097910117231664419617380
43,740.491609238948418141107941449044903,739.2,1.291609238948418141107941449044903
44,775.296252738516371734414052992118136,774.0,1.296252738516371734414052992118136
45,810.900791347222337492268067093505017,809.6,1.300791347222337492268067093505017
46,847.305229705306284008431102769576086,846.0,1.305229705306284008431102769576086
47,884.509572151460330860744352299626420,883.2,1.309572151460330860744352299626420
48,922.513822748421899022989477999340956,921.2,1.313822748421899022989477999340956
49,961.317985305906589799990892325000949,960.0,1.317985305906589799990892325000949
50,1000.92206340120599666912733179282813,999.6,1.32206340120599666912733179282813
51,1041.32606039773018744894958048163568,1040.0,1.32606039773018744894958048163568
52,1082.52997946173624900130344425581945,1081.2,1.32997946173624900130344425581945
53,1124.53382357745183655481253633876292,1123.2,1.33382357745183655481253633876292
54,1167.33759556077510860612060545528807,1166.0,1.33759556077510860612060545528807
55,1210.94129807170895286278237183298723,1209.6,1.34129807170895286278237183298723
56,1255.34493362566733412156766215768077,1254.0,1.34493362566733412156766215768077
57,1300.54850460377439601082542991551953,1299.2,1.34850460377439601082542991551953
58,1346.55201326226215133926413512859535,1345.2,1.35201326226215133926413512859535
59,1393.35546174105984184623032634088420,1392.0,1.35546174105984184623032634088420
60,1440.95885207165702364086567247449351,1439.6,1.35885207165702364086567247449351
61,1489.36218618431287039001854616553357,1488.0,1.36218618431287039001854616553357
62,1538.56546591467588530967327444443756,1537.2,1.36546591467588530967327444443756
63,1588.56869300987097112563991939883618,1587.2,1.36869300987097112563991939883618
64,1639.37186913410449468932571205631123,1638.0,1.37186913410449468932571205631123
65,1690.97499587383244809443674101567570,1689.6,1.37499587383244809443674101567570
66,1743.37807474253196080140461898820078,1742.0,1.37807474253196080140461898820078
67,1796.58110718511215498500724003417535,1795.2,1.38110718511215498500724003417535
68,1850.58409458199658015984437167761312,1849.2,1.38409458199658015984437167761312
69,1905.38703825290615046760222154940459,1904.0,1.38703825290615046760222154940459
70,1960.98993946036857974177707038535932,1959.6,1.38993946036857974177707038535932
71,2017.39279941297771076179725376203756,2016.0,1.39279941297771076179725376203756
72,2074.59561926842383686610277732656326,2073.2,1.39561926842383686610277732656326
73,2132.59840013631406108733863668607672,2131.2,1.39840013631406108733863668607672
74,2191.40114308079991912426502831834957,2190.0,1.40114308079991912426502831834957
75,2251.00384912302786136388477748622468,2249.6,1.40384912302786136388477748622468
76,2311.40651924342673961053296589373286,2310.0,1.40651924342673961053296589373286
77,2372.60915438384514178025577145466379,2371.2,1.40915438384514178025577145466379
78,2434.61175544955025202062523753332883,2433.2,1.41175544955025202062523753332883
79,2497.41432331109886689614451622078347,2496.0,1.41432331109886689614451622078347
80,2561.01685880609026015375358078593290,2559.6,1.41685880609026015375358078593290
81,2625.41936274080973924146891884878759,2624.0,1.41936274080973924146891884878759
82,2690.62183589177097530263705291253431,2689.2,1.42183589177097530263705291253431
83,2756.62427900716449963449212275391113,2755.2,1.42427900716449963449212275391113
84,2823.42669280821913530799161776557262,2822.0,1.42669280821913530799161776557262
85,2891.02907799048257336973061258804141,2889.6,1.42907799048257336973061258804141
86,2959.43143522502678718134550757739563,2958.0,1.43143522502678718134550757739563
87,3028.63376515958352098101846667880720,3027.2,1.43376515958352098101846667880720
88,3098.63606841961466537395793361019084,3097.2,1.43606841961466537395793361019084
89,3169.43834560932194895656911713070695,3168.0,1.43834560932194895656911713070695
90,3241.04059731260003206229906302518107,3239.6,1.44059731260003206229906302518107
91,3313.44282409393676716509022884439559,3312.0,1.44282409393676716509022884439559
92,3386.64502649926410217883727184340522,3385.2,1.44502649926410217883727184340522
93,3460.64720505676284063618618716829709,3459.2,1.44720505676284063618618716829709
94,3535.44936027762422980127676459604102,3534.0,1.44936027762422980127676459604102
95,3611.05149265677112661700037359962107,3609.6,1.45149265677112661700037359962107
96,3687.45360267354128956522852647760373,3686.0,1.45360267354128956522852647760373
97,3764.65569079233516017635825198495334,3763.2,1.45569079233516017635825198495334
98,3842.65775746323032505022535815935659,3841.2,1.45775746323032505022535815935659
99,3921.45980312256469577824775637620454,3920.0,1.45980312256469577824775637620454
100,4001.06182819349029781624477889199446,3999.6,1.46182819349029781624477889199446
101,4081.46383308649943005322401973276435,4080.0,1.46383308649943005322401973276435
102,4162.66581819992483124670615655936646,4161.2,1.46581819992483124670615655936646
103,4244.66778392041538158154520269929319,4243.2,1.46778392041538158154520269929319
104,4327.46973062338876034449149923329480,4326.0,1.46973062338876034449149923329480
105,4411.07165867346238763298748427245386,4409.6,1.47165867346238763298748427245386
106,4495.47356842486388725244290089742841,4494.0,1.47356842486388725244290089742841
107,4580.67546022182222987428049258946083,4579.2,1.47546022182222987428049258946083
108,4666.67733439894063628748890410753902,4665.2,1.47733439894063628748890410753902
109,4753.47919128155225198288541839179247,4752.0,1.47919128155225198288541839179247
110,4841.08103118605954188916594868725267,4839.6,1.48103118605954188916594868725267
111,4929.48285442025828821862134886838726,4928.0,1.48285442025828821862134886838726
112,5018.68466128364702494676554474623474,5017.2,1.48466128364702494676554474623474
113,5108.68645206772268691432690294716130,5107.2,1.48645206772268691432690294716130
114,5199.48822705626320278229800773794875,5198.0,1.48822705626320278229800773794875
115,5291.08998652559772062223636740696104,5289.6,1.48998652559772062223636740696104
116,5383.49173074486510659236038646004823,5382.0,1.49173074486510659236038646004823
117,5476.69345997626132543697817886008766,5475.2,1.49345997626132543697817886008766
118,5570.69517447527627051568127830719979,5569.2,1.49517447527627051568127830719979
119,5665.49687449092057735501889597721017,5664.0,1.49687449092057735501889597721017
120,5761.09856026594292887313356194429014,5759.6,1.49856026594292887313356194429014
121,5857.50023203703832216059463816439700,5856.0,1.50023203703832216059463816439700
122,5954.70189003504774778753344805660840,5953.2,1.50189003504774778753344805660840
123,6052.70353448514970041425186126929332,6051.2,1.50353448514970041425186126929332
124,6151.50516560704392180266732756549397,6150.0,1.50516560704392180266732756549397
125,6251.10678361512774775969449757162363,6249.6,1.50678361512774775969449757162363
126,6351.50838871866541534636584150140946,6350.0,1.50838871866541534636584150140946
127,6452.70998112195066610860733277007655,6451.2,1.50998112195066610860733277007655
128,6554.71156102446295849839548865778390,6553.2,1.51156102446295849839548865778390
129,6657.51312862101759058078377352049364,6656.0,1.51312862101759058078377352049364
130,6761.11468410191001574041925267840616,6759.6,1.51468410191001574041925267840616
131,6865.51622765305461869705227388782398,6864.0,1.51622765305461869705227388782398
132,6970.71775945611820416234131052730641,6969.2,1.51775945611820416234131052730641
133,7076.71927968864843868867074042785048,7075.2,1.51927968864843868867074042785048
134,7183.52078852419747498474105487387545,7182.0,1.52078852419747498474105487387545
135,7291.12228613244096986434815706971961,7289.6,1.52228613244096986434815706971961
136,7399.52377267929270330723797677574664,7398.0,1.52377267929270330723797677574664
137,7508.72524832701499280297945016710658,7507.2,1.52524832701499280297945016710658
138,7618.72671323432508353680795600411654,7617.2,1.52671323432508353680795600411654
139,7729.52816755649769287048583651500976,7728.0,1.52816755649769287048583651500976
140,7841.12961144546387212525843936015046,7839.6,1.52961144546387212525843936015046
141,7953.53104504990634411649398391623067,7952.0,1.53104504990634411649398391623067
142,8066.73246851535146681632878089826237,8065.2,1.53246851535146681632878089826237
143,8180.73388198425796487046970916118844,8179.2,1.53388198425796487046970916118844
144,8295.53528559610256351566923883408931,8294.0,1.53528559610256351566923883408931
145,8411.13667948746265525662883105873515,8409.6,1.53667948746265525662883105873515
146,8527.53806379209612179233603088523698,8526.0,1.53806379209612179233603088523698
147,8644.73943864101842547887428359133239,8643.2,1.53943864101842547887428359133239
148,8762.74080416257708565771122809400868,8761.2,1.54080416257708565771122809400868
149,8881.54216048252364165039715409019292,8880.0,1.54216048252364165039715409019292
150,9001.14350772408320606052785620277529,8999.6,1.54350772408320606052785620277529
151,9121.54484600802170429720256304679825,9120.0,1.54484600802170429720256304679825
152,9242.74617545271089061912286425138968,9241.2,1.54617545271089061912286425138968
153,9364.74749617419122964900202342758308,9363.2,1.54749617419122964900202342758308
154,9487.54880828623272725750190803495321,9486.0,1.54880828623272725750190803495321
155,9611.15011190039378905266515047203007,9609.6,1.55011190039378905266515047203007
156,9735.55140712607818434118022519260801,9734.0,1.55140712607818434118022519260801
157,9860.75269407059018660805663552688995,9859.2,1.55269407059018660805663552688995
158,9986.75397283918796233278555259476285,9985.2,1.55397283918796233278555259476285
159,10113.5552435351352718147927925206091,10112.0,1.5552435351352718147927925206091
160,10241.1565062597515483456955739355997,10239.6,1.5565062597515483456955739355997
161,10369.5577611124604142244556813331477,10368.0,1.5577611124604142244556813331477
162,10498.7590081908366930765020842173860,10497.2,1.5590081908366930765020842173860
163,10628.7602475906519733300939284284806,10627.2,1.5602475906519733300939284284806
164,10759.5614794059187774864907770806510,10758.0,1.5614794059187774864907770806510
165,10891.1627037289333857841193370922166,10889.6,1.5627037289333857841193370922166
166,11023.5639206503173647722970857018233,11022.0,1.5639206503173647722970857018233
167,11156.7651302590578480268040904508808,11155.2,1.5651302590578480268040904508808
168,11290.7663326425466116961882844809462,11289.2,1.5663326425466116961882844809462
169,11425.5675278866179899408663474612268,11424.0,1.5675278866179899408663474612268
170,11561.1687160755856700081080418120340,11559.6,1.5687160755856700081080418120340
171,11697.5698972922784071373361419592653,11696.0,1.5698972922784071373361419592653
172,11834.7710716180746971623719750370735,11833.2,1.5710716180746971623719750370735
173,11972.7722391329364422129289334432183,11971.2,1.5722391329364422129289334432183
174,12111.5733999154416453588398082581189,12110.0,1.5733999154416453588398082581189
175,12251.1745540428161681819227830084665,12249.6,1.5745540428161681819227830084665
176,12391.5757015909645809818106008974044,12390.0,1.5757015909645809818106008974044
177,12532.7768426345001388762522351756211,12531.2,1.5768426345001388762522351756211
178,12674.7779772467739129502550012259711,12673.2,1.5779772467739129502550012259711
179,12817.5791054999031028989847528943343,12816.0,1.5791054999031028989847528943343
180,12961.1802274647985621107948122505174,12959.6,1.5802274647985621107948122505174
181,13105.5813432111915578389416102371277,13104.0,1.5813432111915578389416102371277
182,13250.7824528076597941573440814385320,13249.2,1.5824528076597941573440814385320
183,13396.7835563216527207496325450784132,13395.2,1.5835563216527207496325450784132
184,13543.5846538195161517729947766584588,13542.0,1.5846538195161517729947766584588
185,13691.1857453665162166049143352865575,13689.6,1.5857453665162166049143352865575
186,13839.5868310268626634413917860433764,13838.0,1.5868310268626634413917860433764
187,13988.7879108637315395471181053920374,13987.2,1.5879108637315395471181053920374
188,14138.7889849392872635938857442658166,14137.2,1.5889849392872635938857442658166
189,14289.5900533147041138182965180311090,14288.0,1.5900533147041138182965180311090
190,14441.1911160501871476498121630772486,14439.6,1.5911160501871476498121630772486
191,14593.5921732049925720316671318137046,14592.0,1.5921732049925720316671318137046
192,14746.7932248374475808168139823726517,14745.2,1.5932248374475808168139823726517
193,14900.7942710049696775427156595749501,14899.2,1.5942710049696775427156595749501
194,15055.5953117640854969257335245284365,15054.0,1.5953117640854969257335245284365
195,15211.1963471704491430074351448214052,15209.6,1.5963471704491430074351448214052
196,15367.5973772788600576446868050413963,15366.0,1.5973772788600576446868050413963
197,15524.7984021432804337188160938613210,15523.2,1.5984021432804337188160938613210
198,15682.7994218168521872257879085972953,15681.2,1.5994218168521872257879085972953
199,15841.6004363519135010812116910058107,15840.0,1.6004363519135010812116910058107
200,16001.2014458000149545803429550295556,15999.6,1.6014458000149545803429550295556
201,16161.6024502119352494894602657935185,16160.0,1.6024502119352494894602657935185
202,16322.8034496376965461447313690533141,16321.2,1.6034496376965461447313690533141
203,16484.8044441265794202132526153333893,16483.2,1.6044441265794202132526153333893
204,16647.6054337271374517311257282486032,16646.0,1.6054337271374517311257282486032
205,16811.2064184872114563838861350744166,16809.6,1.6064184872114563838861350744166
206,16975.6073984539433720479822943843570,16974.0,1.6073984539433720479822943843570
207,17140.8083736737898064639338718130607,17139.2,1.6083736737898064639338718130607
208,17306.8093441925352602625758690716925,17305.2,1.6093441925352602625758690716925
209,17473.6103100553050310872187401551204,17472.0,1.6103100553050310872187401551204
210,17641.2112713065778103073260269549497,17639.6,1.6112713065778103073260269549497
211,17809.6122279901979796826684723374644,17808.0,1.6122279901979796826684723374644
212,17978.8131801493876182050791963880876,17977.2,1.6131801493876182050791963880876
213,18148.8141278267582234957005769522702,18147.2,1.6141278267582234957005769522702
214,18319.6150710643221627334088555300354,18318.0,1.6150710643221627334088555300354
215,18491.2160099035038523206438373713448,18489.6,1.6160099035038523206438373713448
216,18663.6169443851506802410968738091086,18662.0,1.6169443851506802410968738091086
217,18836.8178745495436750682952243429558,18835.2,1.6178745495436750682952243429558
218,19010.8188004364079305975283391149434,19009.2,1.6188004364079305975283391149434
219,19185.6197220849227893740478640100706,19184.0,1.6197220849227893740478640100706
220,19361.2206395337317976256645218781454,19359.6,1.6206395337317976256645218781454
221,19537.6215528209524295020273784882869,19536.0,1.6215528209524295020273784882869
222,19714.8224619841855978179464591751657,19713.2,1.6224619841855978179464591751657
223,19892.8233670605249448615849854399175,19891.2,1.6233670605249448615849854399175
224,20071.6242680865659283268150669194262,20070.0,1.6242680865659283268150669194262
225,20251.2251650984147049262744879752916,20249.6,1.6251650984147049262744879752916
226,20431.6260581316968152230605497502637,20430.0,1.6260581316968152230605497502637
227,20612.8269472215656783239025271473327,20611.2,1.6269472215656783239025271473327
228,20794.8278324027108982440073490763099,20793.2,1.6278324027108982440073490763099
229,20977.6287137093663890957167844246841,20976.0,1.6287137093663890957167844246841
230,21161.2295911753183237872076307396619,21159.6,1.6295911753183237872076307396619
231,21345.6304648339129080204925508073072,21344.0,1.6304648339129080204925508073072
232,21530.8313347180639899976292502320942,21529.2,1.6313347180639899976292502320942
233,21716.8322008602605008206294781482340,21715.2,1.6322008602605008206294781482340
234,21903.6330632925737417311204501487732,21902.0,1.6330632925737417311204501487732
235,22091.2339220466645113608455124099197,22089.6,1.6339220466645113608455124099197
236,22279.6347771537900826917589328118082,22278.0,1.6347771537900826917589328118082
237,22468.8356286448110333458278674528273,22467.2,1.6356286448110333458278674528273
238,22658.8364765501979309355390061571741,22657.2,1.6364765501979309355390061571741
