Eigenstate,Energy,Kinetic Energy,Potential Energy
1,0.500000000098464344174738021592547063,0.0,0.500000000098464344174738021592547063
2,1.84623093829384026916279680106333243,1.2,0.64623093829384026916279680106333243
3,3.93633761159293807371324440215567519,3.2,0.73633761159293807371324440215567519
4,6.79966528174667112378289045038848575,6.0,0.79966528174667112378289045038848575
5,10.4480465820975122617380723029102053,9.6,0.8480465820975122617380723029102053
6,14.8870660074110450515422015562963786,14.0,0.8870660074110450515422015562963786
7,20.1197208391305857129842833886576709,19.2,0.9197208391305857129842833886576709
8,26.1477838636358271513671839396334089,25.2,0.9477838636358271513671839396334089
9,32.9723835799346839414962811841086424,32.0,0.9723835799346839414962811841086424
10,40.5942802421768018144230468233662311,39.6,0.9942802421768018144230468233662311
11,49.0140094205039911907814457264547404,48.0,1.0140094205039911907814457264547404
12,58.2319622102214833687636148769493390,57.2,1.0319622102214833687636148769493390
13,68.2484327413955901359464735625391872,67.2,1.0484327413955901359464735625391872
14,79.0636477117099043287731110124564726,78.0,1.0636477117099043287731110124564726
15,90.6777855022795082686132270539722940,89.6,1.0777855022795082686132270539722940
16,103.090988982521433692237261826579942,102.0,1.090988982521433692237261826579942
17,116.303374343616175861072761760187291,115.2,1.103374343616175861072761760187291
18,130.315037349513899671047858743811041,129.2,1.115037349513899671047858743811041
19,145.126057860038421921318339540413786,144.0,1.126057860038421921318339540413786
20,160.736503168521151088398201122324786,159.6,1.136503168521151088398201122324786
21,177.146430507882786939563089141998288,176.0,1.146430507882786939563089141998288
22,194.355888961792062478663858050407220,193.2,1.155888961792062478663858050407220
23,212.364920942602269973624744495362023,211.2,1.164920942602269973624744495362023
24,231.173563348751684171334543141929848,230.0,1.173563348751684171334543141929848
25,250.781848481559489514048546912387885,249.6,1.181848481559489514048546912387885
26,271.189804779033368544008015216077680,270.0,1.189804779033368544008015216077680
27,292.397457408832078265031905972599186,291.2,1.197457408832078265031905972599186
28,314.404828751624490409286164645009092,313.2,1.204828751624490409286164645009092
29,337.211938798291543728015281253507379,336.0,1.211938798291543728015281253507379
30,360.818805478768068850155811069422856,359.6,1.218805478768068850155811069422856
31,385.225444936175507748704039025600888,384.0,1.225444936175507748704039025600888
32,410.431871756818650267122302708806008,409.2,1.231871756818650267122302708806008
33,436.438099164309862351853573938556592,435.2,1.238099164309862351853573938556592
34,463.244139184333734369327147320812290,462.0,1.244139184333734369327147320812290
35,490.850002785225882819007958750995512,489.6,1.250002785225882819007958750995512
36,519.255699998506159874651108551147883,518.0,1.255699998506159874651108551147883
37,548.461240022702440636775375388226118,547.2,1.261240022702440636775375388226118
38,578.466631313170739235749667642667023,577.2,1.266631313170739235749667642667023
39,609.271881660119556275002175238949818,608.0,1.271881660119556275002175238949818
40,640.876998256650539320033886193343798,639.6,1.276998256650539320033886193343798
41,673.281987758310787864976711541780350,672.0,1.281987758310787864976711541780350
42,706.486856335397141606758568003166599,705.2,1.286856335397141606758568003166599
43,740.491609719046304511885189265842202,739.2,1.291609719046304511885189265842202
44,775.296253241976563145236171162012551,774.0,1.296253241976563145236171162012551
45,810.900791874609288161189777651851426,809.6,1.300791874609288161189777651851426
46,847.305230257185271574728630678241361,846.0,1.305230257185271574728630678241361
47,884.509572728397475817791168477099736,883.2,1.309572728397475817791168477099736
48,922.513823350984184221840955446508254,921.2,1.313823350984184221840955446508254
49,961.317985934661880023692500924108154,960.0,1.317985934661880023692500924108154
50,1000.92206405672305827794890151714521,999.6,1.32206405672305827794890151714521
51,1041.32606108057870809690956144909837,1040.0,1.32606108057870809690956144909837
52,1082.52998017248685742448603173195749,1081.2,1.32998017248685742448603173195749
53,1124.53382431667612243210090071296954,1123.2,1.33382431667612243210090071296954
54,1167.33759632904564249307444606716991,1166.0,1.33759632904564249307444606716991
55,1210.94129886959930619947963988875258,1209.6,1.34129886959930619947963988875258
56,1255.34493445375209931531103089126453,1254.0,1.34493445375209931531103089126453
57,1300.54850546262920659468528357800983,1299.2,1.34850546262920659468528357800983
58,1346.55201415246370220749344807664747,1345.2,1.35201415246370220749344807664747
59,1393.35546266318590956764308004544507,1392.0,1.35546266318590956764308004544507
60,1440.95885302628648685132150233597337,1439.6,1.35885302628648685132150233597337
61,1489.36218717202573026520209807581194,1488.0,1.36218717202573026520209807581194
62,1538.56546693605328611939853203884236,1537.2,1.36546693605328611939853203884236
63,1588.56869406549522087094770262024400,1587.2,1.36869406549522087094770262024400
64,1639.37187022455908582367748575353225,1638.0,1.37187022455908582367748575353225
65,1690.97499699970207833034032714731279,1689.6,1.37499699970207833034032714731279
66,1743.37807590440255400383716658850942,1742.0,1.37807590440255400383716658850942
67,1796.58110838357088215302891216766244,1795.2,1.38110838357088215302891216766244
68,1850.58409581763188049782246480410941,1849.2,1.38409581763188049782246480410941
69,1905.38703952630775254749041345605151,1904.0,1.38703952630775254749041345605151
70,1960.98994077212752275791773511605578,1959.6,1.38994077212752275791773511605578
71,2017.39280076368636587973768522958236,2016.0,1.39280076368636587973768522958236
72,2074.59562065867592866693731047214601,2073.2,1.39562065867592866693731047214601
73,2132.59840156670468910910979933372801,2131.2,1.39840156670468910910979933372801
74,2191.40114455192557950197665586574245,2190.0,1.40114455192557950197665586574245
75,2251.00385063548646856969982982187656,2249.6,1.40385063548646856969982982187656
76,2311.40652079781764829574752152719830,2310.0,1.40652079781764829574752152719830
77,2372.60915598076916872065954304334012,2371.2,1.40915598076916872065954304334012
78,2434.61175708960969816687725897058872,2433.2,1.41175708960969816687725897058872
79,2497.41432499489753953081068029276265,2496.0,1.41432499489753953081068029276265
80,2561.01686053423349515667040232986012,2559.6,1.41686053423349515667040232986012
81,2625.41936451390442346511585326398772,2624.0,1.41936451390442346511585326398772
82,2690.62183771042556905921707176301475,2689.2,1.42183771042556905921707176301475
83,2756.62428087198905929643776670837582,2755.2,1.42428087198905929643776670837582
84,2823.42669471982533602363122875631319,2822.0,1.42669471982533602363122875631319
85,2891.02907994948373189586692330648008,2889.6,1.42907994948373189586692330648008
86,2959.43143723203788483451599908988026,2958.0,1.43143723203788483451599908988026
87,3028.63376721522122670922476470516744,3027.2,1.43376721522122670922476470516744
88,3098.63607052449735895066872769241844,3097.2,1.43607052449735895066872769241844
89,3169.43834776406974429881895192043221,3168.0,1.43834776406974429881895192043221
90,3241.04059951783480067472292101269768,3239.6,1.44059951783480067472292101269768
91,3313.44282635028216171175200825924912,3312.0,1.44282635028216171175200825924912
92,3386.64502880734558018472791410800829,3385.2,1.44502880734558018472791410800829
93,3460.64720741720768832028570421978171,3459.2,1.44720741720768832028570421978171
94,3535.44936269106158604309262854811084,3534.0,1.44936269106158604309262854811084
95,3611.05149512383200705851325212839418,3609.6,1.45149512383200705851325212839418
96,3687.45360519485861085019512336491174,3686.0,1.45360519485861085019512336491174
97,3764.65569336854376432894004252104553,3763.2,1.45569336854376432894004252104553
98,3842.65776009496700399493094548081054,3841.2,1.45776009496700399493094548081054
99,3921.45980581046821600319628749244889,3920.0,1.45980581046821600319628749244889
100,4001.06183093820142518177716899530882,3999.6,1.46183093820142518177716899530882
101,4081.46383588866095474790890680902515,4080.0,1.46383588866095474790890680902515
102,4162.66582106018159289280742139186828,4161.2,1.46582106018159289280742139186828
103,4244.66778683941429449203828496544435,4243.2,1.46778683941429449203828496544435
104,4327.46973360177883893373680689528519,4326.0,1.46973360177883893373680689528519
105,4411.07166171189477198318963616094307,4409.6,1.47166171189477198318963616094307
106,4495.47357152399186883804609267549009,4494.0,1.47357152399186883804609267549009
107,4580.67546338230127744647176447330107,4579.2,1.47546338230127744647176447330107
108,4666.67733762142842192100295130165597,4665.2,1.47733762142842192100295130165597
109,4753.47919456670867728732672400733700,4752.0,1.47919456670867728732672400733700
110,4841.08103453454676438708653078960605,4839.6,1.48103453454676438708653078960605
111,4929.48285783274074789261514256535767,4928.0,1.48285783274074789261514256535767
112,5018.68466476079147095786370746233446,5017.2,1.48466476079147095786370746233446
113,5108.68645561019820449400171534807201,5107.2,1.48645561019820449400171534807201
114,5199.48823066474124030040692868561750,5198.0,1.48823066474124030040692868561750
115,5291.08999020075211683326184382992650,5289.6,1.48999020075211683326184382992650
116,5383.49173448737211806232580978850753,5382.0,1.49173448737211806232580978850753
117,5476.69346378679965415344495778583904,5475.2,1.49346378679965415344495778583904
118,5570.69517835452709168325755786141578,5569.2,1.49517835452709168325755786141578
119,5665.49687843956756737883581359207713,5664.0,1.49687843956756737883581359207713
120,5761.09856428467229353277138152724899,5759.6,1.49856428467229353277138152724899
121,5857.50023612653882497696703013163427,5856.0,1.50023612653882497696703013163427
122,5954.70189419601073858526545247388037,5953.2,1.50189419601073858526545247388037
123,6052.70353871826914408211392531114728,6051.2,1.50353871826914408211392531114728
124,6151.50516991301642725465571662702962,6150.0,1.50516991301642725465571662702962
125,6251.10678799465259709937638768447265,6249.6,1.50678799465259709937638768447265
126,6351.50839317244459323713578356803156,6350.0,1.50839317244459323713578356803156
127,6452.70998565068888935253078416416202,6451.2,1.50998565068888935253078416416202
128,6554.71156562886770582634445137482065,6553.2,1.51156562886770582634445137482065
129,6657.51313330179913265659940869288271,6656.0,1.51313330179913265659940869288271
130,6761.11468885978144538186643987447964,6759.6,1.51468885978144538186643987447964
131,6865.51623248873188131636207204774189,6864.0,1.51623248873188131636207204774189
132,6970.71776437032012842916841394694179,6969.2,1.51776437032012842916841394694179
133,7076.71928468209676741832422168607677,7075.2,1.51928468209676741832422168607677
134,7183.52079359761689625457964518571484,7182.0,1.52079359761689625457964518571484
135,7291.12229128655914836126336308986344,7289.6,1.52229128655914836126336308986344
136,7399.52377791484031190918149112534953,7398.0,1.52377791484031190918149112534953
137,7508.72525364472574439752532870219506,7507.2,1.52525364472574439752532870219506
138,7618.72671863493576307977384660230448,7617.2,1.52671863493576307977384660230448
139,7729.52817304074818968767243294781490,7728.0,1.52817304074818968767243294781490
140,7841.12961701409721246040149591165853,7839.6,1.52961701409721246040149591165853
141,7953.53105070366872392855885927035589,7952.0,1.53105070366872392855885927035589
142,8066.73247425499228482931398174322184,8065.2,1.53247425499228482931398174322184
143,8180.73388781052985587892273946010327,8179.2,1.53388781052985587892273946010327
144,8295.53529150976143194915537997606986,8294.0,1.53529150976143194915537997606986
145,8411.13668548926770900643158562404511,8409.6,1.53668548926770900643158562404511
146,8527.53806988280990630370648270201188,8526.0,1.53806988280990630370648270201188
147,8644.73944482140685811218604326527382,8643.2,1.53944482140685811218604326527382
148,8762.74081043340949032191695548419030,8761.2,1.54081043340949032191695548419030
149,8881.54216684457278371222377779044061,8880.0,1.54216684457278371222377779044061
150,9001.14351417812532753288764275418833,8999.6,1.54351417812532753288764275418833
151,9121.54485255483655931034011798209970,9120.0,1.54485255483655931034011798209970
152,9242.74618209308178117805923533152950,9241.2,1.54618209308178117805923533152950
153,9364.74750290890504168088088309001984,9363.2,1.54750290890504168088088309001984
154,9487.54881511607996695248598090805669,9486.0,1.54881511607996695248598090805669
155,9611.15011882616861950207549017157185,9609.6,1.55011882616861950207549017157185
156,9735.55141414857846247661622282517147,9734.0,1.55141414857846247661622282517147
157,9860.75270119061750044527971686278264,9859.2,1.55270119061750044527971686278264
158,9986.75398005754766852419656042890411,9985.2,1.55398005754766852419656042890411
159,10113.5552508526365335143796510547168,10112.0,1.5552508526365335143796510547168
160,10241.1565136772073733903761534390052,10239.6,1.5565136772073733903761534390052
161,10369.5577686306876936357890525705929,10368.0,1.5577686306876936357890525705929
162,10498.7590158106562398867909595765626,10497.2,1.5590158106562398867909595765626
163,10628.7602553128885617369508177024618,10627.2,1.5602553128885617369508177024618
164,10759.5614872314011823399918377579589,10758.0,1.5614872314011823399918377579589
165,10891.1627116584944224107213775755132,10889.6,1.5627116584944224107213775755132
166,11023.5639286847939291397454078334336,11022.0,1.5639286847939291397454078334336
167,11156.7651383992909572543126225070233,11155.2,1.5651383992909572543126225070233
168,11290.7663408893814449142276092843713,11289.2,1.5663408893814449142276092843713
169,11425.5675362409039295049499117100777,11424.0,1.5675362409039295049499117100777
170,11561.1687245381763430710231702658068,11559.6,1.5687245381763430710231702658068
171,11697.5699058640317275843229572297932,11696.0,1.5699058640317275843229572297932
172,11834.7710802998529079138109629291806,11833.2,1.5710802998529079138109629291806
173,11972.7722479256061578991566010184956,11971.2,1.5722479256061578991566010184956
174,12111.5734088198738953717717198523770,12110.0,1.5734088198738953717717198523770
175,12251.1745630598864401082229111730425,12249.6,1.5745630598864401082229111730425
176,12391.5757107215528644224081962859079,12390.0,1.5757107215528644224081962859079
177,12532.7768518794909696570691415250578,12531.2,1.5768518794909696570691415250578
178,12674.7779866070564177290698464856847,12673.2,1.5779866070564177290698464856847
179,12817.5791149763710441734252600366614,12816.0,1.5791149763710441734252600366614
180,12961.1802370583503836325144273984289,12959.6,1.5802370583503836325144273984289
181,13105.5813529227304304391030825351626,13104.0,1.5813529227304304391030825351626
182,13250.7824626380936619886002861444149,13249.2,1.5824626380936619886002861444149
183,13396.7835662718943479498633671555196,13395.2,1.5835662718943479498633671555196
184,13543.5846638904831695561285395532734,13542.0,1.5846638904831695561285395532734
185,13691.1857555591311707842335996342437,13689.6,1.5857555591311707842335996342437
186,13839.5868413420530623907936831924243,13838.0,1.5868413420530623907936831924243
187,13988.7879213024299026058744085266681,13987.2,1.5879213024299026058744085266681
188,14138.7889955024311699205207267904891,14137.2,1.5889955024311699205207267904891
189,14289.5900640032362516992770002846418,14288.0,1.5900640032362516992770002846418
190,14441.1911268650553642688197812242821,14439.6,1.5911268650553642688197812242821
191,14593.5921841471499237053021473770667,14592.0,1.5921841471499237053021473770667
192,14746.7932359078523837026578909271392,14745.2,1.5932359078523837026578909271392
193,14900.7942822045855588257611313017779,14899.2,1.5942822045855588257611313017779
194,15055.5953230938814464892710163074564,15054.0,1.5953230938814464892710163074564
195,15211.1963586313995655945700609677869,15209.6,1.5963586313995655945700609677869
196,15367.5973888719448255167438727996887,15366.0,1.5973888719448255167438727996887
197,15524.7984138694849398169748255038013,15523.2,1.5984138694849398169748255038013
198,15682.7994336771673988423789548774254,15681.2,1.5994336771673988423789548774254
199,15841.6004483473360140471941240356505,15840.0,1.6004483473360140471941240356505
200,16001.2014579315470479755709602051585,15999.6,1.6014579315470479755709602051585
201,16161.6024624805849408824399501684163,16160.0,1.6024624805849408824399501684163
202,16322.8034620444776473686624732017126,16321.2,1.6034620444776473686624732017126
203,16484.8044566725115936852422987892461,16483.2,1.6044566725115936852422987892461
204,16647.6054464132462673215601067205456,16646.0,1.6054464132462673215601067205456
205,16811.2064313145284488430411784337335,16809.6,1.6064313145284488430411784337335
206,16975.6074114235060989970563092187592,16974.0,1.6074114235060989970563092187592
207,17140.8083867866419069577841846540983,17139.2,1.6083867866419069577841846540983
208,17306.8093574497265139315447270226633,17305.2,1.6093574497265139315447270226633
209,17473.6103234578914178655390477230938,17472.0,1.6103234578914178655390477230938
210,17641.2112848556215707557024003566537,17639.6,1.6112848556215707557024003566537
211,17809.6122416867676759127372641686751,17808.0,1.6122416867676759127372641686751
212,17978.8131939945581954135615046964111,17977.2,1.6131939945581954135615046964111
213,18148.8141418216110721161733162138251,18147.2,1.6141418216110721161733162138251
214,18319.6150852099451812137321568023825,18318.0,1.6150852099451812137321568023825
215,18491.2160242009915105341987760561620,18489.6,1.6160242009915105341987760561620
216,18663.6169588356040835401049801119759,18662.0,1.6169588356040835401049801119759
217,18836.8178891540706289876095971570080,18835.2,1.6178891540706289876095971570080
218,19010.8188151961230062174080570727776,19009.2,1.6188151961230062174080570727776
219,19185.6197370009473893505513207184292,19184.0,1.6197370009473893505513207184292
220,19361.2206546071942228974211465956682,19359.6,1.6206546071942228974211465956682
221,19537.6215680529879466822761418506754,19536.0,1.6215680529879466822761418506754
222,19714.8224773759365072808583635805139,19713.2,1.6224773759365072808583635805139
223,19892.8233826131406495320193470162413,19891.2,1.6233826131406495320193470162413
224,20071.6242838012030031827928819559177,20070.0,1.6242838012030031827928819559177
225,20251.2251809762369672235892054188504,20249.6,1.6251809762369672235892054188504
226,20431.6260741738753954515853305835816,20430.0,1.6260741738753954515853305835816
227,20612.8269634292790919052931030393922,20611.2,1.6269634292790919052931030393922
228,20794.8278487771451179806454438532387,20793.2,1.6278487771451179806454438532387
229,20977.6287302517149183808831425714306,20976.0,1.6287302517149183808831425714306
230,21161.2296078867822705866228051429998,21159.6,1.6296078867822705866228051429998
231,21345.6304817157010596355156198534086,21344.0,1.6304817157010596355156198534086
232,21530.8313517713928886205576888658598,21529.2,1.6313517713928886205576888658598
233,21716.8322180863545198926993689386985,21715.2,1.6322180863545198926993689386985
234,21903.6330806926651631139673874022191,21902.0,1.6330806926651631139673874022191
235,22091.2339396219936033323462245715265,22089.6,1.6339396219936033323462245715265
236,22279.6347949056051787773394569362216,22278.0,1.6347949056051787773394569362216
237,22468.8356465743686119964924494829322,22467.2,1.6356465743686119964924494829322
238,22658.8364946587626960640438044541760,22657.2,1.6364946587626960640438044541760
