Eigenstate,Energy,Kinetic Energy,Potential Energy
1,0.500000000236785291347363979285342832,0.0,0.500000000236785291347363979285342832
2,1.84623093919673836420073318797713854,1.2,0.64623093919673836420073318797713854
3,3.93633761424517870805018468088993645,3.2,0.73633761424517870805018468088993645
4,6.79966528727112916174443471971363238,6.0,0.79966528727112916174443471971363238
5,10.4480465916673211506315115913434541,9.6,0.8480465916673211506315115913434541
6,14.8870660222200705141443620629726119,14.0,0.8870660222200705141443620629726119
7,20.1197208603825781935188449277621919,19.2,0.9197208603825781935188449277621919
8,26.1477838925399270707768330156817050,25.2,0.9477838925399270707768330156817050
9,32.9723836177033584188484048566512698,32.0,0.9723836177033584188484048566512698
10,40.5942802900248221578167223648008044,39.6,0.9942802900248221578167223648008044
11,49.0140094796479003790906325200501441,48.0,1.0140094796479003790906325200501441
12,58.2319622818793132697191370419401966,57.2,1.0319622818793132697191370419401966
13,68.2484328267867147266824097356190119,67.2,1.0484328267867147266824097356190119
14,79.0636478120549712317748017770802811,78.0,1.0636478120549712317748017770802811
15,90.6777856188004175803441303843535690,89.6,1.0777856188004175803441303843535690
16,103.090989116441346565859596680908311,102.0,1.090989116441346565859596680908311
17,116.303374496159542491622734244602375,115.2,1.103374496159542491622734244602375
18,130.315037521906500340747882631840884,129.2,1.115037521906500340747882631840884
19,145.126058053507417090314364387003837,144.0,1.126058053507417090314364387003837
20,160.736503384295137915762493570429054,159.6,1.136503384295137915762493570429054
21,177.146430747191860487515306839398817,176.0,1.146430747191860487515306839398817
22,194.355889225867880406577423641678473,193.2,1.155889225867880406577423641678473
23,212.364921232678119890327275386229109,211.2,1.164921232678119890327275386229109
24,231.173563666062553056205363066285019,230.0,1.173563666062553056205363066285019
25,250.781848827342134782532493430995872,249.6,1.181848827342134782532493430995872
26,271.189805154526390447926197185629936,270.0,1.189805154526390447926197185629936
27,292.397457815275993399191146714284390,291.2,1.197457815275993399191146714284390
28,314.404829190261806154125583453578460,313.2,1.204829190261806154125583453578460
29,337.211939270366833500437158020096626,336.0,1.211939270366833500437158020096626
30,360.818805985528048065980534899691134,359.6,1.218805985528048065980534899691134
31,385.225445478869110423563922692313509,384.0,1.225445478869110423563922692313509
32,410.431872336697106200270078940148895,409.2,1.231872336697106200270078940148895
33,436.438099782626774850848816754958375,435.2,1.238099782626774850848816754958375
34,463.244139842345158483968028093721627,462.0,1.244139842345158483968028093721627
35,490.850003484190404060978292331219514,489.6,1.250003484190404060978292331219514
36,519.255700739684973405719690490269854,518.0,1.255700739684973405719690490269854
37,548.461240807359430913431855387167348,547.2,1.261240807359430913431855387167348
38,578.466632142572560102195082583248595,577.2,1.266632142572560102195082583248595
39,609.271882535535711499662625334778345,608.0,1.271882535535711499662625334778345
40,640.876999179353463573405504080715227,639.6,1.276999179353463573405504080715227
41,673.281988729575928138770240006502800,672.0,1.281988729575928138770240006502800
42,706.486857356503039076093484786994950,705.2,1.286857356503039076093484786994950
43,740.491610791274676843763853942496076,739.2,1.291610791274676843763853942496076
44,775.296254366612387257768198947502488,774.0,1.296254366612387257768198947502488
45,810.900793052940883439083317583327496,809.6,1.300793052940883439083317583327496
46,847.305231490504383547455418148277036,846.0,1.305231490504383547455418148277036
47,884.509574017999360307595476184817862,883.2,1.309574017999360307595476184817862
48,922.513824698167691969422788083931608,921.2,1.313824698167691969422788083931608
49,961.317987340729541799970884448660640,960.0,1.317987340729541799970884448660640
50,1000.92206552298117049081737256221809,999.6,1.32206552298117049081737256221809
51,1041.32606260833741890234542547762149,1040.0,1.32606260833741890234542547762149
52,1082.52998176306025335177697011500850,1081.2,1.32998176306025335177697011500850
53,1124.53382597138231553331597043403995,1123.2,1.33382597138231553331597043403995
54,1167.33759804920685802723774895758579,1166.0,1.33759804920685802723774895758579
55,1210.94130065654197086220948575168074,1209.6,1.34130065654197086220948575168074
56,1255.34493630880693002497009785812683,1254.0,1.34493630880693002497009785812683
57,1300.54850738713129984635135425392557,1299.2,1.34850738713129984635135425392557
58,1346.55201614775262400631024259547568,1345.2,1.35201614775262400631024259547568
59,1393.35546473060578595334714447183680,1392.0,1.35546473060578595334714447183680
60,1440.95885516718609502596840752181790,1439.6,1.35885516718609502596840752181790
61,1489.36218938775859033633392203172665,1488.0,1.36218938775859033633392203172665
62,1538.56546922797775347110704213547055,1537.2,1.36546922797775347110704213547055
63,1588.56869643497457917549462152330284,1587.2,1.36869643497457917549462152330284
64,1639.37187267296164070653627831392615,1638.0,1.37187267296164070653627831392615
65,1690.97499952840125170172458027702186,1689.6,1.37499952840125170172458027702186
66,1743.37807851477697906997838282334543,1742.0,1.37807851477697906997838282334543
67,1796.58111107700449912066381270871464,1795.2,1.38111107700449912066381270871464
68,1850.58409859551403298554545659968550,1849.2,1.38409859551403298554545659968550
69,1905.38704239003328471782434351779865,1904.0,1.38704239003328471782434351779865
70,1960.98994372309687718415102745122439,1959.6,1.38994372309687718415102745122439
71,2017.39280380330568216177535643850073,2016.0,1.39280380330568216177535643850073
72,2074.59562378835714281061047987203826,2073.2,1.39562378835714281061047987203826
73,2132.59840478786563368359073674930257,2131.2,1.39840478786563368359073674930257
74,2191.40114786599008459014760616005133,2190.0,1.40114786599008459014760616005133
75,2251.00385404388446352652985006328256,2249.6,1.40385404388446352652985006328256
76,2311.40652430198526432993819203510393,2310.0,1.40652430198526432993819203510393
77,2372.60915958214884231503157554854079,2371.2,1.40915958214884231503157554854079
78,2434.61176078965027535318298428735516,2433.2,1.41176078965027535318298428735516
79,2497.41432879505438103487454091606491,2496.0,1.41432879505438103487454091606491
80,2561.01686443596858242997905168794880,2559.6,1.41686443596858242997905168794880
81,2625.41936851868646561920407649817829,2624.0,1.41936851868646561920407649817829
82,2690.62184181973011071942279569207214,2689.2,1.42184181973011071942279569207214
83,2756.62428508729858939183131276669316,2755.2,1.42428508729858939183131276669316
84,2823.42669904262939753015977052459003,2822.0,1.42669904262939753015977052459003
85,2891.02908438127903254999519932791096,2889.6,1.42908438127903254999519932791096
86,2959.43144177432840883488858216282092,2958.0,1.43144177432840883488858216282092
87,3028.63377186951834742412501057849430,3027.2,1.43377186951834742412501057849430
88,3098.63607529231995264930271559772029,3097.2,1.43607529231995264930271559772029
89,3169.43835264694430492471200952729193,3168.0,1.43835264694430492471200952729193
90,3241.04060451729555567977979151030912,3239.6,1.44060451729555567977979151030912
91,3313.44283146787118896980103567299816,3312.0,1.44283146787118896980103567299816
92,3386.64503404461292600364358505845318,3385.2,1.44503404461292600364358505845318
93,3460.64721277571148657206371974342351,3459.2,1.44721277571148657206371974342351
94,3535.44936817236817843153692697922675,3534.0,1.44936817236817843153692697922675
95,3611.05150072951606454448549527960655,3609.6,1.45150072951606454448549527960655
96,3687.45361092650325625467351752222349,3686.0,1.45361092650325625467351752222349
97,3764.65569922774069613443807020676542,3763.2,1.45569922774069613443807020676542
98,3842.65776608331662136613419096900550,3841.2,1.45776608331662136613419096900550
99,3921.45981192957974504799220237205752,3920.0,1.45981192957974504799220237205752
100,4001.06183718969304647417280598452555,3999.6,1.46183718969304647417280598452555
101,4081.46384227415993213466082072169735,4080.0,1.46384227415993213466082072169735
102,4162.66582758132440360592234042862641,4161.2,1.46582758132440360592234042862641
103,4244.66779349784676058964443791425516,4243.2,1.46779349784676058964443791425516
104,4327.46974039915626009217542831359925,4326.0,1.46974039915626009217542831359925
105,4411.07166864988205966353125914712746,4409.6,1.47166864988205966353125914712746
106,4495.47357860426368185059927369360129,4494.0,1.47357860426368185059927369360129
107,4580.67547060654215893722327315150876,4579.2,1.47547060654215893722327315150876
108,4666.67734499133293780430584190837962,4665.2,1.47734499133293780430584190837962
109,4753.47920208398155614953956951007732,4752.0,1.47920208398155614953956951007732
110,4841.08104220090303888626019700429035,4839.6,1.48104220090303888626019700429035
111,4929.48286564990589767972661275512549,4928.0,1.48286564990589767972661275512549
112,5018.68467273050156714550673243123227,5017.2,1.48467273050156714550673243123227
113,5108.68646373420005569886256243464517,5107.2,1.48646373420005569886256243464517
114,5199.48823894479254028628188672220616,5198.0,1.48823894479254028628188672220616
115,5291.08999863862159378180970223359294,5289.6,1.48999863862159378180970223359294
116,5383.49174308483968549919414898541063,5382.0,1.49174308483968549919414898541063
117,5476.69347254565656355786391628987153,5475.2,1.49347254565656355786391628987153
118,5570.69518727657608680965989817615309,5569.2,1.49518727657608680965989817615309
119,5665.49688752662304031953585732307662,5664.0,1.49688752662304031953585732307662
120,5761.09857353856044255121945592314321,5759.6,1.49857353856044255121945592314321
121,5857.50024554909781414159130286840343,5856.0,1.50024554909781414159130286840343
122,5954.70190378909085923441657978189005,5953.2,1.50190378909085923441657978189005
123,6052.70354848373297815114428853724887,6051.2,1.50354848373297815114428853724887
124,6151.50517985273901249669036954380647,6150.0,1.50517985273901249669036954380647
125,6251.10679811052159423187067063018069,6249.6,1.50679811052159423187067063018069
126,6351.50840346636045504686350000580634,6350.0,1.50840346636045504686350000580634
127,6452.70999612456503179220575758745110,6451.2,1.50999612456503179220575758745110
128,6554.71157628463068113665189293038976,6553.2,1.51157628463068113665189293038976
129,6657.51314414138880454799699960507086,6656.0,1.51314414138880454799699960507086
130,6761.11469988515116631111151912127111,6759.6,1.51469988515116631111151912127111
131,6865.51624370184867189333093465994742,6864.0,1.51624370184867189333093465994742
132,6970.71777577316485899015689356175180,6969.2,1.51777577316485899015689356175180
133,7076.71929627666434180265236409312408,7075.2,1.51929627666434180265236409312408
134,7183.52080538591643782197450926680525,7182.0,1.52080538591643782197450926680525
135,7291.12230327061418828815606512726290,7289.6,1.52230327061418828815606512726290
136,7399.52379009668897980273195734429248,7398.0,1.52379009668897980273195734429248
137,7508.72526602642096126688125044394637,7507.2,1.52526602642096126688125044394637
138,7618.72673121854543670477530011604569,7617.2,1.52673121854543670477530011604569
139,7729.52818582835541242593736247395067,7728.0,1.52818582835541242593736247395067
140,7841.12963000780046153446502610201510,7839.6,1.52963000780046153446502610201510
141,7953.53106390558206423549119313192075,7952.0,1.53106390558206423549119313192075
142,8066.73248766724557431601393816229873,8065.2,1.53248766724557431601393816229873
143,8180.73390143526895352706985382592796,8179.2,1.53390143526895352706985382592796
144,8295.53530534914840841460752373083074,8294.0,1.53530534914840841460752373083074
145,8411.13669954548105995867578384433097,8409.6,1.53669954548105995867578384433097
146,8527.53808415804476851181228427457892,8526.0,1.53808415804476851181228427457892
147,8644.73945931787522832456638055053357,8643.2,1.53945931787522832456638055053357
148,8762.74082515334044698807944938683499,8761.2,1.54082515334044698807944938683499
149,8881.54218179021271159559116318393043,8880.0,1.54218179021271159559116318393043
150,9001.14352935173814526468178604361708,8999.6,1.54352935173814526468178604361708
151,9121.54486795870394993546100763730070,9120.0,1.54486795870394993546100763730070
152,9242.74619772950342574484576818637819,9241.2,1.54619772950342574484576818637819
153,9364.74751878019885592761959970816923,9363.2,1.54751878019885592761959970816923
154,9487.54883122458234114453316528089448,9486.0,1.54883122458234114453316528089448
155,9611.15013517423466147448032039948827,9609.6,1.55013517423466147448032039948827
156,9735.55143073858224393817855632134357,9734.0,1.55143073858224393817855632134357
157,9860.75271802495230660104258561067663,9859.2,1.55271802495230660104258561067663
158,9986.75399713862625107446872359015048,9985.2,1.55399713862625107446872359015048
159,10113.5552681828913670894981474179409,10112.0,1.5552681828913670894981474179409
160,10241.1565312590909154815626083739994,10239.6,1.5565312590909154815626083739994
161,10369.5577864666726480836212237513221,10368.0,1.5577864666726480836212237513221
162,10498.7590339032358239900058004099468,10497.2,1.5590339032358239900058004099468
163,10628.7602736645767770455168347031405,10627.2,1.5602736645767770455168347031405
164,10759.5615058447330891976384105180127,10758.0,1.5615058447330891976384105180127
165,10891.1627305360264183133919400467449,10889.6,1.5627305360264183133919400467449
166,11023.5639478291040309777467846783101,11022.0,1.5639478291040309777467846783101
167,11156.7651578129790875072723002086754,11155.2,1.5651578129790875072723002086754
168,11290.7663605750697218693384844748666,11289.2,1.5663605750697218693384844748666
169,11425.5675562012369615703815169929241,11424.0,1.5675562012369615703815169929241
170,11561.1687447758215272578114214324716,11559.6,1.5687447758215272578114214324716
171,11697.5699263816795522315156750094469,11696.0,1.5699263816795522315156750094469
172,11834.7711011002172597331463131973019,11833.2,1.5711011002172597331463131973019
173,11972.7722690114246334170853778058204,11971.2,1.5722690114246334170853778058204
174,12111.5734301939081168482064936575128,12110.0,1.5734301939081168482064936575128
175,12251.1745847249223760130029737291576,12249.6,1.5745847249223760130029737291576
176,12391.5757326804011545521147928369911,12390.0,1.5757326804011545521147928369911
177,12532.7768741349872549765099737057538,12531.2,1.5768741349872549765099737057538
178,12674.7780091620616750234744407932027,12673.2,1.5780091620616750234744407932027
179,12817.5791378337719255991579304081240,12816.0,1.5791378337719255991579304081240
180,12961.1802602210595612559184595727189,12959.6,1.5802602210595612559184595727189
181,13105.5813763936869458549380976724342,13104.0,1.5813763936869458549380976724342
182,13250.7824864202632811114295385499947,13249.2,1.5824864202632811114295385499947
183,13396.7835903682699210736862163437716,13395.2,1.5835903682699210736862163437716
184,13543.5846883040849967795389998086381,13542.0,1.5846883040849967795389998086381
185,13691.1857802930073729004198190441965,13689.6,1.5857802930073729004198190441965
186,13839.5868663992799573437748074731404,13838.0,1.5868663992799573437748074731404
187,13988.7879466861123876165054805363274,13987.2,1.5879466861123876165054805363274
188,14138.7890212157031093879807424217464,14137.2,1.5890212157031093879807424217464
189,14289.5900900492608709859922752503019,14288.0,1.5900900492608709859922752503019
190,14441.1911532470256494790702868089931,14439.6,1.5911532470256494790702868089931
191,14593.5922108682890275701045735494046,14592.0,1.5922108682890275701045735494046
192,14746.7932629714140376859272092240291,14745.2,1.5932629714140376859272092240291
193,14900.7943096138544915692191036551169,14899.2,1.5943096138544915692191036551169
194,15055.5953508521738087160964491109921,15054.0,1.5953508521738087160964491109921
195,15211.1963867420633615943745939189941,15209.6,1.5963867420633615943745939189941
196,15367.5974173383603513371125936140199,15366.0,1.5974173383603513371125936140199
197,15524.7984426950652282895310569728126,15523.2,1.5984426950652282895310569728126
198,15682.7994628653586715741191193266223,15681.2,1.5994628653586715741191193266223
199,15841.6004779016181405106998350775521,15840.0,1.6004779016181405106998350775521
200,16001.2014878554340118346338448379610,15999.6,1.6014878554340118346338448379610
201,16161.6024927776253136926380123737564,16160.0,1.6024927776253136926380123737564
202,16322.8034927182550697955105886380915,16321.2,1.6034927182550697955105886380915
203,16484.8044877266452643856943211237892,16483.2,1.6044877266452643856943211237892
204,16647.6054778513914396378812035170546,16646.0,1.6054778513914396378812035170546
205,16811.2064631403769354613892497481201,16809.6,1.6064631403769354613892497481201
206,16975.6074436407867847265203694471980,16974.0,1.6074436407867847265203694471980
207,17140.8084193991212697891198162715106,17139.2,1.6084193991212697891198162715106
208,17306.8093904612091545384333345876045,17305.2,1.6093904612091545384333345876045
209,17473.6103568722205977148735414543481,17472.0,1.6103568722205977148735414543481
210,17641.2113186766797589971760641685457,17639.6,1.6113186766797589971760641685457
211,17809.6122759184771052218826421916241,17808.0,1.6122759184771052218826421916241
212,17978.8132286408814269663586186273421,17977.2,1.6132286408814269663586186273421
213,18148.8141768865515698774242784914838,18147.2,1.6141768865515698774242784914838
214,18319.6151206975478957255799463139695,18318.0,1.6151206975478957255799463139695
215,18491.2160601153434723954643386753591,18489.6,1.6160601153434723954643386753591
216,18663.6169951808350067715234807722459,18662.0,1.6169951808350067715234807722459
217,18836.8179259343535244825702846486742,18835.2,1.6179259343535244825702846486742
218,19010.8188524156748054824481750753794,19009.2,1.6188524156748054824481750753794
219,19185.6197746640295787446229137348147,19184.0,1.6197746640295787446229137348147
220,19361.2206927181134885838469525597307,19359.6,1.6206927181134885838469525597307
221,19537.6216066160968305123389896475102,19536.0,1.6216066160968305123389896475102
222,19714.8225163956340738331335134847255,19713.2,1.6225163956340738331335134847255
223,19892.8234220938731645368620160267800,19891.2,1.6234220938731645368620160267800
224,20071.6243237474646235668420218321887,20070.0,1.6243237474646235668420218321887
225,20251.2252213925704430147466103050310,20249.6,1.6252213925704430147466103050310
226,20431.6261150648727837906767134966519,20430.0,1.6261150648727837906767134966519
227,20612.8270047995824834165264288842145,20611.2,1.6270047995824834165264288842145
228,20794.8278906314473757590525636731926,20793.2,1.6278906314473757590525636731926
229,20977.6287725947604298611673834983718,20976.0,1.6287725947604298611673834983718
230,21161.2296507233677125642475242203932,21159.6,1.6296507233677125642475242203932
231,21345.6305250506761767174558086810642,21344.0,1.6305250506761767174558086810642
232,21530.8313956096612853899124510380163,21529.2,1.6313956096612853899124510380163
233,21716.8322624328744670783240647030160,21715.2,1.6322624328744670783240647030160
234,21903.6331255524504180634437242457197,21902.0,1.6331255524504180634437242457197
235,22091.2339850001142450939687240508999,22089.6,1.6339850001142450939687240508999
236,22279.6348408071884581043643861079901,22278.0,1.6348408071884581043643861079901
237,22468.8356930045998165946823108581393,22467.2,1.6356930045998165946823108581393
238,22658.8365416228860314115440898397636,22657.2,1.6365416228860314115440898397636
