Eigenstate,Energy,Kinetic Energy,Potential Energy
1,0.500000000032716455348197475542831082,0.0,0.500000000032716455348197475542831082
2,1.84623093786467052686931834753482875,1.2,0.64623093786467052686931834753482875
3,3.93633761033227843195442888277307720,3.2,0.73633761033227843195442888277307720
4,6.79966527912083777016067043489117385,6.0,0.79966527912083777016067043489117385
5,10.4480465775489801947686608883696538,9.6,0.8480465775489801947686608883696538
6,14.8870660003724993627320325779169832,14.0,0.8870660003724993627320325779169832
7,20.1197208290300943476432069586917714,19.2,0.9197208290300943476432069586917714
8,26.1477838498989940229450518548101555,25.2,0.9477838498989940229450518548101555
9,32.9723835619856463269214410622025175,32.0,0.9723835619856463269214410622025175
10,40.5942802194387330695211521575635616,39.6,0.9942802194387330695211521575635616
11,49.0140093923993705883386435534124387,48.0,1.0140093923993705883386435534124387
12,58.2319621761722472612186408935315569,57.2,1.0319621761722472612186408935315569
13,68.2484327008232185061403031895246677,67.2,1.0484327008232185061403031895246677
14,79.0636476640354701517495480896014121,78.0,1.0636476640354701517495480896014121
15,90.6777854469237044332908676183980800,89.6,1.0777854469237044332908676183980800
16,103.090988918904585822483506421852511,102.0,1.090988918904585822483506421852511
17,116.303374271158245959627480820848439,115.2,1.103374271158245959627480820848439
18,130.315037267634483604058091271777782,129.2,1.115037267634483604058091271777782
19,145.126057768156742654914355191770803,144.0,1.126057768156742654914355191770803
20,160.736503066056048923532297421423848,159.6,1.136503066056048923532297421423848
21,177.146430394252707578726432982517202,176.0,1.146430394252707578726432982517202
22,194.355888836415043494976989643314130,193.2,1.155888836415043494976989643314130
23,212.364920804895926080782588342718917,211.2,1.164920804895926080782588342718917
24,231.173563198133191577884949691578416,230.0,1.173563198133191577884949691578416
25,250.781848317445569567022918870647092,249.6,1.181848317445569567022918870647092
26,271.189804600840270812396739734147068,270.0,1.189804600840270812396739734147068
27,292.397457215975563175061504716282416,291.2,1.197457215975563175061504716282416
28,314.404828543519811515796975767073911,313.2,1.204828543519811515796975767073911
29,337.211938574353429686104154957544226,336.0,1.211938574353429686104154957544226
30,360.818805238410705136398161923486767,359.6,1.218805238410705136398161923486767
31,385.225444678812518170183478562481713,384.0,1.225444678812518170183478562481713
32,410.431871481863078288126573260952007,409.2,1.231871481863078288126573260952007
33,436.438098871174152261710479609288011,435.2,1.238098871174152261710479609288011
34,463.244138872429712309935507365728723,462.0,1.244138872429712309935507365728723
35,490.850002453964737686794701693630401,489.6,1.250002453964737686794701693630401
36,519.255699647298424108687474819200700,518.0,1.255699647298424108687474819200700
37,548.461239650957970902415241083642850,547.2,1.261239650957970902415241083642850
38,578.466630920298697011265632714808255,577.2,1.266630920298697011265632714808255
39,609.271881245528388347181000249482137,608.0,1.271881245528388347181000249482137
40,640.876997819747958193470005000907663,639.6,1.276997819747958193470005000907663
41,673.281987298503752088808639138721425,672.0,1.281987298503752088808639138721425
42,706.486855852091836021779940329608953,705.2,1.286855852091836021779940329608953
43,740.491609211648120420293216967127709,739.2,1.291609211648120420293216967127709
44,775.296252709890078404726861115541065,774.0,1.296252709890078404726861115541065
45,810.900791317238247204648700772312770,809.6,1.300791317238247204648700772312770
46,847.305229673932565356380749536693268,846.0,1.305229673932565356380749536693268
47,884.509572118665121686349485619790080,883.2,1.309572118665121686349485619790080
48,922.513822714173305720919917314862291,921.2,1.313822714173305720919917314862291
49,961.317985270172686619519705823896329,960.0,1.317985270172686619519705823896329
50,1000.92206336395482501421037370702606,999.6,1.32206336395482501421037370702606
51,1041.32606035892975517639358265914664,1040.0,1.32606035892975517639358265914664
52,1082.52997942135452971704400406770642,1081.2,1.32997942135452971704400406770642
53,1124.53382353545676890831682227273245,1123.2,1.33382353545676890831682227273245
54,1167.33759551713459558292397868183448,1166.0,1.33759551713459558292397868183448
55,1210.94129802639086107516324815039300,1209.6,1.34129802639086107516324815039300
56,1255.34493357863949309736071464821038,1254.0,1.34493357863949309736071464821038
57,1300.54850455500459748036954542483022,1299.2,1.34850455500459748036954542483022
58,1346.55201321171814852047830306894672,1345.2,1.35201321171814852047830306894672
59,1393.35546168870934872780780944911300,1392.0,1.35546168870934872780780944911300
60,1440.95885201746771426357431353399239,1439.6,1.35885201746771426357431353399239
61,1489.36218612825237812609286057035010,1488.0,1.36218612825237812609286057035010
62,1538.56546585671180214028200985368581,1537.2,1.36546585671180214028200985368581
63,1588.56869294997084691641102752812255,1587.2,1.36869294997084691641102752812255
64,1639.37186907223583646390912583401654,1638.0,1.37186907223583646390912583401654
65,1690.97499580996271930608393938819472,1689.6,1.37499580996271930608393938819472
66,1743.37807467662858060254272259082001,1742.0,1.37807467662858060254272259082001
67,1796.58110711714249749478424042728131,1795.2,1.38110711714249749478424042728131
68,1850.58409451192797372962106550802204,1849.2,1.38409451192797372962106550802204
69,1905.38703818070587694436548141077163,1904.0,1.38703818070587694436548141077163
70,1960.98993938600387372944825243262640,1959.6,1.38993938600387372944825243262640
71,2017.39279933641575888040873353071135,2016.0,1.39279933641575888040873353071135
72,2074.59561918963177700881490907059646,2073.2,1.39561918963177700881490907059646
73,2132.59840005525898167526873871329854,2131.2,1.39840005525898167526873871329854
74,2191.40114299744885835909941072294480,2190.0,1.40114299744885835909941072294480
75,2251.00384903734780647824423523138760,2249.6,1.40384903734780647824423523138760
76,2311.40651915538462611606163319101731,2310.0,1.40651915538462611606163319101731
77,2372.60915429340785271340271890884297,2371.2,1.40915429340785271340271890884297
78,2434.61175535668461718608773325284286,2433.2,1.41175535668461718608773325284286
79,2497.41432321577166210794141384840599,2496.0,1.41432321577166210794141384840599
80,2561.01685870826820647389688145795922,2559.6,1.41685870826820647389688145795922
81,2625.41936264045950221620113459267685,2624.0,1.41936264045950221620113459267685
82,2690.62183578885916419620162151270697,2689.2,1.42183578885916419620162151270697
83,2756.62427890165766666040375946655128,2755.2,1.42427890165766666040375946655128
84,2823.42669270008377485777309811385246,2822.0,1.42669270008377485777309811385246
85,2891.02907787968512123908217866196431,2889.6,1.42907787968512123908217866196431
86,2959.43143511153361979371272929129028,2958.0,1.43143511153361979371272929129028
87,3028.63376504336095460852406177748050,3027.2,1.43376504336095460852406177748050
88,3098.63606830062895535566272903512954,3097.2,1.43606830062895535566272903512954
89,3169.43834548753928891402704872618038,3168.0,1.43834548753928891402704872618038
90,3241.04059718798655311237077919706050,3239.6,1.44059718798655311237077919706050
91,3313.44282396645853712997956335587364,3312.0,1.44282396645853712997956335587364
92,3386.64502636888712479331457491275616,3385.2,1.44502636888712479331457491275616
93,3460.64720492345305475196219450070524,3459.2,1.44720492345305475196219450070524
94,3535.44936014134750858849041003190071,3534.0,1.44936014134750858849041003190071
95,3611.05149251749327676278364046394596,3609.6,1.45149251749327676278364046394596
96,3687.45360253122805046931118524292790,3686.0,1.45360253122805046931118524292790
97,3764.65569064695220314367501106605441,3763.2,1.45569064695220314367501106605441
98,3842.65775731474325248048770251805509,3841.2,1.45775731474325248048770251805509
99,3921.45980297093904035244245128344861,3920.0,1.45980297093904035244245128344861
100,4001.06182803869152168002073785838043,3999.6,1.46182803869152168002073785838043
101,4081.46383292849292399712896750149872,4080.0,1.46383292849292399712896750149872
102,4162.66581803867591388323421568985128,4161.2,1.46581803867591388323421568985128
103,4244.66778375588929851895628293217010,4243.2,1.46778375588929851895628293217010
104,4327.46973045555068335736303980093301,4326.0,1.46973045555068335736303980093301
105,4411.07165850227741382945887517207411,4409.6,1.47165850227741382945887517207411
106,4495.47356825029703823811257048559566,4494.0,1.47356825029703823811257048559566
107,4580.67546004383845091271540487141890,4579.2,1.47546004383845091271540487141890
108,4666.67733421750479545730589749148786,4665.2,1.47733421750479545730589749148786
109,4753.47919109662913933136352633788918,4752.0,1.47919109662913933136352633788918
110,4841.08103099761386858234858747487773,4839.6,1.48103099761386858234858747487773
111,4929.48285422825468568786691503236176,4928.0,1.48285422825468568786691503236176
112,5018.68466108805004403170470356344700,5017.2,1.48466108805004403170470356344700
113,5108.68645186849679700218453885576919,5107.2,1.48645186849679700218453885576919
114,5199.48822685337279094353751878188462,5198.0,1.48822685337279094353751878188462
115,5291.08998631900709074248366353810782,5289.6,1.48998631900709074248366353810782
116,5383.49173053453847850056466471147825,5382.0,1.49173053453847850056466471147825
117,5476.69345976216283402976624198033865,5475.2,1.49345976216283402976624198033865
118,5570.69517425736996487786182488735856,5569.2,1.49517425736996487786182488735856
119,5665.49687426917041987619293778013688,5664.0,1.49687426917041987619293778013688
120,5761.09856004031279436036675925378489,5759.6,1.49856004031279436036675925378489
121,5857.50023180749199694710706703042354,5856.0,1.50023180749199694710706703042354
122,5954.70188980154892883736197967814646,5953.2,1.50188980154892883736197967814646
123,6052.70353424766199442283994968548936,6051.2,1.50353424766199442283994968548936
124,6151.50516536553084429333678626322771,6150.0,1.50516536553084429333678626322771
125,6251.10678336955272217595341840796277,6249.6,1.50678336955272217595341840796277
126,6351.50838846899177214000646621284952,6350.0,1.50838846899177214000646621284952
127,6452.70998086814164182354743252074794,6451.2,1.50998086814164182354743252074794
128,6554.71156076648169485021637390129352,6553.2,1.51156076648169485021637390129352
129,6657.51312835882713353191773323072275,6656.0,1.51312835882713353191773323072275
130,6761.11468383547331457093890645291268,6759.6,1.51468383547331457093890645291268
131,6865.51622738233452507101392855964142,6864.0,1.51622738233452507101392855964142
132,6970.71775918107747118963402347004990,6969.2,1.51775918107747118963402347004990
133,7076.71927940924971998232251714942707,7075.2,1.51927940924971998232251714942707
134,7183.52078824040332371363313889163462,7182.0,1.52078824040332371363313889163462
135,7291.12228584421383780128804308106962,7289.6,1.52228584421383780128804308106962
136,7399.52377238659493987234143563547901,7398.0,1.52377238659493987234143563547901
137,7508.72524802980884410231140070950418,7507.2,1.52524802980884410231140070950418
138,7618.72671293257269139623166275950971,7617.2,1.52671293257269139623166275950971
139,7729.52816725016109386466956263742000,7728.0,1.52816725016109386466956263742000
140,7841.12961113450499660178821994855427,7839.6,1.52961113450499660178821994855427
141,7953.53104473428701521504082855790542,7952.0,1.53104473428701521504082855790542
142,8066.73246819503339948281818637865878,8065.2,1.53246819503339948281818637865878
143,8180.73388165920276486620099067642569,8179.2,1.53388165920276486620099067642569
144,8295.53528526627172642133171600039149,8294.0,1.53528526627172642133171600039149
145,8411.13667915281756547116154797749944,8409.6,1.53667915281756547116154797749944
146,8527.53806345259805152657723046991104,8526.0,1.53806345259805152657723046991104
147,8644.73943829662853374394639751342812,8643.2,1.53943829662853374394639751342812
148,8762.74080381325641724808680673894199,8761.2,1.54080381325641724808680673894199
149,8881.54216012823312612159062126441739,8880.0,1.54216012823312612159062126441739
150,9001.14350736478365670135756670204583,8999.6,1.54350736478365670135756670204583
151,9121.54484564367381709656723367564451,9120.0,1.54484564367381709656723367564451
152,9242.74617508327524322723589760511937,9241.2,1.54617508327524322723589760511937
153,9364.74749579962828033302688923577895,9363.2,1.54749579962828033302688923577895
154,9487.54880790650281385153119746622207,9486.0,1.54880790650281385153119746622207
155,9611.15011151545712790198551772108344,9609.6,1.55011151545712790198551772108344
156,9735.55140673589486924076490256289707,9734.0,1.55140673589486924076490256289707
157,9860.75269367512018773522675613125037,9859.2,1.55269367512018773522675613125037
158,9986.75397243839112517398098420472035,9985.2,1.55397243839112517398098420472035
159,10113.5552431289713160863927684867343,10112.0,1.5552431289713160863927684867343
160,10241.1565058481800669088288266764414,10239.6,1.5565058481800669088288266764414
161,10369.5577606954408719937393248906039,10368.0,1.5577606954408719937393248906039
162,10498.7590077683284259226479897483543,10497.2,1.5590077683284259226479897483543
163,10628.7602471626141869763207960034996,10627.2,1.5602471626141869763207960034996
164,10759.5614789723105463986795754540461,10758.0,1.5614789723105463986795754540461
165,10891.1627032897136520546492865524025,10889.6,1.5627032897136520546492865524025
166,11023.5639202054449369974987784009784,11022.0,1.5639202054449369974987784009784
167,11156.7651298084914001779658583282989,11155.2,1.5651298084914001779658583282989
168,11290.7663321862446819840513244552071,11289.2,1.5663321862446819840513244552071
169,11425.5675274245389796735436143319197,11424.0,1.5675274245389796735436143319197
170,11561.1687156076878424423612613210533,11559.6,1.5687156076878424423612613210533
171,11697.5698968185198863231448781009153,11696.0,1.5698968185198863231448781009153
172,11834.7710711384134667807279533505827,11833.2,1.5710711384134667807279533505827
173,11972.7722386473303444067883367855171,11971.2,1.5722386473303444067883367855171
174,12111.5733994238483795571656707783179,12110.0,1.5733994238483795571656707783179
175,12251.1745535451932899167489568347333,12249.6,1.5745535451932899167489568347333
176,12391.5757010872695006982582225919005,12390.0,1.5757010872695006982582225919005
177,12532.7768421246901207354289939817618,12531.2,1.5768421246901207354289939817618
178,12674.7779767308060736249668750601551,12673.2,1.5779767308060736249668750601551
179,12817.5791049777344103621892863894653,12816.0,1.5791049777344103621892863894653
180,12961.1802269363858344167243780371294,12959.6,1.5802269363858344167243780371294
181,13105.5813426764914618968243934772912,13104.0,1.5813426764914618968243934772912
182,13250.7824522666288444976499724521023,13249.2,1.5824522666288444976499724521023
183,13396.7835557742472782827704438375413,13395.2,1.5835557742472782827704438375413
184,13543.5846532656924225403870856389873,13542.0,1.5846532656924225403870856389873
185,13691.1857448062302505223738360661496,13689.6,1.5857448062302505223738360661496
186,13839.5868304600703530347253984285109,13838.0,1.5868304600703530347253984285109
187,13988.7879102903886186798812982034439,13987.2,1.5879102903886186798812982034439
188,14138.7889843593493061872106923677131,14137.2,1.5889843593493061872106923677131
189,14289.5900527281265325627164742863711,14288.0,1.5900527281265325627164742863711
190,14441.1911154569251927090036487676548,14439.6,1.5911154569251927090036487676548
191,14593.5921726050013297380310276363153,14592.0,1.5921726050013297380310276363153
192,14746.7932242306819723588156612123004,14745.2,1.5932242306819723588156612123004
193,14900.7942703913844576439037776532382,14899.2,1.5942703913844576439037776532382
194,15055.5953111436352525153561885105240,15054.0,1.5953111436352525153561885105240
195,15211.1963465430882918825714847140285,15209.6,1.5963465430882918825714847140285
196,15367.5973766445428471238111970694691,15366.0,1.5973766445428471238111970694691
197,15524.7984015019609392867115852014202,15523.2,1.5984015019609392867115852014202
198,15682.7994211684843111697244710883792,15681.2,1.5994211684843111697244710883792
199,15841.6004356964509711183042699352753,15840.0,1.6004356964509711183042699352753
200,16001.2014451374113224760034750648612,15999.6,1.6014451374113224760034750648612
201,16161.6024495421438896668568343204090,16160.0,1.6024495421438896668568343204090
202,16322.8034489606706542851672108572276,16321.2,1.6034489606706542851672108572276
203,16484.8044434422720118473764388548455,16483.2,1.6044434422720118473764388548455
204,16647.6054330355013608208843132196637,16646.0,1.6054330355013608208843132196637
205,16811.2064177881993338951291361509823,16809.6,1.6064177881993338951291361509823
206,16975.6073977475076845136284672538761,16974.0,1.6073977475076845136284672538761
207,17140.8083729598828345376068801755711,17139.2,1.6083729598828345376068801755711
208,17306.8093434711090972626171511783611,17305.2,1.6093434711090972626171511783611
209,17473.6103093263115815309838792749667,17472.0,1.6103093263115815309838792749667
210,17641.2112705699687884356702976344192,17639.6,1.6112705699687884356702976344192
211,17809.6122272459249079745261741625653,17808.0,1.6122272459249079745261741625653
212,17978.8131793974018258820406245909246,17977.2,1.6131793974018258820406245909246
213,18148.8141270670108450164894424426882,18147.2,1.6141270670108450164894424426882
214,18319.6150702967641362781620596306225,18318.0,1.6150702967641362781620596306225
215,18491.2160091280859182648945774935123,18489.6,1.6160091280859182648945774935123
216,18663.6169436018233796193610465965998,18662.0,1.6169436018233796193610465965998
217,18836.8178737582573480271601272635988,18835.2,1.6178737582573480271601272635988
218,19010.8187996371127148381417598638398,19009.2,1.6187996371127148381417598638398
219,19185.6197212775686185839044634544140,19184.0,1.6197212775686185839044634544140
220,19361.2206387182683998995856856144770,19359.6,1.6206387182683998995856856144770
221,19537.6215519973293257522294140513494,19536.0,1.6215519973293257522294140513494
222,19714.8224611523521001730910650389381,19713.2,1.6224611523521001730910650389381
223,19892.8233662204301550547050622542691,19891.2,1.6233662204301550547050622542691
224,20071.6242672381587360720075487219995,20070.0,1.6242672381587360720075487219995
225,20251.2251642416437862840510838252390,20249.6,1.6251642416437862840510838252390
226,20431.6260572665106309542459616828199,20430.0,1.6260572665106309542459616828199
227,20612.8269463479124722319688755415905,20611.2,1.6269463479124722319688755415905
228,20794.8278315205386955057321979948280,20793.2,1.6278315205386955057321979948280
229,20977.6287128186229945800511193793540,20976.0,1.6287128186229945800511193793540
230,21161.2295902759513203622390241201534,21159.6,1.6295902759513203622390241201534
231,21345.6304639258696548483875343047890,21344.0,1.6304639258696548483875343047890
232,21530.8313338012916208174378560164686,21529.2,1.6313338012916208174378560164686
233,21716.8321999347059222188335225567683,21715.2,1.6321999347059222188335225567683
234,21903.6330623581836313998062955734401,21902.0,1.6330623581836313998062955734401
235,22091.2339211033853163433803795627456,22089.6,1.6339211033853163433803795627456
236,22279.6347762015680176158488583521817,22278.0,1.6347762015680176158488583521817
237,22468.8356276835920786438343670414321,22467.2,1.6356276835920786438343670414321
238,22658.8364755799278310519297426780755,22657.2,1.6364755799278310519297426780755
