Eigenstate,Energy,Kinetic Energy,Potential Energy
1,0.500000000031638245387652740104059122,0.0,0.500000000031638245387652740104059122
2,1.84623093785763252892169370264331079,1.2,0.64623093785763252892169370264331079
3,3.93633761031160485706836777519316534,3.2,0.73633761031160485706836777519316534
4,6.79966527907777700631298476974651071,6.0,0.79966527907777700631298476974651071
5,10.4480465774743899899763831273086805,9.6,0.8480465774743899899763831273086805
6,14.8870660002570773697489823831529712,14.0,0.8870660002570773697489823831529712
7,20.1197208288644630685126507348858967,19.2,0.9197208288644630685126507348858967
8,26.1477838496737362340228914325099585,25.2,0.9477838496737362340228914325099585
9,32.9723835616913215512095783694660572,32.0,0.9723835616913215512095783694660572
10,40.5942802190658859367949603916021541,39.6,0.9942802190658859367949603916021541
11,49.0140093919385353764131604889969686,48.0,1.0140093919385353764131604889969686
12,58.2319621756139504911758211031727548,57.2,1.0319621756139504911758211031727548
13,68.2484327001579804781201145561245127,67.2,1.0484327001579804781201145561245127
14,79.0636476632538058710284532064560546,78.0,1.0636476632538058710284532064560546
15,90.6777854460161241685264657239513093,89.6,1.0777854460161241685264657239513093
16,103.090988917861595432897850529100630,102.0,1.090988917861595432897850529100630
17,116.303374269970347071881190091666450,115.2,1.103374269970347071881190091666450
18,130.315037266292173688316085108484502,129.2,1.115037266292173688316085108484502
19,145.126057766650515031461406580477916,144.0,1.126057766650515031461406580477916
20,160.736503064376392720387939477005661,159.6,1.136503064376392720387939477005661
21,177.146430392390107653942524200605820,176.0,1.146430392390107653942524200605820
22,194.355888834359980332986434522592055,193.2,1.155888834359980332986434522592055
23,212.364920802638875669346924128474008,211.2,1.164920802638875669346924128474008
24,231.173563195664625270302674868945526,230.0,1.173563195664625270302674868945526
25,250.781848314755953932973839878483022,249.6,1.181848314755953932973839878483022
26,271.189804597920067479903512414509500,270.0,1.189804597920067479903512414509500
27,292.397457212815228665417668081119956,291.2,1.197457212815228665417668081119956
28,314.404828540109797072857274494475801,313.2,1.204828540109797072857274494475801
29,337.211938570684181101002831692661576,336.0,1.211938570684181101002831692661576
30,360.818805234472662568517434153240639,359.6,1.218805234472662568517434153240639
31,385.225444674596115965012681042321197,384.0,1.225444674596115965012681042321197
32,410.431871477358744792515258752432801,409.2,1.231871477358744792515258752432801
33,436.438098866372309636914126925600718,435.2,1.238098866372309636914126925600718
34,463.244138867320776342771892973719635,462.0,1.244138867320776342771892973719635
35,490.850002448539117599166349751271764,489.6,1.250002448539117599166349751271764
36,519.255699641546522365676499305800055,518.0,1.255699641546522365676499305800055
37,548.461239644870183019118104446801465,547.2,1.261239644870183019118104446801465
38,578.466630913865411358504461690155058,577.2,1.266630913865411358504461690155058
39,609.271881238739985956203344415599851,608.0,1.271881238739985956203344415599851
40,640.876997812594812559728947153517954,639.6,1.276997812594812559728947153517954
41,673.281987290976228974898943522987649,672.0,1.281987290976228974898943522987649
42,706.486855844180293259592666036630234,705.2,1.286855844180293259592666036630234
43,740.491609203342907712440341953462036,739.2,1.291609203342907712440341953462036
44,775.296252701181537125278461334400143,774.0,1.296252701181537125278461334400143
45,810.900791308116710199217768055819879,809.6,1.300791308116710199217768055819879
46,847.305229664388356741584491440483440,846.0,1.305229664388356741584491440483440
47,884.509572108688556648670743881568782,883.2,1.309572108688556648670743881568782
48,922.513822703754690314987926809464108,921.2,1.313822703754690314987926809464108
49,961.317985259302317565825710193365025,960.0,1.317985259302317565825710193365025
50,1000.92206335262298949627045389852235,999.6,1.32206335262298949627045389852235
51,1041.32606034712673063736835628120258,1040.0,1.32606034712673063736835628120258
52,1082.52997940907058365582255788822416,1081.2,1.32997940907058365582255788822416
53,1124.53382352268215867507025847252403,1123.2,1.33382352268215867507025847252403
54,1167.33759550385956817413224458554061,1166.0,1.33759550385956817413224458554061
55,1210.94129801260565292811744999073646,1209.6,1.34129801260565292811744999073646
56,1255.34493356433432988414182295967204,1254.0,1.34493356433432988414182295967204
57,1300.54850454016969390130329703030284,1299.2,1.34850454016969390130329703030284
58,1346.55201319634370809706510890381877,1345.2,1.35201319634370809706510890381877
59,1393.35546167278556359512563743093181,1392.0,1.35546167278556359512563743093181
60,1440.95885200098476496215174940652179,1439.6,1.35885200098476496215174940652179
61,1489.36218611120043339324889037426223,1488.0,1.36218611120043339324889037426223
62,1538.56546583908101870092847196142188,1537.2,1.36546583908101870092847196142188
63,1588.56869293175136927331315884299258,1587.2,1.36869293175136927331315884299258
64,1639.37186905341779668739916203387361,1638.0,1.37186905341779668739916203387361
65,1690.97499579053623682322230386937763,1689.6,1.37499579053623682322230386937763
66,1743.37807465658376198572096594858690,1742.0,1.37807465658376198572096594858690
67,1796.58110709646943624976354504857799,1795.2,1.38110709646943624976354504857799
68,1850.58409449061675008299984782701238,1849.2,1.38409449061675008299984782701238
69,1905.38703815874655763046930617983123,1904.0,1.38703815874655763046930617983123
70,1960.98993936338651177663505691348186,1959.6,1.38993936338651177663505691348186
71,2017.39279931313039339678210589572076,2016.0,1.39279931313039339678210589572076
72,2074.59561916566843296733795228317875,2073.2,1.39561916566843296733795228317875
73,2132.59840003060766969827088045179355,2131.2,1.39840003060766969827088045179355
74,2191.40114297209957450216830118957017,2190.0,1.40114297209957450216830118957017
75,2251.00384901129053201349472991055243,2249.6,1.40384901129053201349472991055243
76,2311.40651912860932731477370177709603,2310.0,1.40651912860932731477370177709603
77,2372.60915426590448062801996651346963,2371.2,1.40915426590448062801996651346963
78,2434.61175532844310743156809102329579,2433.2,1.41175532844310743156809102329579
79,2497.41432318678193464245140853561579,2496.0,1.41432318678193464245140853561579
80,2561.01685867852016537884080365795658,2559.6,1.41685867852016537884080365795658
81,2625.41936260994303547557627008837248,2624.0,1.41936260994303547557627008837248
82,2690.62183575756414347527063705459762,2689.2,1.42183575756414347527063705459762
83,2756.62427886957394708367520038222853,2755.2,1.42427886957394708367520038222853
84,2823.42669266720119478628086986175649,2822.0,1.42669266720119478628086986175649
85,2891.02907784599350204695477482544743,2889.6,1.42907784599350204695477482544743
86,2959.43143507702276564402289120079652,2958.0,1.43143507702276564402289120079652
87,3028.63376500802065222840944221980197,3027.2,1.43376500802065222840944221980197
88,3098.63606826444897381070806312628587,3097.2,1.43606826444897381070806312628587
89,3169.43834545050937938189823307565596,3168.0,1.43834545050937938189823307565596
90,3241.04059715009644865569118964586362,3239.6,1.44059715009644865569118964586362
91,3313.44282392769795246843884856637150,3312.0,1.44282392769795246843884856637150
92,3386.64502632924575607500008611193008,3385.2,1.44502632924575607500008611193008
93,3460.64720488292057932390312928860047,3459.2,1.44720488292057932390312928860047
94,3535.44936009991358476640467825883732,3534.0,1.44936009991358476640467825883732
95,3611.05149247514754360001735891816454,3609.6,1.45149247514754360001735891816454
96,3687.45360248796012752496066755730979,3686.0,1.45360248796012752496066755730979
97,3764.65569060275169024988100612025540,3763.2,1.45569060275169024988100612025540
98,3842.65775726959972950889157860250380,3841.2,1.45775726959972950889157860250380
99,3921.45980292484206697979394075945567,3920.0,1.45980292484206697979394075945567
100,4001.06182799163063715292678883372972,3999.6,1.46182799163063715292678883372972
101,4081.46383288045764689593316999771393,4080.0,1.46383288045764689593316999771393
102,4162.66581798965574188501617368496819,4161.2,1.46581798965574188501617368496819
103,4244.66778370587370815964027853265099,4243.2,1.46778370587370815964027853265099
104,4327.46973040452912979292520425550798,4326.0,1.46973040452912979292520425550798
105,4411.07165845023933059622204022512995,4409.6,1.47165845023933059622204022512995
106,4495.47356819723183701211788999591490,4494.0,1.47356819723183701211788999591490
107,4580.67545998973552126815975306840723,4579.2,1.47545998973552126815975306840723
108,4666.67733416235350462403398928017416,4665.2,1.47733416235350462403398928017416
109,4753.47919104041883195140361554886654,4752.0,1.47919104041883195140361554886654
110,4841.08103094033386646548051801050536,4839.6,1.48103094033386646548051801050536
111,4929.48285416989428756621124101524048,4928.0,1.48285416989428756621124101524048
112,5018.68466102859852531332149076524981,5017.2,1.48466102859852531332149076524981
113,5108.68645180794340952367041822393281,5107.2,1.48645180794340952367041822393281
114,5199.48822679170676272160943340635326,5198.0,1.48822679170676272160943340635326
115,5291.08998625621762572453771341051350,5289.6,1.48998625621762572453771341051350
116,5383.49173047061475631419836053011464,5382.0,1.49173047061475631419836053011464
117,5476.69345969709400973125237738501716,5475.2,1.49345969709400973125237738501716
118,5570.69517419114516869956212869042662,5569.2,1.49517419114516869956212869042662
119,5665.49687420177875697289955925152673,5664.0,1.49687420177875697289955925152673
120,5761.09855997174334455455956963204022,5759.6,1.49855997174334455455956963204022
121,5857.50023173773381447311466673164097,5856.0,1.50023173773381447311466673164097
122,5954.70188973059104208441422230106173,5953.2,1.50188973059104208441422230106173
123,6052.70353417549340567699971075108490,6051.2,1.50353417549340567699971075108490
124,6151.50516529214052947829859394523472,6150.0,1.50516529214052947829859394523472
125,6251.10678329492963059269652022606106,6249.6,1.50678329492963059269652022606106
126,6351.50838839312482620528978132565200,6350.0,1.50838839312482620528978132565200
127,6452.70998079101973680723374882140986,6451.2,1.50998079101973680723374882140986
128,6554.71156068809369861141307715706439,6553.2,1.51156068809369861141307715706439
129,6657.51312827916188625392127685606794,6656.0,1.51312827916188625392127685606794
130,6761.11468375451962849497007854584141,6759.6,1.51468375451962849497007854584141
131,6865.51622730008118422873094003279071,6864.0,1.51622730008118422873094003279071
132,6970.71775909751323113441033848879129,6969.2,1.51775909751323113441033848879129
133,7076.71927932436330751927619981203169,7075.2,1.51927932436330751927619981203169
134,7183.52078815418343662839448551984695,7182.0,1.52078815418343662839448551984695
135,7291.12228575664914458749205991463881,7289.6,1.52228575664914458749205991463881
136,7399.52377229767407945783173418737292,7398.0,1.52377229767407945783173418737292
137,7508.72524793952042557404188888466996,7507.2,1.52524793952042557404188888466996
138,7618.72671284090529372385237105720658,7617.2,1.52671284090529372385237105720658
139,7729.52816715710326562278283188193565,7728.0,1.52816715710326562278283188193565
140,7841.12961104004525569086132056301025,7839.6,1.52961104004525569086132056301025
141,7953.53104463841384858096107698925213,7952.0,1.53104463841384858096107698925213
142,8066.73246809773526283507643638549785,8065.2,1.53246809773526283507643638549785
143,8180.73388156046808239468927418411870,8179.2,1.53388156046808239468927418411870
144,8295.53528516608889051174076721584185,8294.0,1.53528516608889051174076721584185
145,8411.13667905117493641896374724310980,8409.6,1.53667905117493641896374724310980
146,8527.53806334948395724958045687005600,8526.0,1.53806334948395724958045687005600
147,8644.73943819203126949340416303157465,8643.2,1.53943819203126949340416303157465
148,8762.74080370716424531834988800281485,8761.2,1.54080370716424531834988800281485
149,8881.54216002063427555828532615351410,8880.0,1.54216002063427555828532615351410
150,9001.14350725566632300807566426810684,8999.6,1.54350725566632300807566426810684
151,9121.54484553302616194005242356288550,9120.0,1.54484553302616194005242356288550
152,9242.74617497108539414105162967963682,9241.2,1.54617497108539414105162967963682
153,9364.74749568588433041969014480199872,9363.2,1.54749568588433041969014480199872
154,9487.54880779119282148309682666003399,9486.0,1.54880779119282148309682666003399
155,9611.15011139856911641906552201654356,9609.6,1.55011139856911641906552201654356
156,9735.55140661741682664996691364379959,9734.0,1.55140661741682664996691364379959
157,9860.75269355504006640499596974665834,9859.2,1.55269355504006640499596974665834
158,9986.75397231669684152882950128940516,9985.2,1.55397231669684152882950128940516
159,10113.5552430056507502995003062365711,10112.0,1.5552430056507502995003062365711
160,10241.1565057232210625929985804324684,10239.6,1.5565057232210625929985804324684
161,10369.5577605688312358906926106108929,10368.0,1.5577605688312358906926106108929
162,10498.7590076400559275906412072116827,10497.2,1.5590076400559275906412072116827
163,10628.7602470326665584760680723790660,10627.2,1.5602470326665584760680723790660
164,10759.5614788406754819775643581820841,10758.0,1.5614788406754819775643581820841
165,10891.1627031563788078292079976090554,10889.6,1.5627031563788078292079976090554
166,11023.5639200703979306341594961318172,11022.0,1.5639200703979306341594961318172
167,11156.7651296717198105720248779054542,11155.2,1.5651296717198105720248779054542
168,11290.7663320477360489368702529830227,11289.2,1.5663320477360489368702529830227
169,11425.5675272842808035679495856443941,11424.0,1.5675272842808035679495856443941
170,11561.1687154656675839162326542187077,11559.6,1.5687154656675839162326542187077
171,11697.5698966747249659411647640745909,11696.0,1.5698966747249659411647640745909
172,11834.7710709928312647042874370328120,11833.2,1.5710709928312647042874370328120
173,11972.7722384999482000620217244847844,11971.2,1.5722384999482000620217244847844
174,12111.5733992746535913010992522787845,12110.0,1.5733992746535913010992522787845
175,12251.1745533941731147015450771363347,12249.6,1.5745533941731147015450771363347
176,12391.5757009344111537335361183524973,12390.0,1.5757009344111537335361183524973
177,12532.7768419699807751486437134342155,12531.2,1.5768419699807751486437134342155
178,12674.7779765742328601198275301967199,12673.2,1.5779765742328601198275301967199
179,12817.5791048192844168750975878670613,12816.0,1.5791048192844168750975878670613
180,12961.1802267760461057712143113512134,12959.6,1.5802267760461057712143113512134
181,13105.5813425142489994559837602534458,13104.0,1.5813425142489994559837602534458
182,13250.7824521024706058145043267738036,13249.2,1.5824521024706058145043267738036
183,13396.7835556081601767486096996883299,13395.2,1.5835556081601767486096996883299
184,13543.5846530976633270310150721544106,13542.0,1.5846530976633270310150721544106
185,13691.1857446362459850422607513181448,13689.6,1.5857446362459850422607513181448
186,13839.5868302881176963590430363829922,13838.0,1.5868302881176963590430363829922
187,13988.7879101164543039944006618037155,13987.2,1.5879101164543039944006618037155
188,14138.7889841834200207260415523793278,14137.2,1.5889841834200207260415523793278
189,14289.5900525501889172438680692895079,14288.0,1.5900525501889172438680692895079
190,14441.1911152769658417677457550846577,14439.6,1.5911152769658417677457550846577
191,14593.5921724230067903580342493611351,14592.0,1.5921724230067903580342493611351
192,14746.7932240466387443010497292239048,14745.2,1.5932240466387443010497292239048
193,14900.7942702052789928732723947867488,14899.2,1.5942702052789928732723947867488
194,15055.5953109554539548250468127563881,15054.0,1.5953109554539548250468127563881
195,15211.1963463528175165160981884201427,15209.6,1.5963463528175165160981884201427
196,15367.5973764521689003947286172707700,15366.0,1.5973764521689003947286172707700
197,15524.7984013074700781959777066377124,15523.2,1.5984013074700781959777066377124
198,15682.7994209718627430206898799690388,15681.2,1.5994209718627430206898799690388
199,15841.6004354976848531293051801082996,15840.0,1.6004354976848531293051801082996
200,16001.2014449364867613905357535825679,15999.6,1.6014449364867613905357535825679
201,16161.6024493390469413613079439406358,16160.0,1.6024493390469413613079439406358
202,16322.8034487553873233740829142757961,16321.2,1.6034487553873233740829142757961
203,16484.8044432347882512862386849457933,16483.2,1.6044432347882512862386849457933
204,16647.6054328258030715063767247572282,16646.0,1.6054328258030715063767247572282
205,16811.2064175762723642628662030531819,16809.6,1.6064175762723642628662030531819
206,16975.6073975333378301333242775520015,16974.0,1.6073975333378301333242775520015
207,17140.8083727434558377056591425702596,17139.2,1.6083727434558377056591425702596
208,17306.8093432524106465920818815793663,17305.2,1.6093432524106465920818815793663
209,17473.6103091053273115389160075495934,17472.0,1.6103091053273115389160075495934
210,17641.2112703466842791278051606693400,17639.6,1.6112703466842791278051606693400
211,17809.6122270203256844272767052925988,17808.0,1.6122270203256844272767052925988
212,17978.8131791694733578217846934006145,17977.2,1.6131791694733578217846934006145
213,18148.8141268367385463961216661900872,18147.2,1.6141268367385463961216661900872
214,18319.6150700641333648508841226289219,18318.0,1.6150700641333648508841226289219
215,18491.2160088930819751552178508277030,18489.6,1.6160088930819751552178508277030
216,18663.6169433644315088912950625502177,18662.0,1.6169433644315088912950625502177
217,18836.8178735184627362495602250966578,18835.2,1.6178735184627362495602250966578
218,19010.8187993949004906471889022621115,19009.2,1.6187993949004906471889022621115
219,19185.6197210329238522426901310378791,19184.0,1.6197210329238522426901310378791
220,19361.2206384711761028547742495490966,19359.6,1.6206384711761028547742495490966
221,19537.6215517477744501877703775598467,19536.0,1.6215517477744501877703775598467
222,19714.8224609003195385609531202968011,19713.2,1.6224609003195385609531202968011
223,19892.8233659659047397026037374875691,19891.2,1.6233659659047397026037374875691
224,20071.6242669811252386680979115100475,20070.0,1.6242669811252386680979115100475
225,20251.2251639820869174385566938949928,20249.6,1.6251639820869174385566938949928
226,20431.6260570044150397379950405027167,20430.0,1.6260570044150397379950405027167
227,20612.8269460832627457118082792732926,20611.2,1.6269460832627457118082792732926
228,20794.8278312533193582767896037616657,20793.2,1.6278312533193582767896037616657
229,20977.6287125488185082948154748593962,20976.0,1.6287125488185082948154748593962
230,21161.2295900035460832564290450505474,21159.6,1.6295900035460832564290450505474
231,21345.6304636508480012635777774355088,21344.0,1.6304636508480012635777774355088
232,21530.8313335236378207204115165710486,21529.2,1.6313335236378207204115165710486
233,21716.8321996544041807176308964514922,21715.2,1.6321996544041807176308964514922
234,21903.6330620752180882564374511827008,21902.0,1.6330620752180882564374511827008
235,22091.2339208177400454831703687763076,22089.6,1.6339208177400454831703687763076
236,22279.6347759132270266333834221257376,22278.0,1.6347759132270266333834221257376
237,22468.8356273925393083054737859003144,22467.2,1.6356273925393083054737859003144
238,22658.8364752861471547948581587553669,22657.2,1.6364752861471547948581587553669
