Eigenstate,Energy,Kinetic Energy,Potential Energy
1,0.500000000071031631853977655268117351,0.0,0.500000000071031631853977655268117351
2,1.84623093811477274909101335284426047,1.2,0.64623093811477274909101335284426047
3,3.93633761106693680119970694819147863,3.2,0.73633761106693680119970694819147863
4,6.79966528065105660476930045296322735,6.0,0.79966528065105660476930045296322735
5,10.4480465801996529661013226818554441,9.6,0.8480465801996529661013226818554441
6,14.8870660044742186284632243265679788,14.0,0.8870660044742186284632243265679788
7,20.1197208349161357218172219453813571,19.2,0.9197208349161357218172219453813571
8,26.1477838579040598704428056017979284,25.2,0.9477838579040598704428056017979284
9,32.9723835724452829617219486790782549,32.0,0.9723835724452829617219486790782549
10,40.5942802326890362302270369661943388,39.6,0.9942802326890362302270369661943388
11,49.0140094087768266230817942159108068,48.0,1.0140094087768266230817942159108068
12,58.2319621960136434695959990628210995,57.2,1.0319621960136434695959990628210995
13,68.2484327244655911320887765785963537,67.2,1.0484327244655911320887765785963537
14,79.0636476918160740462040333007589404,78.0,1.0636476918160740462040333007589404
15,90.6777854791799957914447986522222355,89.6,1.0777854791799957914447986522222355
16,103.090988955974213135533513320131603,102.0,1.090988955974213135533513320131603
17,116.303374313379046311630338557865924,115.2,1.103374313379046311630338557865924
18,130.315037315344482555079098833495829,129.2,1.115037315344482555079098833495829
19,145.126057821694156596366992751356631,144.0,1.126057821694156596366992751356631
20,160.736503125759289179262641123013282,159.6,1.136503125759289179262641123013282
21,177.146430460460385765843383950590195,176.0,1.146430460460385765843383950590195
22,194.355888909465977811762801365730309,193.2,1.155888909465977811762801365730309
23,212.364920885129148289259660664544797,211.2,1.164920885129148289259660664544797
24,231.173563285887954515631726119638778,230.0,1.173563285887954515631726119638778
25,250.781848413061355068553909170038929,249.6,1.181848413061355068553909170038929
26,271.189804704656797952195839239800504,270.0,1.189804704656797952195839239800504
27,292.397457328332796766813683727074850,291.2,1.197457328332796766813683727074850
28,314.404828664757970818480233300786979,313.2,1.204828664757970818480233300786979
29,337.211938704812997279335956565807829,336.0,1.211938704812997279335956565807829
30,360.818805378432435936083490173114621,359.6,1.218805378432435936083490173114621
31,385.225444828737448561971020453806008,384.0,1.225444828737448561971020453806008
32,410.431871642032535361055823961745929,409.2,1.231871642032535361055823961745929
33,436.438099041929763128152310474268743,435.2,1.238099041929763128152310474268743
34,463.244139054113413500793959660397754,462.0,1.244139054113413500793959660397754
35,490.850002646918784613164979623864273,489.6,1.250002646918784613164979623864273
36,519.255699851865400582911075808159059,518.0,1.255699851865400582911075808159059
37,548.461239867480798712853021347464609,547.2,1.261239867480798712853021347464609
38,578.466631149120645546208189310130647,577.2,1.266631149120645546208189310130647
39,609.271881486993084264196759536018336,608.0,1.271881486993084264196759536018336
40,640.876998074199395131202683423078490,639.6,1.276998074199395131202683423078490
41,673.281987566286300418813568385129978,672.0,1.281987566286300418813568385129978
42,706.486856133550252638461133873703325,705.2,1.286856133550252638461133873703325
43,740.491609507127558567391444361738565,739.2,1.291609507127558567391444361738565
44,775.296253019736097537130009340279868,774.0,1.296253019736097537130009340279868
45,810.900791641796822884562550578504779,809.6,1.300791641796822884562550578504779
46,847.305230013550099183121237382553585,846.0,1.305230013550099183121237382553585
47,884.509572473688451259204589188275527,883.2,1.309572473688451259204589188275527
48,922.513823084949714634687189826981564,921.2,1.313823084949714634687189826981564
49,961.317985657049914492459201488262544,960.0,1.317985657049914492459201488262544
50,1000.92206376728107754826655564820414,999.6,1.32206376728107754826655564820414
51,1041.32606077905371424963718741410391,1040.0,1.32606077905371424963718741410391
52,1082.52997985862536350836842942992346,1081.2,1.32997985862536350836842942992346
53,1124.53382399022414205449566485167136,1123.2,1.33382399022414205449566485167136
54,1167.33759598974867936819887609773124,1166.0,1.33759598974867936819887609773124
55,1210.94129851720234365358545878195672,1209.6,1.34129851720234365358545878195672
56,1255.34493408799958974815736915871393,1254.0,1.34493408799958974815736915871393
57,1300.54850508326506089664706994210406,1299.2,1.34850508326506089664706994210406
58,1346.55201375923127913161238368428412,1345.2,1.35201375923127913161238368428412
59,1393.35546225582800505590153124521155,1392.0,1.35546225582800505590153124521155
60,1440.95885260454532331439513785295962,1439.6,1.35885260454532331439513785295962
61,1489.36218673564294581492479648534816,1488.0,1.36218673564294581492479648534816
62,1538.56546648476992375315257163552137,1537.2,1.36546648476992375315257163552137
63,1588.56869359905171760717330685948587,1587.2,1.36869359905171760717330685948587
64,1639.37186974269526178767819470705310,1638.0,1.37186974269526178767819470705310
65,1690.97499650215712578954409535772899,1689.6,1.37499650215712578954409535772899
66,1743.37807539091502635165764585095663,1742.0,1.37807539091502635165764585095663
67,1796.58110785387868284045661929905559,1795.2,1.38110785387868284045661929905559
68,1850.58409527147225191186156600458754,1849.2,1.38409527147225191186156600458754
69,1905.38703896341726483554335216509152,1904.0,1.38703896341726483554335216509152
70,1960.98994019224206259720720718754263,1959.6,1.38994019224206259720720718754263
71,2017.39280016654112519084279662341065,2016.0,1.39280016654112519084279662341065
72,2074.59562004400539327050880597124923,2073.2,1.39562004400539327050880597124923
73,2132.59840093424262732481727350859094,2131.2,1.39840093424262732481727350859094
74,2191.40114390140503068872921230263434,2190.0,1.40114390140503068872921230263434
75,2251.00384996663973160617016110625473,2249.6,1.40384996663973160617016110625473
76,2311.40652011037627000021827717469089,2310.0,1.40652011037627000021827717469089
77,2372.60915527446393220919966439483508,2371.2,1.40915527446393220919966439483508
78,2434.61175636417061114884496794215337,2433.2,1.41175636417061114884496794215337
79,2497.41432425005382254066885817310472,2496.0,1.41432425005382254066885817310472
80,2561.01685976971356972108922633755030,2559.6,1.41685976971356972108922633755030
81,2625.41936372943590020432657579723981,2624.0,1.41936372943590020432657579723981
82,2690.62183690573523572156997970027545,2689.2,1.42183690573523572156997970027545
83,2756.62428004680286872510639509453202,2755.2,1.42428004680286872510639509453202
84,2823.42669387386839405439396239947267,2822.0,1.42669387386839405439396239947267
85,2891.02907908248028518488598858893645,2889.6,1.42907908248028518488598858893645
86,2959.43143634371130861502294837271805,2958.0,1.43143634371130861502294837271805
87,3028.63376630529401247601007797579779,3027.2,1.43376630529401247601007797579779
88,3098.63606959269110207126219226863230,3097.2,1.43606959269110207126219226863230
89,3169.43834681010513155023582372847803,3168.0,1.43834681010513155023582372847803
90,3241.04059854143159770463964207600537,3239.6,1.44059854143159770463964207600537
91,3313.44282535115920042296333325968536,3312.0,1.44282535115920042296333325968536
92,3386.64502778522074604172586379571631,3385.2,1.44502778522074604172586379571631
93,3460.64720637179790757678862519520551,3459.2,1.44720637179790757678862519520551
94,3535.44936162208281288934072759945974,3534.0,1.44936162208281288934072759945974
95,3611.05149403099921068713483021548081,3609.6,1.45149403099921068713483021548081
96,3687.45360407788576243943525878018115,3686.0,1.45360407788576243943525878018115
97,3764.65569222714382394203106411936525,3763.2,1.45569222714382394203106411936525
98,3842.65775892885190739437135039012503,3841.2,1.45775892885190739437135039012503
99,3921.45980461934886137869182895904231,3920.0,1.45980461934886137869182895904231
100,4001.06182972178765979058494409280055,3999.6,1.46182972178765979058494409280055
101,4081.46383464666156146631187760212531,4080.0,1.46383464666156146631187760212531
102,4162.66581979230427667743348689030855,4161.2,1.46581979230427667743348689030855
103,4244.66778554536566874972445560979980,4243.2,1.46778554536566874972445560979980
104,4327.46973228126441179862505072463647,4326.0,1.46973228126441179862505072463647
105,4411.07166036461893249972710368213703,4409.6,1.47166036461893249972710368213703
106,4495.47357014965787304854817306034750,4494.0,1.47357014965787304854817306034750
107,4580.67546198061123438189182478119839,4579.2,1.47546198061123438189182478119839
108,4666.67733619208327949353812389006030,4665.2,1.47733619208327949353812389006030
109,4753.47919310940820808347412243571548,4752.0,1.47919310940820808347412243571548
110,4841.08103304898955135974917296092015,4839.6,1.48103304898955135974917296092015
111,4929.48285631862416995084150816393142,4928.0,1.48285631862416995084150816393142
112,5018.68466321781168845278916872472210,5017.2,1.48466321781168845278916872472210
113,5108.68645403805014459954440693391995,5107.2,1.48645403805014459954440693391995
114,5199.48822906311858228725432910783540,5198.0,1.48822906311858228725432910783540
115,5291.08998856934727723466821558771695,5289.6,1.48998856934727723466821558771695
116,5383.49173282587623573022382621762250,5382.0,1.49173282587623573022382621762250
117,5476.69346209490257520335824435684504,5475.2,1.49346209490257520335824435684504
118,5570.69517663191735432648349658982220,5569.2,1.49517663191735432648349658982220
119,5665.49687668593238664035073714646459,5664.0,1.49687668593238664035073714646459
120,5761.09856249969754585329248830773589,5759.6,1.49856249969754585329248830773589
121,5857.50023430990903269758757872935043,5856.0,1.50023430990903269758757872935043
122,5954.70189234740905431306133453841743,5953.2,1.50189234740905431306133453841743
123,6052.70353683737733493510143393453134,6051.2,1.50353683737733493510143393453134
124,6151.50516799951485898446133689469836,6150.0,1.50516799951485898446133689469836
125,6251.10678604822021808996037285804271,6249.6,1.50678604822021808996037285804271
126,6351.50839119275891837789190961126951,6350.0,1.50839119275891837789190961126951
127,6452.70998363742598378406490283254247,6451.2,1.50998363742598378406490283254247
128,6554.71156358170216855721440894048062,6553.2,1.51156358170216855721440894048062
129,6657.51313122040408004927860688178500,6656.0,1.51313122040408004927860688178500
130,6761.11468674382849450617265023034792,6759.6,1.51468674382849450617265023034792
131,6865.51623033789113316857185990217395,6864.0,1.51623033789113316857185990217395
132,6970.71776218426015101501656637476252,6969.2,1.51776218426015101501656637476252
133,7076.71928246048457869806564838404186,7075.2,1.51928246048457869806564838404186
134,7183.52079134011794694826914057914705,7182.0,1.52079134011794694826914057914705
135,7291.12228899283730461238637863422068,7289.6,1.52228899283730461238637863422068
136,7399.52377558455783780474636187901778,7398.0,1.52377558455783780474636187901778
137,7508.72525127754328434270406288553343,7507.2,1.52525127754328434270406288553343
138,7618.72671623051232402515530580989088,7617.2,1.52671623051232402515530580989088
139,7729.52817059874112320716790487749763,7728.0,1.52817059874112320716790487749763
140,7841.12961453416219667781817371212911,7839.6,1.52961453416219667781817371212911
141,7953.53104818545974529083249288580289,7952.0,1.53104818545974529083249288580289
142,8066.73247169816161972436663949916242,8065.2,1.53247169816161972436663949916242
143,8180.73388521472805209608633364894549,8179.2,1.53388521472805209608633364894549
144,8295.53528887463728998007582207955216,8294.0,1.53528887463728998007582207955216
145,8411.13668281446826318434209183113790,8409.6,1.53668281446826318434209183113790
146,8527.53806716798040577893198796342143,8526.0,1.53806716798040577893198796342143
147,8644.73944206619074766171348409395159,8643.2,1.53944206619074766171348409395159
148,8762.74080763744839099083885680210416,8761.2,1.54080763744839099083885680210416
149,8881.54216400750647328483429460135766,8880.0,1.54216400750647328483429460135766
150,9001.14351129959172083118219750479287,8999.6,1.54351129959172083118219750479287
151,9121.54484963447168831764040656487695,9120.0,1.54484963447168831764040656487695
152,9242.74617913051977498545652879159180,9241.2,1.54617913051977498545652879159180
153,9364.74749990377810625416041065848569,9363.2,1.54749990377810625416041065848569
154,9487.54881206801836471716495873371113,9486.0,1.54881206801836471716495873371113
155,9611.15011573480064874415662505453859,9609.6,1.55011573480064874415662505453859
156,9735.55141101353043655662714952849649,9734.0,1.55141101353043655662714952849649
157,9860.75269801151372682313718447662058,9859.2,1.55269801151372682313718447662058
158,9986.75397683401042759240158061923064,9985.2,1.55397683401042759240158061923064
159,10113.5552475842860572370174270344318,10112.0,1.5552475842860572370174270344318
160,10241.1565103636618237453607527611499,10239.6,1.5565103636618237453607527611499
161,10369.5577652715631408577592389991502,10368.0,1.5577652715631408577592389991502
162,10498.7590124055666405080289566898948,10497.2,1.5590124055666405080289566898948
163,10628.7602518614457364236608826772715,10627.2,1.5602518614457364236608826772715
164,10759.5614837332147935212397435112692,10758.0,1.5614837332147935212397435112692
165,10891.1627081131719516972998638677402,10889.6,1.5627081131719516972998638677402
166,11023.5639250919406545301939849713722,11022.0,1.5639250919406545301939849713722
167,11156.7651347585099301252824215332115,11155.2,1.5651347585099301252824215332115
168,11290.7663372002734667923442828834895,11289.2,1.5663372002734667923442828834895
169,11425.5675325030675286172888611395089,11424.0,1.5675325030675286172888611395089
170,11561.1687207512077506712721859905560,11559.6,1.5687207512077506712721859905560
171,11697.5699020275248540516672871731467,11696.0,1.5699020275248540516672871731467
172,11834.7710764133993186215358053110798,11833.2,1.5710764133993186215358053110798
173,11972.7722439887950488499202299964408,11971.2,1.5722439887950488499202299964408
174,12111.5734048322920685964605280297310,12110.0,1.5734048322920685964605280297310
175,12251.1745590211182788252577843835799,12249.6,1.5745590211182788252577843835799
176,12391.5757066311803079543274733767592,12390.0,1.5757066311803079543274733767592
177,12532.7768477370934881011700364465618,12531.2,1.5768477370934881011700364465618
178,12674.7779824122109863788454047410758,12673.2,1.5779824122109863788454047410758
179,12817.5791107286521176874878928117858,12816.0,1.5791107286521176874878928117858
180,12961.1802327573298699476514839309618,12959.6,1.5802327573298699476514839309618
181,13105.5813485679776644240627051891301,13104.0,1.5813485679776644240627051891301
182,13250.7824582291753788351578729801821,13249.2,1.5824582291753788351578729801821
183,13396.7835618083746562976706671750779,13395.2,1.5835618083746562976706671750779
184,13543.5846593719235243477976075917526,13542.0,1.5846593719235243477976075917526
185,13691.1857509850903458470575906030472,13689.6,1.5857509850903458470575906030472
186,13839.5868367120871227414564117230063,13838.0,1.5868367120871227414564117230063
187,13988.7879166160921764744470529045059,13987.2,1.5879166160921764744470529045059
188,14138.7889907592722204899928025918423,14137.2,1.5889907592722204899928025918423
189,14289.5900592028038485568137185017791,14288.0,1.5900592028038485568137185017791
190,14441.1911220068944545648845010128740,14439.6,1.5911220068944545648845010128740
191,14593.5921792308026030167261364623888,14592.0,1.5921792308026030167261364623888
192,14746.7932309328578665956838246315517,14745.2,1.5932309328578665956838246315517
193,14900.7942771704801491150288155793038,14899.2,1.5942771704801491150288155793038
194,15055.5953180001985071886561854690355,15054.0,1.5953180001985071886561854690355
195,15211.1963534776694885557265648130305,15209.6,1.5963534776694885557265648130305
196,15367.5973836576950007511406153211479,15366.0,1.5973836576950007511406153211479
197,15524.7984085942397244971558935480538,15523.2,1.5984085942397244971558935480538
198,15682.7994283404480859781145648506706,15681.2,1.5994283404480859781145648506706
199,15841.6004429486608008321244230409505,15840.0,1.6004429486608008321244230409505
200,16001.2014524704310037998821524643275,15999.6,1.6014524704310037998821524643275
201,16161.6024569565399750070452939622185,16160.0,1.6024569565399750070452939622185
202,16322.8034564570124762562937610293130,16321.2,1.6034564570124762562937610293130
203,16484.8044510211317079837903594226015,16483.2,1.6044510211317079837903594226015
204,16647.6054406974538984949324331662970,16646.0,1.6054406974538984949324331662970
205,16811.2064255338225354447355506614343,16809.6,1.6064255338225354447355506614343
206,16975.6074055773822525815767481165197,16974.0,1.6074055773822525815767481165197
207,17140.8083808745923776249532370016442,17139.2,1.6083808745923776249532370016442
208,17306.8093514712401554986922433633793,17305.2,1.6093514712401554986922433633793
209,17473.6103174124536526624711855682375,17472.0,1.6103174124536526624711855682375
210,17641.2112787427143540372788135847401,17639.6,1.6112787427143540372788135847401
211,17809.6122355058694598838061753620272,17808.0,1.6122355058694598838061753620272
212,17978.8131877451438928609226870264361,17977.2,1.6131877451438928609226870264361
213,18148.8141355031520196421582903548564,18147.2,1.6141355031520196421582903548564
214,18319.6150788219091020659087928036106,18318.0,1.6150788219091020659087928036106
215,18491.2160177428424770256239100590602,18489.6,1.6160177428424770256239100590602
216,18663.6169523068024790544628410570610,18662.0,1.6169523068024790544628410570610
217,18836.8178825540731095634882489391860,18835.2,1.6178825540731095634882489391860
218,19010.8188085243824617058769795533156,19009.2,1.6188085243824617058769795533156
219,19185.6197302569129041401136692045034,19184.0,1.6197302569129041401136692045034
220,19361.2206477903110362003233253420621,19359.6,1.6206477903110362003233253420621
221,19537.6215611626974123760637904822543,19536.0,1.6215611626974123760637904822543
222,19714.8224704116760532989737733773807,19713.2,1.6224704116760532989737733773807
223,19892.8233755743437367971383937789219,19891.2,1.6233755743437367971383937789219
224,20071.6242766872990840765021656426182,20070.0,1.6242766872990840765021656426182
225,20251.2251737866514435859035699722554,20249.6,1.6251737866514435859035699722554
226,20431.6260669080295761037050425428090,20430.0,1.6260669080295761037050425428090
227,20612.8269560865901496888965491267549,20611.2,1.6269560865901496888965491267549
228,20794.8278413570260463069068072309158,20793.2,1.6278413570260463069068072309158
229,20977.6287227535744872822990269584454,20976.0,1.6287227535744872822990269584454
230,21161.2296003100249822646213680787191,21159.6,1.6296003100249822646213680787191
231,21345.6304740597271034967111657826058,21344.0,1.6304740597271034967111657826058
232,21530.8313440355980957944003378959972,21529.2,1.6313440355980957944003378959972
233,21716.8322102701303172231551368413369,21715.2,1.6322102701303172231551368413369
234,21903.6330727953985266177449317376466,21902.0,1.6330727953985266177449317376466
235,22091.2339316430670111160688178874502,22089.6,1.6339316430670111160688178874502
236,22279.6347868443965634059387731254320,22278.0,1.6347868443965634059387731254320
237,22468.8356384302513123049761430377725,22467.2,1.6356384302513123049761430377725
238,22658.8364864311054084046633065839276,22657.2,1.6364864311054084046633065839276
