Eigenstate,Energy,Kinetic Energy,Potential Energy
1,0.500000000016499317136610451489183913,0.0,0.500000000016499317136610451489183913
2,1.84623093775881352377619969961444805,1.2,0.64623093775881352377619969961444805
3,3.93633761002133213548224392836147012,3.2,0.73633761002133213548224392836147012
4,6.79966527847317244925136858555989911,6.0,0.79966527847317244925136858555989911
5,10.4480465764270920058949808012938628,9.6,0.8480465764270920058949808012938628
6,14.8870659986364784164624084727218182,14.0,0.8870659986364784164624084727218182
7,20.1197208265389028332895158806338443,19.2,0.9197208265389028332895158806338443
8,26.1477838465109995204123036055543153,25.2,0.9477838465109995204123036055543153
9,32.9723835575588700554000616946271830,32.0,0.9723835575588700554000616946271830
10,40.5942802138309761225318002059525460,39.6,0.9942802138309761225318002059525460
11,49.0140093854682827304524272407666895,48.0,1.0140093854682827304524272407666895
12,58.2319621677753664552009244161076973,57.2,1.0319621677753664552009244161076973
13,68.2484326908179945057460107474568889,67.2,1.0484326908179945057460107474568889
14,79.0636476522792789243914706387772815,78.0,1.0636476522792789243914706387772815
15,90.6777854332738570506555121449602532,89.6,1.0777854332738570506555121449602532
16,103.090988903218333876289840761308013,102.0,1.090988903218333876289840761308013
17,116.303374253292784717134500412894213,115.2,1.103374253292784717134500412894213
18,130.315037247446953647884195250887708,129.2,1.115037247446953647884195250887708
19,145.126057745504230478852926934271038,144.0,1.126057745504230478852926934271038
20,160.736503040795586791973697659949111,159.6,1.136503040795586791973697659949111
21,177.146430366241272855527723302299364,176.0,1.146430366241272855527723302299364
22,194.355888805509557582723017974646284,193.2,1.155888805509557582723017974646284
23,212.364920770953253068955579444671752,211.2,1.164920770953253068955579444671752
24,231.173563161010136670095576780995682,230.0,1.173563161010136670095576780995682
25,250.781848276998877338104621925498625,249.6,1.181848276998877338104621925498625
26,271.189804556926623332717320775081775,270.0,1.189804556926623332717320775081775
27,292.397457168451578029902236280558764,291.2,1.197457168451578029902236280558764
28,314.404828492242039740828650559922981,313.2,1.204828492242039740828650559922981
29,337.211938519178353635024427654890065,336.0,1.211938519178353635024427654890065
30,360.818805179194736293132810262114097,359.6,1.218805179194736293132810262114097
31,385.225444615411994915320885599627617,384.0,1.225444615411994915320885599627617
32,410.431871414134263627191470287588215,409.2,1.231871414134263627191470287588215
33,436.438098798973231521309220596043892,435.2,1.238098798973231521309220596043892
34,463.244138795612790806593053590949037,462.0,1.244138795612790806593053590949037
35,490.850002372387838372361467665263260,489.6,1.250002372387838372361467665263260
36,519.255699560817485195455831096621748,518.0,1.255699560817485195455831096621748
37,548.461239559428843470502106500431308,547.2,1.261239559428843470502106500431308
38,578.466630823577142600353254604949727,577.2,1.266630823577142600353254604949727
39,609.271881143470076534335821656074632,608.0,1.271881143470076534335821656074632
40,640.876997712208464158459145508218540,639.6,1.276997712208464158459145508218540
41,673.281987185338554168089660308019104,672.0,1.281987185338554168089660308019104
42,706.486855733156313252140337528572325,705.2,1.286855733156313252140337528572325
43,740.491609086797550072952435040431388,739.2,1.291609086797550072952435040431388
44,775.296252578979633510578505039245771,774.0,1.296252578979633510578505039245771
45,810.900791180122994071208438257971697,809.6,1.300791180122994071208438257971697
46,847.305229530467461076911823549723007,846.0,1.305229530467461076911823549723007
47,884.509571968705011641559391375447292,883.2,1.309571968705011641559391375447292
48,922.513822557572921073555778330159153,921.2,1.313822557572921073555778330159153
49,961.317985106786641802134138712424078,960.0,1.317985106786641802134138712424078
50,1000.92206319363761521032230333492406,999.6,1.32206319363761521032230333492406
51,1041.32606018153575379522812295264686,1040.0,1.32606018153575379522812295264686
52,1082.52997923673798586200104881212165,1081.2,1.32997923673798586200104881212165
53,1124.53382334347180483928839919033216,1123.2,1.33382334347180483928839919033216
54,1167.33759531763520417255490140630254,1166.0,1.33759531763520417255490140630254
55,1210.94129781923090325912758388466501,1209.6,1.34129781923090325912758388466501
56,1255.34493336367269531870745832565716,1254.0,1.34493336367269531870745832565716
57,1300.54850433208454912797430431153631,1299.2,1.34850433208454912797430431153631
58,1346.55201298069829936162321443399865,1345.2,1.35201298069829936162321443399865
59,1393.35546144944300633489929008695065,1392.0,1.35546144944300633489929008695065
60,1440.95885176980804143499703796867515,1439.6,1.35885176980804143499703796867515
61,1489.36218587205239030118855881024704,1488.0,1.36218587205239030118855881024704
62,1538.56546559182436480843297269243127,1537.2,1.36546559182436480843297269243127
63,1588.56869267624867302020053673439211,1587.2,1.36869267624867302020053673439211
64,1639.37186878953148379632420228635626,1638.0,1.37186878953148379632420228635626
65,1690.97499551812858790171968047301320,1689.6,1.37499551812858790171968047301320
66,1743.37807437551691012276206666672200,1742.0,1.37807437551691012276206666672200
67,1796.58110680660536460678212397494493,1795.2,1.38110680660536460678212397494493
68,1850.58409419181728947933755938447987,1849.2,1.38409419181728947933755938447987
69,1905.38703785087338412318846244320784,1904.0,1.38703785087338412318846244320784
70,1960.98993904630114423464272259885393,1959.6,1.38993904630114423464272259885393
71,2017.39279898669419106920647899985059,2016.0,1.39279898669419106920647899985059
72,2074.59561882974259304609539269267173,2073.2,1.39561882974259304609539269267173
73,2132.59839968505322487475931053447019,2131.2,1.39839968505322487475931053447019
74,2191.40114261677739051802050503549981,2190.0,1.40114261677739051802050503549981
75,2251.00384864606130520532290449698518,2249.6,1.40384864606130520532290449698518
76,2311.40651875333358215283473695728972,2310.0,1.40651875333358215283473695728972
77,2372.60915388044256724872909783507126,2371.2,1.40915388044256724872909783507126
78,2434.61175493265519916378692865386550,2433.2,1.41175493265519916378692865386550
79,2497.41432278052802552747477926903411,2496.0,1.41432278052802552747477926903411
80,2561.01685826166006768400545196313744,2559.6,1.41685826166006768400545196313744
81,2625.41936218233637720141306196123718,2624.0,1.41936218233637720141306196123718
82,2690.62183531907036585612066958772076,2689.2,1.42183531907036585612066958772076
83,2756.62427842005230208168903113129360,2755.2,1.42427842005230208168903113129360
84,2823.42669220651074257871894569922298,2822.0,1.42669220651074257871894569922298
85,2891.02907737399310850670605371263239,2889.6,1.42907737399310850670605371263239
86,2959.43143459357109981325767538105384,2958.0,1.43143459357109981325767538105384
87,3028.63376451297618378528141462215257,3027.2,1.43376451297618378528141462215257
88,3098.63606775766997052901962147962514,3097.2,1.43606775766997052901962147962514
89,3169.43834493185390458364231926780652,3168.0,1.43834493185390458364231926780652
90,3241.04059661942235865638194453513316,3239.6,1.44059661942235865638194453513316
91,3313.44282338486289401514258622368985,3312.0,1.44282338486289401514258622368985
92,3386.64502577410716377697727891261986,3385.2,1.44502577410716377697727891261986
93,3460.64720431533567307577131781363372,3459.2,1.44720431533567307577131781363372
94,3535.44935951973936716373143984181307,3534.0,1.44935951973936716373143984181307
95,3611.05149188224079734725173586179977,3609.6,1.45149188224079734725173586179977
96,3687.45360188217741283561073830500947,3686.0,1.45360188217741283561073830500947
97,3764.65568998394934223884451050294138,3763.2,1.45568998394934223884451050294138
98,3842.65775663763385557684589993414185,3841.2,1.45775663763385557684589993414185
99,3921.45980227956854418955095111397326,3920.0,1.45980227956854418955095111397326
100,4001.06182733290510959765745482204518,3999.6,1.46182733290510959765745482204518
101,4081.46383220813552305916609421480516,4080.0,1.46383220813552305916609421480516
102,4162.66581730359219199231360406213528,4161.2,1.46581730359219199231360406213528
103,4244.66778300592366152185446382031571,4243.2,1.46778300592366152185446382031571
104,4327.46972969054727214093723545388201,4326.0,1.46972969054727214093723545388201
105,4411.07165772208010140706477214243201,4409.6,1.47165772208010140706477214243201
106,4495.47356745474942682638380479001256,4494.0,1.47356745474942682638380479001256
107,4580.67545923278386899859399554922931,4579.2,1.47545923278386899859399554922931
108,4666.67733339078629485521217366130604,4665.2,1.47733339078629485521217366130604
109,4753.47919025408949223039330186060654,4752.0,1.47919025408949223039330186060654
110,4841.08103013909556458338467102571913,4839.6,1.48103013909556458338467102571913
111,4929.48285335359992883049127339630945,4928.0,1.48285335359992883049127339630945
112,5018.68466019710074981079687271490714,5017.2,1.48466019710074981079687271490714
113,5108.68645096109458937409117814735865,5107.2,1.48645096109458937409117814735865
114,5199.48822592935899932169720461492571,5198.0,1.48822592935899932169720461492571
115,5291.08998537822274698239032655481667,5289.6,1.48998537822274698239032655481667
116,5383.49172957682431387395232335064571,5382.0,1.49172957682431387395232335064571
117,5476.69345878735927618789692826847730,5475.2,1.49345878735927618789692826847730
118,5570.69517326531713480379783891055015,5569.2,1.49517326531713480379783891055015
119,5665.49687325970812882593384791534168,5664.0,1.49687325970812882593384791534168
120,5761.09855901328054079273076740820290,5759.6,1.49855901328054079273076740820290
121,5857.50023076272896344223559417171933,5856.0,1.50023076272896344223559417171933
122,5954.70188873889397900372557225315334,5953.2,1.50188873889397900372557225315334
123,6052.70353316695366979262282308622950,6051.2,1.50353316695366979262282308622950
124,6151.50516426660736120607653345473920,6150.0,1.50516426660736120607653345473920
125,6251.10678225225196865031160879126692,6249.6,1.50678225225196865031160879126692
126,6351.50838733315130473354511083700014,6350.0,1.50838733315130473354511083700014
127,6452.70997971359868248038543004485624,6451.2,1.50997971359868248038543004485624
128,6554.71155959307312773643923095221942,6553.2,1.51155959307312773643923095221942
129,6657.51312716638950185861311415582983,6656.0,1.51312716638950185861311415582983
130,6761.11468262384281740472967438706495,6759.6,1.51468262384281740472967438706495
131,6865.51622615134701413195954513736384,6864.0,1.51622615134701413195954513736384
132,6970.71775793056844763637021910709541,6969.2,1.51775793056844763637021910709541
133,7076.71927813905433118430852477073767,7075.2,1.51927813905433118430852477073767
134,7183.52078695035636001037470057345126,7182.0,1.52078695035636001037470057345126
135,7291.12228453414972924840358385382343,7289.6,1.52228453414972924840358385382343
136,7399.52377105634775297433806449878598,7398.0,1.52377105634775297433806449878598
137,7508.72524667921227853193632211678200,7507.2,1.52524667921227853193632211678200
138,7618.72671156146007670026380795694864,7617.2,1.52671156146007670026380795694864
139,7729.52816585836538615601530073634697,7728.0,1.52816585836538615601530073634697
140,7841.12960972185877523774409495839144,7839.6,1.52960972185877523774409495839144
141,7953.53104330062247946158544277972725,7952.0,1.53104330062247946158544277972725
142,8066.73246674018236516479424077151689,8065.2,1.53246674018236516479424077151689
143,8180.73388018299666100324773719790165,8179.2,1.53388018299666100324773719790165
144,8295.53528376854159184942695130157352,8294.0,1.53528376854159184942695130157352
145,8411.13667763339404544963152656724479,8409.6,1.53667763339404544963152656724479
146,8527.53806191131139433043168787618266,8526.0,1.53806191131139433043168787618266
147,8644.73943673330858724139504453344087,8643.2,1.53943673330858724139504453344087
148,8762.74080222773262546309264182215710,8761.2,1.54080222773262546309264182215710
149,8881.54215852033452578131432065307862,8880.0,1.54215852033452578131432065307862
150,9001.14350573433887376834634401477643,8999.6,1.54350573433887376834634401477643
151,9121.54484399051106328554037592375007,9120.0,1.54484399051106328554037592375007
152,9242.74617340722231250631832060249449,9241.2,1.54617340722231250631832060249449
153,9364.74749410051254540928081896889751,9363.2,1.54749410051254540928081896889751
154,9487.54880618415122264063526698780886,9486.0,1.54880618415122264063526698780886
155,9611.15010976969619998190932000073543,9609.6,1.55010976969619998190932000073543
156,9735.55140496655069228928591044796806,9734.0,1.55140496655069228928591044796806
157,9860.75269188201841395113570484431058,9859.2,1.55269188201841395113570484431058
158,9986.75397062135696768182045282948820,9985.2,1.55397062135696768182045282948820
159,10113.5552412878295453245726817031810,10112.0,1.5552412878295453245726817031810
160,10241.1565039827550070009614938806176,10239.6,1.5565039827550070009614938806176
161,10369.5577588055563971030354454759170,10368.0,1.5577588055563971030354454759170
162,10498.7590058538079565892138961796951,10497.2,1.5590058538079565892138961796951
163,10628.7602452232806864371961916239921,10627.2,1.5602452232806864371961916239921
164,10759.5614770079865168904536279774439,10758.0,1.5614770079865168904536279774439
165,10891.1627013002211310984918684625701,10889.6,1.5627013002211310984918684625701
166,11023.5639181906054936664425285882979,11022.0,1.5639181906054936664425285882979
167,11156.7651277681261313462733685037030,11155.2,1.5651277681261313462733685037030
168,11290.7663301201742085585005676234190,11289.2,1.5663301201742085585005676234190
169,11425.5675253325834428064636674439114,11424.0,1.5675253325834428064636674439114
170,11561.1687134896668997262487913801764,11559.6,1.5687134896668997262487913801764
171,11697.5698946742527079666909309116457,11696.0,1.5698946742527079666909309116457
172,11834.7710689677187317660831058103324,11833.2,1.5710689677187317660831058103324
173,11972.7722364500262366278930626999849,11971.2,1.5722364500262366278930626999849
174,12111.5733971997525839389714295410862,12110.0,1.5733971997525839389714295410862
175,12251.1745512941229885151541841698107,12249.6,1.5745512941229885151541841698107
176,12391.5756988090413687805821212246447,12390.0,1.5756988090413687805821212246447
177,12532.7768398191203228412445966758059,12531.2,1.5768398191203228412445966758059
178,12674.7779743977102596071136066662287,12673.2,1.5779743977102596071136066662287
179,12817.5791026169277114077837357039180,12816.0,1.5791026169277114077837357039180
180,12961.1802245476828590479866746442001,12959.6,1.5802245476828590479866746442001
181,13105.5813402597062919515361887309528,13104.0,1.5813402597062919515361887309528
182,13250.7824498215750310890585666452283,13249.2,1.5824498215750310890585666452283
183,13396.7835533007378377387521540208256,13395.2,1.5835533007378377387521540208256
184,13543.5846507635398323216815864512780,13542.0,1.5846507635398323216815864512780
185,13691.1857422752464451196995073654545,13689.6,1.5857422752464451196995073654545
186,13839.5868279000667198445846046343720,13838.0,1.5868279000667198445846046343720
187,13988.7879077011759938588625971169024,13987.2,1.5879077011759938588625971169024
188,14138.7889817407379704845938316137947,14137.2,1.5889817407379704845938316137947
189,14289.5900500799262071311842051479155,14288.0,1.5900500799262071311842051479155
190,14441.1911127789450348932630407272447,14439.6,1.5911127789450348932630407272447
191,14593.5921698970499288411452827948071,14592.0,1.5921698970499288411452827948071
192,14746.7932214925673453860458859485329,14745.2,1.5932214925673453860458859485329
193,14900.7942676229140450238585881315277,14899.2,1.5942676229140450238585881315277
194,15055.5953083446159137982453358640015,15054.0,1.5953083446159137982453358640015
195,15211.1963437133263014153581692910371,15209.6,1.5963437133263014153581692910371
196,15367.5973737838438897020559841855467,15366.0,1.5973737838438897020559841855467
197,15524.7983986101301057828991587755813,15523.2,1.5983986101301057828991587755813
198,15682.7994182453260941378629289213750,15681.2,1.5994182453260941378629289213750
199,15841.6004327417692603745846833233479,15840.0,1.6004327417692603745846833233479
200,16001.2014421510094006553059667597762,15999.6,1.6014421510094006553059667597762
201,16161.6024465238244277548876202268299,16160.0,1.6024465238244277548876202268299
202,16322.8034459102357071260091467505046,16321.2,1.6034459102357071260091467505046
203,16484.8044403595230136262340033979275,16483.2,1.6044403595230136262340033979275
204,16647.6054299202391205218020594874463,16646.0,1.6054299202391205218020594874463
205,16811.2064146402240307334609411737121,16809.6,1.6064146402240307334609411737121
206,16975.6073945666188633430328505098638,16974.0,1.6073945666188633430328505098638
207,17140.8083697458794012313420648977761,17139.2,1.6083697458794012313420648977761
208,17306.8093402237893140689074268705529,17305.2,1.6093402237893140689074268705529
209,17473.6103060454730624022270939781019,17472.0,1.6103060454730624022270939781019
210,17641.2112672554084943312542589488946,17639.6,1.6112672554084943312542589488946
211,17809.6122238974391421370199305338461,17808.0,1.6122238974391421370199305338461
212,17978.8131760147862290865245632155442,17977.2,1.6131760147862290865245632155442
213,18148.8141236500603907927860743687031,18147.2,1.6141236500603907927860743687031
214,18319.6150668452731261057275253137802,18318.0,1.6150668452731261057275253137802
215,18491.2160056418479767401287489327527,18489.6,1.6160056418479767401287489327527
216,18663.6169400806314495950920970788858,18662.0,1.6169400806314495950920970788858
217,18836.8178702019036857240573801182400,18835.2,1.6178702019036857240573801182400
218,19010.8187960453888849278085292245375,19009.2,1.6187960453888849278085292245375
219,19185.6197176502654892434004773676341,19184.0,1.6197176502654892434004773676341
220,19361.2206350551761378371264847092147,19359.6,1.6206350551761378371264847092147
221,19537.6215482982373912038081012380744,19536.0,1.6215482982373912038081012380744
222,19714.8224574170492418697654196886695,19713.2,1.6224574170492418697654196886695
223,19892.8233624487044051602909714747201,19891.2,1.6233624487044051602909714747201
224,20071.6242634297974050909174227921307,20070.0,1.6242634297974050909174227921307
225,20251.2251603964334579390135282549214,20249.6,1.6251603964334579390135282549214
226,20431.6260533842371570336409785355192,20430.0,1.6260533842371570336409785355192
227,20612.8269424283609674065103245482938,20611.2,1.6269424283609674065103245482938
228,20794.8278275634935321142269758381417,20793.2,1.6278275634935321142269758381417
229,20977.6287088238677973839621982997473,20976.0,1.6287088238677973839621982997473
230,21161.2295862432689612687770741368867,21159.6,1.6295862432689612687770741368867
231,21345.6304598550422476018534631603621,21344.0,1.6304598550422476018534631603621
232,21530.8313296921005156585361062988071,21529.2,1.6313296921005156585361062988071
233,21716.8321957869317005116736290315107,21715.2,1.6321957869317005116736290315107
234,21903.6330581716061002263074863452892,21902.0,1.6330581716061002263074863452892
235,22091.2339168777835030647918033213082,22089.6,1.6339168777835030647918033213082
236,22279.6347719367201644010952299514495,22278.0,1.6347719367201644010952299514495
237,22468.8356233792756369643942579429107,22467.2,1.6356233792756369643942579429107
238,22658.8364712359194561429513252798890,22657.2,1.6364712359194561429513252798890
