Eigenstate,Energy,Kinetic Energy,Potential Energy
1,0.500000000085746120540654171975825010,0.0,0.500000000085746120540654171975825010
2,1.84623093821082178406803777078137687,1.2,0.64623093821082178406803777078137687
3,3.93633761134907546790245020975100129,3.2,0.73633761134907546790245020975100129
4,6.79966528123872601386667017870903440,6.0,0.79966528123872601386667017870903440
5,10.4480465812176316112617873434863260,9.6,0.8480465812176316112617873434863260
6,14.8870660060494782657888009292951552,14.0,0.8870660060494782657888009292951552
7,20.1197208371766842779780207898087969,19.2,0.9197208371766842779780207898087969
8,26.1477838609784601534645883716834366,25.2,0.9477838609784601534645883716834366
9,32.9723835764624300243105654910931878,32.0,0.9723835764624300243105654910931878
10,40.5942802377780454439723133636570234,39.6,0.9942802377780454439723133636570234
11,49.0140094150669738717055517701552528,48.0,1.0140094150669738717055517701552528
12,58.2319622036343319026823239124594591,57.2,1.0319622036343319026823239124594591
13,68.2484327335463323798555722913090525,67.2,1.0484327335463323798555722913090525
14,79.0636477024864777580565953691749648,78.0,1.0636477024864777580565953691749648
15,90.6777854915697641975584594649128375,89.6,1.0777854915697641975584594649128375
16,103.090988970213138765125767090753893,102.0,1.090988970213138765125767090753893
17,116.303374329597011766110487355067988,115.2,1.103374329597011766110487355067988
18,130.315037333671461660761066400407278,129.2,1.115037333671461660761066400407278
19,145.126057842260216509031060849617842,144.0,1.126057842260216509031060849617842
20,160.736503148694593161727802367971690,159.6,1.136503148694593161727802367971690
21,177.146430485895196452054772581523173,176.0,1.146430485895196452054772581523173
22,194.355888937530660829785985272308158,193.2,1.155888937530660829785985272308158
23,212.364920915954176154071358491347423,211.2,1.164920915954176154071358491347423
24,231.173563319603910728334623745757731,230.0,1.173563319603910728334623745757731
25,250.781848449798938376203300696441467,249.6,1.181848449798938376203300696441467
26,271.189804744546826734629217617448959,270.0,1.189804744546826734629217617448959
27,292.397457371506213525499172125158064,291.2,1.197457371506213525499172125158064
28,314.404828711345846748590071803118864,313.2,1.204828711345846748590071803118864
29,337.211938754946536910757728206944725,336.0,1.211938754946536910757728206944725
30,360.818805432242981832405617110155196,359.6,1.218805432242981832405617110155196
31,385.225444886356486068960527025230493,384.0,1.225444886356486068960527025230493
32,410.431871703591697398019830293861917,409.2,1.231871703591697398019830293861917
33,436.438099107560835017004075838148395,435.2,1.238099107560835017004075838148395
34,463.244139123948337828745470130569064,462.0,1.244139123948337828745470130569064
35,490.850002721089666125824255313955561,489.6,1.250002721089666125824255313955561
36,519.255699930504511105233747638394221,518.0,1.255699930504511105233747638394221
37,548.461239950720582095928521391143607,547.2,1.261239950720582095928521391143607
38,578.466631237093722638283706461252000,577.2,1.266631237093722638283706461252000
39,609.271881579832257904681365821009992,608.0,1.271881579832257904681365821009992
40,640.876998172037655166668142930194865,639.6,1.276998172037655166668142930194865
41,673.281987669256828740231204320217612,672.0,1.281987669256828740231204320217612
42,706.486856241786428239096557696240984,705.2,1.286856241786428239096557696240984
43,740.491609620762962620929097531541080,739.2,1.291609620762962620929097531541080
44,775.296253138904518495723821410782636,774.0,1.296253138904518495723821410782636
45,810.900791766632261596612548348826077,809.6,1.300791766632261596612548348826077
46,847.305230144186774030662657730871726,846.0,1.305230144186774030662657730871726
47,884.509572610260803314869025060294826,883.2,1.309572610260803314869025060294826
48,922.513823227592412838257069366678670,921.2,1.313823227592412838257069366678670
49,961.317985805897860847089476359582051,960.0,1.317985805897860847089476359582051
50,1000.92206392246941233649232151724051,999.6,1.32206392246941233649232151724051
51,1041.32606094071782126932470538136968,1040.0,1.32606094071782126932470538136968
52,1082.52998002690087532880030764360625,1081.2,1.32998002690087532880030764360625
53,1124.53382416524694529280997874516991,1123.2,1.33382416524694529280997874516991
54,1167.33759617165491998642730979372617,1166.0,1.33759617165491998642730979372617
55,1210.94129870612843227655781751486578,1209.6,1.34129870612843227655781751486578
56,1255.34493428408220700255936598206885,1254.0,1.34493428408220700255936598206885
57,1300.54850528664116277153575307779904,1299.2,1.34850528664116277153575307779904
58,1346.55201397003810236070913465237891,1345.2,1.35201397003810236070913465237891
59,1393.35546247420307252199647280553994,1392.0,1.35546247420307252199647280553994
60,1440.95885283062644947620943705077838,1439.6,1.35885283062644947620943705077838
61,1489.36218696956824215678879984923561,1488.0,1.36218696956824215678879984923561
62,1538.56546672667780425786817054819751,1537.2,1.36546672667780425786817054819751
63,1588.56869384908090425243858296060404,1587.2,1.36869384908090425243858296060404
64,1639.37187000098479006646126539549461,1638.0,1.37187000098479006646126539549461
65,1690.97499676884635025480139292726088,1689.6,1.37499676884635025480139292726088
66,1743.37807566614362618579961048961724,1742.0,1.37807566614362618579961048961724
67,1796.58110813778666744997109500763533,1795.2,1.38110813778666744997109500763533
68,1850.58409556419996654751207061783961,1849.2,1.38409556419996654751207061783961
69,1905.38703926510539623856606529113617,1904.0,1.38703926510539623856606529113617
70,1960.98994050303164467193665477742247,1959.6,1.38994050303164467193665477742247
71,2017.39280048657354470420245348581133,2016.0,1.39280048657354470420245348581133
72,2074.59562037342239557880852668904375,2073.2,1.39562037342239557880852668904375
73,2132.59840127318632212830524609745708,2131.2,1.39840127318632212830524609745708
74,2191.40114425001789781435160197072504,2190.0,1.40114425001789781435160197072504
75,2251.00385032506462681899706788844925,2249.6,1.40385032506462681899706788844925
76,2311.40652047875643084399988365763340,2310.0,1.40652047875643084399988365763340
77,2372.60915565294298387652176621931239,2371.2,1.40915565294298387652176621931239
78,2434.61175675289257238135817786427847,2433.2,1.41175675289257238135817786427847
79,2497.41432464916311155987095436725654,2496.0,1.41432464916311155987095436725654
80,2561.01686017935501019014517197567920,2559.6,1.41686017935501019014517197567920
81,2625.41936414975472722141580810402758,2624.0,1.41936414975472722141580810402758
82,2690.62183733687710184525565745115923,2689.2,1.42183733687710184525565745115923
83,2756.62428048891385003222631206898964,2755.2,1.42428048891385003222631206898964
84,2823.42669432709499623097790609209574,2822.0,1.42669432709499623097790609209574
85,2891.02907954696944965060941936878714,2889.6,1.42907954696944965060941936878714
86,2959.43143681961041868171192931794925,2958.0,1.43143681961041868171192931794925
87,3028.63376679275089954071756794959598,3027.2,1.43376679275089954071756794959598
88,3098.63607009185405184444091170993142,3097.2,1.43607009185405184444091170993142
89,3169.43834732112289031953816482635900,3168.0,1.43834732112289031953816482635900
90,3241.04059906445337863488025588840909,3239.6,1.44059906445337863488025588840909
91,3313.44282588633468989278541320227153,3312.0,1.44282588633468989278541320227153
92,3386.64502833270011001751733210964830,3385.2,1.44502833270011001751733210964830
93,3460.64720693173179802440006498148973,3459.2,1.44720693173179802440006498148973
94,3535.44936219462237422416211455812028,3534.0,1.44936219462237422416211455812028
95,3611.05149461629608626309373798051641,3609.6,1.45149461629608626309373798051641
96,3687.45360467609210107748486855673652,3686.0,1.45360467609210107748486855673652
97,3764.65569283841228649870184851565559,3763.2,1.45569283841228649870184851565559
98,3842.65775955333567337096605791976531,3841.2,1.45775955333567337096605791976531
99,3921.45980525720163557170926421438266,3920.0,1.45980525720163557170926421438266
100,4001.06183037316367898396377398440956,3999.6,1.46183037316367898396377398440956
101,4081.46383531171560116609181206702363,4080.0,1.46383531171560116609181206702363
102,4162.66582047119165788943716677592231,4161.2,1.46582047119165788943716677592231
103,4244.66778623824226480086937475894248,4243.2,1.46778623824226480086937475894248
104,4327.46973298828665520248129928886582,4326.0,1.46973298828665520248129928886582
105,4411.07166108594382186694276619997019,4409.6,1.47166108594382186694276619997019
106,4495.47357088544298004277075966998098,4494.0,1.47357088544298004277075966998098
107,4580.67546273101471072182058638308661,4579.2,1.47546273101471072182058638308661
108,4666.67733695726386400174860088634744,4665.2,1.47733695726386400174860088634744
109,4753.47919388952523378266302407826579,4752.0,1.47919388952523378266302407826579
110,4841.08103384420295261705440812500759,4839.6,1.48103384420295261705440812500759
111,4929.48285712909448967089908500062803,4928.0,1.48285712909448967089908500062803
112,5018.68466404370008532019567916850142,5017.2,1.48466404370008532019567916850142
113,5108.68645487951840037140086741242202,5107.2,1.48645487951840037140086741242202
114,5199.48822992032910913647432517957227,5198.0,1.48822992032910913647432517957227
115,5291.08998944246312514474062707127057,5289.6,1.48998944246312514474062707127057
116,5383.49173371506109994212781776413369,5382.0,1.49173371506109994212781776413369
117,5476.69346300032080371533571033149935,5475.2,1.49346300032080371533571033149935
118,5570.69517755373395544738170814714424,5569.2,1.49517755373395544738170814714424
119,5665.49687762431303659725589362962579,5664.0,1.49687762431303659725589362962579
120,5761.09856345480859645418254753567018,5759.6,1.49856345480859645418254753567018
121,5857.50023528191751904974083088005556,5856.0,1.50023528191751904974083088005556
122,5954.70189333648270259796521662650595,5953.2,1.50189333648270259796521662650595
123,6052.70353784368457024061448875703028,6051.2,1.50353784368457024061448875703028
124,6151.50516902322481319498934592247679,6150.0,1.50516902322481319498934592247679
125,6251.10678708950273783541636628192114,6249.6,1.50678708950273783541636628192114
126,6351.50839225178457304221838400144648,6350.0,1.50839225178457304221838400144648
127,6452.70998471436607357410516171544940,6451.2,1.50998471436607357410516171544940
128,6554.71156467672873263272904010482747,6553.2,1.51156467672873263272904010482747
129,6657.51313233368990471491198167097284,6656.0,1.51313233368990471491198167097284
130,6761.11468787554712146618354442149333,6759.6,1.51468787554712146618354442149333
131,6865.51623148821686784515174748800459,6864.0,1.51623148821686784515174748800459
132,6970.71776335336807093102828528083650,6969.2,1.51776335336807093102828528083650
133,7076.71928364855054192504506211991615,7075.2,1.51928364855054192504506211991615
134,7183.52079254731860062054193322069299,7182.0,1.52079254731860062054193322069299
135,7291.12229021935009350816219099984320,7289.6,1.52229021935009350816219099984320
136,7399.52377683056101299506231958225821,7398.0,1.52377683056101299506231958225821
137,7508.72525254321591190910019952194702,7507.2,1.52525254321591190910019952194702
138,7618.72671751603429384697459540991018,7617.2,1.52671751603429384697459540991018
139,7729.52817190429315781938408080634723,7728.0,1.52817190429315781938408080634723
140,7841.12961585992586020030553890311083,7839.6,1.52961585992586020030553890311083
141,7953.53104953161745243000223347068095,7952.0,1.53104953161745243000223347068095
142,8066.73247306489664484810575369492851,8065.2,1.53247306489664484810575369492851
143,8180.73388660222453838294603961151226,8179.2,1.53388660222453838294603961151226
144,8295.53529028308025864366792499506095,8294.0,1.53529028308025864366792499506095
145,8411.13668424404362277391325906408671,8409.6,1.53668424404362277391325906408671
146,8527.53806861887496155709764915138931,8526.0,1.53806861887496155709764915138931
147,8644.73944353859221106034483655662420,8643.2,1.53944353859221106034483655662420
148,8762.74080913154538914610878259985463,8761.2,1.54080913154538914610878259985463
149,8881.54216552348855865244004863005714,8880.0,1.54216552348855865244004863005714
150,9001.14351283764938088277534486857678,8999.6,1.54351283764938088277534486857678
151,9121.54485119479635531950712652808702,9120.0,1.54485119479635531950712652808702
152,9242.74618071330383586050428976989955,9241.2,1.54618071330383586050428976989955
153,9364.74750150921491252827987556203014,9363.2,1.54750150921491252827987556203014
154,9487.54881369630224255104966392572184,9486.0,1.54881369630224255104966392572184
155,9611.15011738612690905167602237645026,9609.6,1.55011738612690905167602237645026
156,9735.55141268809538521086262473714491,9734.0,1.55141268809538521086262473714491
157,9860.75269970951467495120429463877934,9859.2,1.55269970951467495120429463877934
158,9986.75397855564570196019613096510499,9985.2,1.55397855564570196019613096510499
159,10113.5552493297550107250370986442226,10112.0,1.5552493297550107250370986442226
160,10241.1565121331648459167687974287437,10239.6,1.5565121331648459167687974287437
161,10369.5577670653016686198713877662108,10368.0,1.5577670653016686198713877662108
162,10498.7590142237431688684197597882346,10497.2,1.5590142237431688684197597882346
163,10628.7602537042638293421010367680205,10627.2,1.5602537042638293421010367680205
164,10759.5614856008790948586913325806540,10758.0,1.5614856008790948586913325806540
165,10891.1627100058881962632123337409718,10889.6,1.5627100058881962632123337409718
166,11023.5639270099156792293595438571811,11022.0,1.5639270099156792293595438571811
167,11156.7651367019516852055259231314907,11155.2,1.5651367019516852055259231314907
168,11290.7663391693910271943391155988910,11289.2,1.5663391693910271943391155988910
169,11425.5675344980711054278070572154033,11424.0,1.5675344980711054278070572154033
170,11561.1687227723087026811940612518184,11559.6,1.5687227723087026811940612518184
171,11697.5699040749356994200933836639423,11696.0,1.5699040749356994200933836639423
172,11834.7710784873337466473611587981167,11833.2,1.5710784873337466473611587981167
173,11972.7722460894679318522491243004141,11971.2,1.5722460894679318522491243004141
174,12111.5734069599194739052579136328330,12110.0,1.5734069599194739052579136328330
175,12251.1745611759174808836520097134753,12249.6,1.5745611759174808836520097134753
176,12391.5757088133698005339977978620498,12390.0,1.5757088133698005339977978620498
177,12532.7768499468929966322711636530995,12531.2,1.5768499468929966322711636530995
178,12674.7779846498414803959407206329706,12673.2,1.5779846498414803959407206329706
179,12817.5791129943358233929829157797016,12816.0,1.5791129943358233929829157797016
180,12961.1802350512902828942389476401465,12959.6,1.5802350512902828942389476401465
181,13105.5813508904395623177106041151728,13104.0,1.5813508904395623177106041151728
182,13250.7824605803648344601926860721010,13249.2,1.5824605803648344601926860721010
183,13396.7835641885190505655291359116079,13395.2,1.5835641885190505655291359116079
184,13543.5846617812515594710410480869523,13542.0,1.5846617812515594710410480869523
185,13691.1857534238320586402652825707229,13689.6,1.5857534238320586402652825707229
186,13839.5868391804738980506353855450128,13838.0,1.5868391804738980506353855450128
187,13988.7879191143567607366191540947585,13987.2,1.5879191143567607366191540947585
188,14138.7889932876487354246414589729168,14137.2,1.5889932876487354246414589729168
189,14289.5900617615278049908967575254776,14288.0,1.5900617615278049908967575254776
190,14441.1911245962027663931422478285926,14439.6,1.5911245962027663931422478285926
191,14593.5921818509336012990380583337234,14592.0,1.5921818509336012990380583337234
192,14746.7932335840513137932509805415681,14745.2,1.5932335840513137932509805415681
193,14900.7942798529772534671842944619456,14899.2,1.5942798529772534671842944619456
194,15055.5953207142419372321302063905201,15054.0,1.5953207142419372321302063905201
195,15211.1963562235033877882189036610360,15209.6,1.5963562235033877882189036610360
196,15367.5973864355650024410780877939204,15366.0,1.5973864355650024410780877939204
197,15524.7984114043929666415395302539388,15523.2,1.5984114043929666415395302539388
198,15682.7994311831332264103872252681884,15681.2,1.5994311831332264103872252681884
199,15841.6004458241280324820173850470071,15840.0,1.6004458241280324820173850470071
200,16001.2014553789320701072259733244839,15999.6,1.6014553789320701072259733244839
201,16161.6024598983281854915583979355925,16160.0,1.6024598983281854915583979355925
202,16322.8034594323427222453914808040865,16321.2,1.6034594323427222453914808040865
203,16484.8044540302604785004847699339179,16483.2,1.6044540302604785004847699339179
204,16647.6054437406392963079238005384091,16646.0,1.6054437406392963079238005384091
205,16811.2064286113242932828255271627989,16809.6,1.6064286113242932828255271627989
206,16975.6074086894617495145640920200204,16974.0,1.6074086894617495145640920200204
207,17140.8083840215126556132037119728000,17139.2,1.6083840215126556132037119728000
208,17306.8093546532659361136054451561119,17305.2,1.6093546532659361136054451561119
209,17473.6103206298513539800995311267258,17472.0,1.6103206298513539800995311267258
210,17641.2112819957521077073859417538898,17639.6,1.6112819957521077073859417538898
211,17809.6122387948171283766852951774975,17808.0,1.6122387948171283766852951774975
212,17978.8131910702730868943285122113386,17977.2,1.6131910702730868943285122113386
213,18148.8141388647361157907411962778268,18147.2,1.6141388647361157907411962778268
214,18319.6150822202232605555736854176094,18318.0,1.6150822202232605555736854176094
215,18491.2160211781636597152716298239347,18489.6,1.6160211781636597152716298239347
216,18663.6169557794094676076088681441547,18662.0,1.6169557794094676076088681441547
217,18836.8178860642465238122884082879506,18835.2,1.6178860642465238122884082879506
218,19010.8188120724047782101280535002378,19009.2,1.6188120724047782101280535002378
219,19185.6197338430684749438344098050055,19184.0,1.6197338430684749438344098050055
220,19361.2206514148861077885591091752625,19359.6,1.6206514148861077885591091752625
221,19537.6215648259801448345981620305762,19536.0,1.6215648259801448345981620305762
222,19714.8224741139565396796688703627856,19713.2,1.6224741139565396796688703627856
223,19892.8233793159140226916673384334024,19891.2,1.6233793159140226916673384334024
224,20071.6242804684531874012771048549052,20070.0,1.6242804684531874012771048549052
225,20251.2251776076853745810453827888183,20249.6,1.6251776076853745810453827888183
226,20431.6260707692413575489423828978992,20430.0,1.6260707692413575489423828978992
227,20612.8269599882798373393256926922040,20611.2,1.6269599882798373393256926922040
228,20794.8278452994957495515881270483712,20793.2,1.6278452994957495515881270483712
229,20977.6287267371283900287092963120185,20976.0,1.6287267371283900287092963120185
230,21161.2296043349693640520281610475088,21159.6,1.6296043349693640520281610475088
231,21345.6304781263703608415809571249590,21344.0,1.6304781263703608415809571249590
232,21530.8313481442507637709991109042031,21529.2,1.6313481442507637709991109042031
233,21716.8322144211050912825484413324576,21715.2,1.6322144211050912825484413324576
234,21903.6330769890102846484531293301931,21902.0,1.6330769890102846484531293301931
235,22091.2339358796328357496824414469354,22089.6,1.6339358796328357496824414469354
236,22279.6347911242357645710497010288578,22278.0,1.6347911242357645710497010288578
237,22468.8356427536854500328318742470351,22467.2,1.6356427536854500328318742470351
238,22658.8364907984583158900031597882461,22657.2,1.6364907984583158900031597882461
