Eigenstate,Energy,Kinetic Energy,Potential Energy
1,0.500000000012563223963737328691852284,0.0,0.500000000012563223963737328691852284
2,1.84623093773312080091439665580407725,1.2,0.64623093773312080091439665580407725
3,3.93633760994586202734038490517046800,3.2,0.73633760994586202734038490517046800
4,6.79966527831597737966197156666940245,6.0,0.79966527831597737966197156666940245
5,10.4480465761547991873924153115727240,9.6,0.8480465761547991873924153115727240
6,14.8870659982151317656567721633151417,14.0,0.8870659982151317656567721633151417
7,20.1197208259342733613222667153591547,19.2,0.9197208259342733613222667153591547
8,26.1477838456887149485943475931142184,25.2,0.9477838456887149485943475931142184
9,32.9723835564844752427530479359345188,32.0,0.9723835564844752427530479359345188
10,40.5942802124699638792875660292927100,39.6,0.9942802124699638792875660292927100
11,49.0140093837861106907085192168573706,48.0,1.0140093837861106907085192168573706
12,58.2319621657374668456237783827089223,57.2,1.0319621657374668456237783827089223
13,68.2484326883897800469439178376801671,67.2,1.0484326883897800469439178376801671
14,79.0636476494261465067198575444798488,78.0,1.0636476494261465067198575444798488
15,90.6777854299611900674653207659786571,89.6,1.0777854299611900674653207659786571
16,103.090988899411503713932542063122108,102.0,1.090988899411503713932542063122108
17,116.303374248957151696531467219991232,115.2,1.103374248957151696531467219991232
18,130.315037242547867598383629645736178,129.2,1.115037242547867598383629645736178
19,145.126057740007031058867012245343351,144.0,1.126057740007031058867012245343351
20,160.736503034665603631066154303223599,159.6,1.136503034665603631066154303223599
21,177.146430359443825567921631225946371,176.0,1.146430359443825567921631225946371
22,194.355888798009955686447486990217101,193.2,1.155888798009955686447486990217101
23,212.364920762716795834552558991068541,211.2,1.164920762716795834552558991068541
24,231.173563152002112915923881221398886,230.0,1.173563152002112915923881221398886
25,250.781848267184565184581560351982785,249.6,1.181848267184565184581560351982785
26,271.189804546271289924574468156367247,270.0,1.189804546271289924574468156367247
27,292.397457156920479233225259942482594,291.2,1.197457156920479233225259942482594
28,314.404828479800419819995668875594248,313.2,1.204828479800419819995668875594248
29,337.211938505791444913452343580564315,336.0,1.211938505791444913452343580564315
30,360.818805164827758800852363156350113,359.6,1.218805164827758800852363156350113
31,385.225444600030156025737794394736567,384.0,1.225444600030156025737794394736567
32,410.431871397702757684890303076588231,409.2,1.231871397702757684890303076588231
33,436.438098781457239462374689541737413,435.2,1.238098781457239462374689541737413
34,463.244138776977479772629280934676548,462.0,1.244138776977479772629280934676548
35,490.850002352598361319161161769117487,489.6,1.250002352598361319161161769117487
36,519.255699539838980497092139816273241,518.0,1.255699539838980497092139816273241
37,548.461239537226434519474357952409959,547.2,1.261239537226434519474357952409959
38,578.466630800115937404305131027471463,577.2,1.266630800115937404305131027471463
39,609.271881118715167309774208791288222,608.0,1.271881118715167309774208791288222
40,640.876997686124926921829030293161105,639.6,1.276997686124926921829030293161105
41,673.281987157891448324501295477365522,672.0,1.281987157891448324501295477365522
42,706.486855704310681181996573911770025,705.2,1.286855704310681181996573911770025
43,740.491609056518416716684436589970774,739.2,1.291609056518416716684436589970774
44,775.296252547232005951665303112933032,774.0,1.296252547232005951665303112933032
45,810.900791146871861117628588325668355,809.6,1.300791146871861117628588325668355
46,847.305229495677792841152755470745081,846.0,1.305229495677792841152755470745081
47,884.509571932341759119291058437875346,883.2,1.309571932341759119291058437875346
48,922.513822519601015721059226658370806,921.2,1.313822519601015721059226658370806
49,961.317985067170995112562129285624806,960.0,1.317985067170995112562129285624806
50,1000.92206315234311828885766573929969,999.6,1.32206315234311828885766573929969
51,1041.32606013852727693319577400108971,1040.0,1.32606013852727693319577400108971
52,1082.52997919198037810998127885258424,1081.2,1.32997919198037810998127885258424
53,1124.53382329692989357927189202619343,1123.2,1.33382329692989357927189202619343
54,1167.33759526927379468917380147566910,1166.0,1.33759526927379468917380147566910
55,1210.94129776901477830999162239230877,1209.6,1.34129776901477830999162239230877
56,1255.34493331156661470386955739203055,1254.0,1.34493331156661470386955739203055
57,1300.54850427805324925854608904153032,1299.2,1.34850427805324925854608904153032
58,1346.55201292470649282755737928052264,1345.2,1.35201292470649282755737928052264
59,1393.35546139145538147195274178405818,1392.0,1.35546139145538147195274178405818
60,1440.95885170978926189088606877582503,1439.6,1.35885170978926189088606877582503
61,1489.36218580996709460094497505350519,1488.0,1.36218580996709460094497505350519
62,1538.56546552763716591896803410790525,1537.2,1.36546552763716591896803410790525
63,1588.56869260992415791408175956406461,1587.2,1.36869260992415791408175956406461
64,1639.37186872103421301476846955013094,1638.0,1.37186872103421301476846955013094
65,1690.97499544742309511680466370786839,1689.6,1.37499544742309511680466370786839
66,1743.37807430256770169885671252924570,1742.0,1.37807430256770169885671252924570
67,1796.58110673137691916119581921841998,1795.2,1.38110673137691916119581921841998
68,1850.58409411427405744218658057912999,1849.2,1.38409411427405744218658057912999
69,1905.38703777097978729647740286274827,1904.0,1.38703777097978729647740286274827
70,1960.98993896402157535055779770163203,1959.6,1.38993896402157535055779770163203
71,2017.39279890199301334761685454940762,2016.0,1.39279890199301334761685454940762
72,2074.59561874258413975125804842677866,2073.2,1.39561874258413975125804842677866
73,2132.59839959540179887122233265853397,2131.2,1.39839959540179887122233265853397
74,2191.40114252459726382571917965650556,2190.0,1.40114252459726382571917965650556
75,2251.00384855131671855386248057467792,2249.6,1.40384855131671855386248057467792
76,2311.40651865598874453495329865948735,2310.0,1.40651865598874453495329865948735
77,2372.60915378046165547293356692624236,2371.2,1.40915378046165547293356692624236
78,2434.61175483000235740615484888699808,2433.2,1.41175483000235740615484888699808
79,2497.41432267516736488261419957406279,2496.0,1.41432267516736488261419957406279
80,2561.01685815355566571516491268182877,2559.6,1.41685815355566571516491268182877
81,2625.41936207145227748973340076397818,2624.0,1.41936207145227748973340076397818
82,2690.62183520537057754902008968093407,2689.2,1.42183520537057754902008968093407
83,2756.62427830350079944037264384417250,2755.2,1.42427830350079944037264384417250
84,2823.42669208707146452480377090515661,2822.0,1.42669208707146452480377090515661
85,2891.02907725162995816795224077146027,2889.6,1.42907725162995816795224077146027
86,2959.43143446824794406839652073820137,2958.0,1.43143446824794406839652073820137
87,3028.63376438465685280793056465682786,3027.2,1.43376438465685280793056465682786
88,3098.63606762631825733067567563158125,3097.2,1.43606762631825733067567563158125
89,3169.43834479743356455574089292450639,3168.0,1.43834479743356455574089292450639
90,3241.04059648189710911141510206448591,3239.6,1.44059648189710911141510206448591
91,3313.44282324419641372682339484629721,3312.0,1.44282324419641372682339484629721
92,3386.64502563026309251944112501455489,3385.2,1.44502563026309251944112501455489
93,3460.64720416827761116180347642936349,3459.2,1.44720416827761116180347642936349
94,3535.44935936943087498201028308609514,3534.0,1.44935936943087498201028308609514
95,3611.05149172864539489859683338695518,3609.6,1.45149172864539489859683338695518
96,3687.45360172525857926822501519674938,3686.0,1.45360172525857926822501519674938
97,3764.65568982367051538253949435878045,3763.2,1.45568982367051538253949435878045
98,3842.65775647395843147623901649879545,3841.2,1.45775647395843147623901649879545
99,3921.45980211245987663622370267303056,3920.0,1.45980211245987663622370267303056
100,4001.06182716232650966126324305952586,3999.6,1.46182716232650966126324305952586
101,4081.46383203405025861747634465027031,4080.0,1.46383203405025861747634465027031
102,4162.66581712596348726019076278229524,4161.2,1.46581712596348726019076278229524
103,4244.66778282471469657914036660368576,4243.2,1.46778282471469657914036660368576
104,4327.46972950572118245924523760201380,4326.0,1.46972950572118245924523760201380
105,4411.07165753359997737546397182550685,4409.6,1.47165753359997737546397182550685
106,4495.47356726257831327596359960550146,4494.0,1.47356726257831327596359960550146
107,4580.67545903688476472589713677807017,4579.2,1.47545903688476472589713677807017
108,4666.67733319112215214452441727231573,4665.2,1.47733319112215214452441727231573
109,4753.47919005062321637487765939316279,4752.0,1.47919005062321637487765939316279
110,4841.08102993179001340504820412382511,4839.6,1.48102993179001340504820412382511
111,4929.48285314241791219897230918815966,4928.0,1.48285314241791219897230918815966
112,5018.68465998200502916096042385815058,5017.2,1.48465998200502916096042385815058
113,5108.68645074204787722242030072585266,5107.2,1.48645074204787722242030072585266
114,5199.48822570632395878146795046596263,5198.0,1.48822570632395878146795046596263
115,5291.08998515116199127761787557572145,5289.6,1.48998515116199127761787557572145
116,5383.49172934570040585209580847005432,5382.0,1.49172934570040585209580847005432
117,5476.69345855213472783131041010757797,5475.2,1.49345855213472783131041010757797
118,5570.69517302595440673991480518196922,5569.2,1.49517302595440673991480518196922
119,5665.49687301616962983617255405207027,5664.0,1.49687301616962983617255405207027
120,5761.09855876552862732010766272919969,5759.6,1.49855876552862732010766272919969
121,5857.50023051072593909767400924334113,5856.0,1.50023051072593909767400924334113
122,5954.70188848260209407104678391763502,5953.2,1.50188848260209407104678391763502
123,6052.70353290633512073220653400626693,6051.2,1.50353290633512073220653400626693
124,6151.50516400162429015717775164311347,6150.0,1.50516400162429015717775164311347
125,6251.10678198286646293202082944264374,6249.6,1.50678198286646293202082944264374
126,6351.50838705932539634437864471863009,6350.0,1.50838705932539634437864471863009
127,6452.70997943529434759649265485076720,6451.2,1.50997943529434759649265485076720
128,6554.71155931025228620841346902514840,6553.2,1.51155931025228620841346902514840
129,6657.51312687901401670689278225839046,6656.0,1.51312687901401670689278225839046
130,6761.11468233187449431357627458217392,6759.6,1.51468233187449431357627458217392
131,6865.51622585474760094199900023949772,6864.0,1.51622585474760094199900023949772
132,6970.71775762929963383568397906849751,6969.2,1.51775762929963383568397906849751
133,7076.71927783307774739806083654183309,7075.2,1.51927783307774739806083654183309
134,7183.52078663963357748896231313725805,7182.0,1.52078663963357748896231313725805
135,7291.12228421864225935411411819476469,7289.6,1.52228421864225935411411819476469
136,7399.52377073601704666650323059576756,7398.0,1.52377073601704666650323059576756
137,7508.72524635401972585056604515728486,7507.2,1.52524635401972585056604515728486
138,7618.72671123136700624814729481668163,7617.2,1.52671123136700624814729481668163
139,7729.52816552333306457927499551805847,7728.0,1.52816552333306457927499551805847
140,7841.12960938184840670482838576835267,7839.6,1.52960938184840670482838576835267
141,7953.53104295559520514068594202028906,7952.0,1.53104295559520514068594202028906
142,8066.73246639009926269967335221236942,8065.2,1.53246639009926269967335221236942
143,8180.73387982781874398746218284375900,8179.2,1.53387982781874398746218284375900
144,8295.53528340822980929893283201358954,8294.0,1.53528340822980929893283201358954
145,8411.13667726790928127375643924533265,8409.6,1.53667726790928127375643924533265
146,8527.53806154061446680119932594347460,8526.0,1.53806154061446680119932594347460
147,8644.73943635736024846118764098058533,8643.2,1.53943635736024846118764098058533
148,8762.74080184649356083063655757856695,8761.2,1.54080184649356083063655757856695
149,8881.54215813376535345597396294102796,8880.0,1.54215813376535345597396294102796
150,9001.14350534240014413271157830108142,8999.6,1.54350534240014413271157830108142
151,9121.54484359316325840629245618218056,9120.0,1.54484359316325840629245618218056
152,9242.74617300442584559335933511497549,9241.2,1.54617300442584559335933511497549
153,9364.74749369222776027311154398994667,9363.2,1.54749369222776027311154398994667
154,9487.54880577033839314796624927745960,9486.0,1.54880577033839314796624927745960
155,9611.15010935031552950948993251028687,9609.6,1.55010935031552950948993251028687
156,9735.55140454156231317593603140625566,9734.0,1.55140454156231317593603140625566
157,9860.75269145138238694796460320145715,9859.2,1.55269145138238694796460320145715
158,9986.75397018503328140061736808206354,9985.2,1.55397018503328140061736808206354
159,10113.5552408457781156843535220659128,10112.0,1.5552408457781156843535220659128
160,10241.1565035349356766726559815659889,10239.6,1.5565035349356766726559815659889
161,10369.5577583519289349522989569401667,10368.0,1.5577583519289349522989569401667
162,10498.7590053943320571173481298704891,10497.2,1.5590053943320571173481298704891
163,10628.7602447579159692201627756240203,10627.2,1.5602447579159692201627756240203
164,10759.5614765366925260159646575128232,10758.0,1.5614765366925260159646575128232
165,10891.1627008229573346011612184839389,10889.6,1.5627008229573346011612184839389
166,11023.5639177073312829609818238350204,11022.0,1.5639177073312829609818238350204
167,11156.7651272788008206587163193107642,11155.2,1.5651272788008206587163193107642
168,11290.7663296247570343554392651785360,11289.2,1.5663296247570343554392651785360
169,11425.5675248310335632222804416841742,11424.0,1.5675248310335632222804416841742
170,11561.1687129819433939883270462063105,11559.6,1.5687129819433939883270462063105
171,11697.5698941603145758185883434548362,11696.0,1.5698941603145758185883434548362
172,11834.7710684475248928886504344720968,11833.2,1.5710684475248928886504344720968
173,11972.7722359235355300583217798538060,11971.2,1.5722359235355300583217798538060
174,12111.5733966669237674877532287147467,12110.0,1.5733966669237674877532287147467
175,12251.1745507549147381809353614109632,12249.6,1.5745507549147381809353614109632
176,12391.5756982634122781628957197083902,12390.0,1.5756982634122781628957197083902
177,12532.7768392670289025511031201648744,12531.2,1.5768392670289025511031201648744
178,12674.7779738391149366754449837186676,12673.2,1.5779738391149366754449837186676
179,12817.5791020517868286916931476589471,12816.0,1.5791020517868286916931476589471
180,12961.1802239759546746348267439428493,12959.6,1.5802239759546746348267439428493
181,13105.5813396813489785607679127167390,13104.0,1.5813396813489785607679127167390
182,13250.7824492365466754718853201488024,13249.2,1.5824492365466754718853201488024
183,13396.7835527089964400755089407673081,13395.2,1.5835527089964400755089407673081
184,13543.5846501650433056169616354904516,13542.0,1.5846501650433056169616354904516
185,13691.1857416699526145952001997788131,13689.6,1.5857416699526145952001997788131
186,13839.5868272879333223296546303664515,13838.0,1.5868272879333223296546303664515
187,13988.7879070821606771787321078056287,13987.2,1.5879070821606771787321078056287
188,14138.7889811147982928462692674464919,14137.2,1.5889811147982928462692674464919
189,14289.5900494470196365069893515866778,14288.0,1.5900494470196365069893515866778
190,14441.1911121390289484020077863045952,14439.6,1.5911121390289484020077863045952
191,14593.5921692500816121269034197651639,14592.0,1.5921692500816121269034197651639
192,14746.7932208385039919945231801722961,14745.2,1.5932208385039919945231801722961
193,14900.7942669617127557763322528036254,14899.2,1.5942669617127557763322528036254
194,15055.5953076762336961630559184520731,15054.0,1.5953076762336961630559184520731
195,15211.1963430377200688769347539184469,15209.6,1.5963430377200688769347539184469
196,15367.5973731009704611274554814285132,15366.0,1.5973731009704611274554814285132
197,15524.7983979199462047858403593658438,15523.2,1.5983979199462047858403593658438
198,15682.7994175477883484402358845585427,15681.2,1.5994175477883484402358845585427
199,15841.6004320368342011654158348670175,15840.0,1.6004320368342011654158348670175
200,16001.2014414386334619471593303009479,15999.6,1.6014414386334619471593303009479
201,16161.6024458039639457376822487664409,16160.0,1.6024458039639457376822487664409
202,16322.8034451828469195182329125622096,16321.2,1.6034451828469195182329125622096
203,16484.8044396245620590235336837180125,16483.2,1.6044396245620590235336837180125
204,16647.6054291776620377429295313945522,16646.0,1.6054291776620377429295313945522
205,16811.2064138899867581635552131475798,16809.6,1.6064138899867581635552131475798
206,16975.6073938086772382742174921095147,16974.0,1.6073938086772382742174921095147
207,17140.8083689801891592006175036804423,17139.2,1.6083689801891592006175036804423
208,17306.8093394503060881933174439331545,17305.2,1.6093394503060881933174439331545
209,17473.6103052641523827112786851486078,17472.0,1.6103052641523827112786851486078
210,17641.2112664662057870965699675119338,17639.6,1.6112664662057870965699675119338
211,17809.6122231003097291992015770356571,17808.0,1.6122231003097291992015770356571
212,17978.8131752096853271792071670998377,17977.2,1.6131752096853271792071670998377
213,18148.8141228369431108638606574883655,18147.2,1.6141228369431108638606574883655
214,18319.6150660240944726357113225896908,18318.0,1.6150660240944726357113225896908
215,18491.2160048125628470576612366394926,18489.6,1.6160048125628470576612366394926
216,18663.6169392431946331895351085034351,18662.0,1.6169392431946331895351085034351
217,18836.8178693562698635551774215108549,18835.2,1.6178693562698635551774215108549
218,19010.8187951915126287325193007021927,19009.2,1.6187951915126287325193007021927
219,19185.6197167881012608395434408538875,19184.0,1.6197167881012608395434408538875
220,19361.2206341846782884242671888231466,19359.6,1.6206341846782884242671888231466
221,19537.6215474193601606610258166775805,19536.0,1.6215474193601606610258166775805
222,19714.8224565297467580504135192744267,19713.2,1.6224565297467580504135192744267
223,19892.8233615529306831837053176432797,19891.2,1.6233615529306831837053176432797
224,20071.6242625255063466310499145232653,20070.0,1.6242625255063466310499145232653
225,20251.2251594835788505099677441921450,20249.6,1.6251594835788505099677441921450
226,20431.6260524627726732720867689086900,20430.0,1.6260524627726732720867689086900
227,20612.8269414982401643509540464598572,20611.2,1.6269414982401643509540464598572
228,20794.8278266246698504811138769556617,20793.2,1.6278266246698504811138769556617
229,20977.6287078762945608405873221101067,20976.0,1.6287078762945608405873221101067
230,21161.2295852868993757029809325771633,21159.6,1.6295852868993757029809325771633
231,21345.6304588898294003884784990655346,21344.0,1.6304588898294003884784990655346
232,21530.8313287179973749226198813756753,21529.2,1.6313287179973749226198813756753
233,21716.8321948038911143883544736102499,21715.2,1.6321948038911143883544736102499
234,21903.6330571795807961174181900915997,21902.0,1.6330571795807961174181900915997
235,22091.2339158767260868921167839352832,22089.6,1.6339158767260868921167839352832
236,22279.6347709265831198562664353765555,22278.0,1.6347709265831198562664353765555
237,22468.8356223600113247554008966523653,22467.2,1.6356223600113247554008966523653
238,22658.8364702074801132372383505839227,22657.2,1.6364702074801132372383505839227
