Eigenstate,Energy,Kinetic Energy,Potential Energy
1,0.500000000018829560292359786581420306,0.0,0.500000000018829560292359786581420306
2,1.84623093777402411900532894936290754,1.2,0.64623093777402411900532894936290754
3,3.93633761006601195083439303478411057,3.2,0.73633761006601195083439303478411057
4,6.79966527856623517238588441191357111,6.0,0.79966527856623517238588441191357111
5,10.4480465765882951776327729061129117,9.6,0.8480465765882951776327729061129117
6,14.8870659988859250352455363303210166,14.0,0.8870659988859250352455363303210166
7,20.1197208268968576326827595620213406,19.2,0.9197208268968576326827595620213406
8,26.1477838469978122688145941193152860,25.2,0.9477838469978122688145941193152860
9,32.9723835581949398164704639759396382,32.0,0.9723835581949398164704639759396382
10,40.5942802146367330477233640319551916,39.6,0.9942802146367330477233640319551916
11,49.0140093864641781048169539263953319,48.0,1.0140093864641781048169539263953319
12,58.2319621689818669488925047887638054,57.2,1.0319621689818669488925047887638054
13,68.2484326922555787150808403761294066,67.2,1.0484326922555787150808403761294066
14,79.0636476539684352305095517399574571,78.0,1.0636476539684352305095517399574571
15,90.6777854352350822730258245195692202,89.6,1.0777854352350822730258245195692202
16,103.090988905472132425456945817190944,102.0,1.090988905472132425456945817190944
17,116.303374255859668072176070924919012,115.2,1.103374255859668072176070924919012
18,130.315037250347440051589307679506244,129.2,1.115037250347440051589307679506244
19,145.126057748758844782840775185029834,144.0,1.126057748758844782840775185029834
20,160.736503044424860407548125009002537,159.6,1.136503044424860407548125009002537
21,177.146430370265743780686073836899879,176.0,1.146430370265743780686073836899879
22,194.355888809949770485062903582437528,193.2,1.155888809949770485062903582437528
23,212.364920775829759410319375691547671,211.2,1.164920775829759410319375691547671
24,231.173563166343494862868071171347922,230.0,1.173563166343494862868071171347922
25,250.781848282809652925859782375438448,249.6,1.181848282809652925859782375438448
26,271.189804563235389189842429005905790,270.0,1.189804563235389189842429005905790
27,292.397457175278914576193208081033254,291.2,1.197457175278914576193208081033254
28,314.404828499608535168030424457978644,313.2,1.204828499608535168030424457978644
29,337.211938527104604143003716088262703,336.0,1.211938527104604143003716088262703
30,360.818805187701346333896642553049292,359.6,1.218805187701346333896642553049292
31,385.225444624519577443487106110043385,384.0,1.225444624519577443487106110043385
32,410.431871423863440355813809176941822,409.2,1.231871423863440355813809176941822
33,436.438098809344633182185673481554747,435.2,1.238098809344633182185673481554747
34,463.244138806647057414360456982684850,462.0,1.244138806647057414360456982684850
35,490.850002384105619491814501731371798,489.6,1.250002384105619491814501731371798
36,519.255699573239440211634760879538479,518.0,1.255699573239440211634760879538479
37,548.461239572575641861177380762473614,547.2,1.261239572575641861177380762473614
38,578.466630837469464210601787980299675,577.2,1.266630837469464210601787980299675
39,609.271881158128611852957249452857512,608.0,1.271881158128611852957249452857512
40,640.876997727653914596023491851430796,639.6,1.276997727653914596023491851430796
41,673.281987201591632336442876560653495,672.0,1.281987201591632336442876560653495
42,706.486855750237743245222787329565365,705.2,1.286855750237743245222787329565365
43,740.491609104728067748808895816521106,739.2,1.291609104728067748808895816521106
44,775.296252597779986774457658399881004,774.0,1.296252597779986774457658399881004
45,810.900791199813943159665923981088082,809.6,1.300791199813943159665923981088082
46,847.305229551069778842844359741588650,846.0,1.305229551069778842844359741588650
47,884.509571990239483840108710714440185,883.2,1.309571990239483840108710714440185
48,922.513822580060346648830593854364125,921.2,1.313822580060346648830593854364125
49,961.317985130247833174706352252722645,960.0,1.317985130247833174706352252722645
50,1000.92206321809339856546044532700348,999.6,1.32206321809339856546044532700348
51,1041.32606020700696937183679828649071,1040.0,1.32606020700696937183679828649071
52,1082.52997926324548824224009086074598,1081.2,1.32997926324548824224009086074598
53,1124.53382337103646323884967698495795,1123.2,1.33382337103646323884967698495795
54,1167.33759534627790273157836098913975,1166.0,1.33759534627790273157836098913975
55,1210.94129784897254133374125927450636,1209.6,1.34129784897254133374125927450636
56,1255.34493339453418777317890842617319,1254.0,1.34493339453418777317890842617319
57,1300.54850436408682662746330118565857,1299.2,1.34850436408682662746330118565857
58,1346.55201301386230866552757610259413,1345.2,1.35201301386230866552757610259413
59,1393.35546148378971059078755184291034,1392.0,1.35546148378971059078755184291034
60,1440.95885180535842047312323620654607,1439.6,1.35885180535842047312323620654607
61,1489.36218590882744092958579492785582,1488.0,1.36218590882744092958579492785582
62,1538.56546562984510110858364880241902,1537.2,1.36546562984510110858364880241902
63,1588.56869271553612664328223458706546,1587.2,1.36869271553612664328223458706546
64,1639.37186883010670426003113741450209,1638.0,1.37186883010670426003113741450209
65,1690.97499556001264288766051761031879,1689.6,1.37499556001264288766051761031879
66,1743.37807441873088577443563570983939,1742.0,1.37807441873088577443563570983939
67,1796.58110685117036582813325863659316,1795.2,1.38110685117036582813325863659316
68,1850.58409423775444023389587808217806,1849.2,1.38409423775444023389587808217806
69,1905.38703789820382773379346776470863,1904.0,1.38703789820382773379346776470863
70,1960.98993909504604368375906904578257,1959.6,1.38993909504604368375906904578257
71,2017.39279903687472929983371237955653,2016.0,1.39279903687472929983371237955653
72,2074.59561888137997326327685353925317,2073.2,1.39561888137997326327685353925317
73,2132.59839973816867084769525961686234,2131.2,1.39839973816867084769525961686234
74,2191.40114267139214688279085465608667,2190.0,1.40114267139214688279085465608667
75,2251.00384870219663776822524318961973,2249.6,1.40384870219663776822524318961973
76,2311.40651881101077819434359685100051,2310.0,1.40651881101077819434359685100051
77,2372.60915393968293582808267518731527,2371.2,1.40915393968293582808267518731527
78,2434.61175499348007142420767962990002,2433.2,1.41175499348007142420767962990002
79,2497.41432284295875500203055103750292,2496.0,1.41432284295875500203055103750292
80,2561.01685832571803060211797488858446,2559.6,1.41685832571803060211797488858446
81,2625.41936224804297279602082513480942,2624.0,1.41936224804297279602082513480942
82,2690.62183538644701667150336349340490,2689.2,1.42183538644701667150336349340490
83,2756.62427848912045428196089022972597,2755.2,1.42427848912045428196089022972597
84,2823.42669227729186625699848413590548,2822.0,1.42669227729186625699848413590548
85,2891.02907744650869799496980286203992,2889.6,1.42907744650869799496980286203992
86,2959.43143466784267399288566947177372,2958.0,1.43143466784267399288566947177372
87,3028.63376458902528639830229063234685,3027.2,1.43376458902528639830229063234685
88,3098.63606783551817049006330690735130,3097.2,1.43606783551817049006330690735130
89,3169.43834501152279629260839012212909,3168.0,1.43834501152279629260839012212909
90,3241.04059670093356231183183112324686,3239.6,1.44059670093356231183183112324686
91,3313.44282346823805592842390816060889,3312.0,1.44282346823805592842390816060889
92,3386.64502585936795668708867885503216,3385.2,1.44502585936795668708867885503216
93,3460.64720440250379646497624504477414,3459.2,1.44720440250379646497624504477414
94,3535.44935960883654757392942756355495,3534.0,1.44935960883654757392942756355495
95,3611.05149197328878869711578956183038,3609.6,1.45149197328878869711578956183038
96,3687.45360197519799673849952900200897,3686.0,1.45360197519799673849952900200897
97,3764.65569007896432832149815279299502,3763.2,1.45569007896432832149815279299502
98,3842.65775673466508179887414820321598,3841.2,1.45775673466508179887414820321598
99,3921.45980237863787716372273673960359,3920.0,1.45980237863787716372273673960359
100,4001.06182743403444491100073952474698,3999.6,1.46182743403444491100073952474698
101,4081.46383231134678559488709490774515,4080.0,1.46383231134678559488709490774515
102,4162.66581740890733625254450140381093,4161.2,1.46581740890733625254450140381093
103,4244.66778311336467195123876608526362,4243.2,1.46778311336467195123876608526362
104,4327.46972980013616345106204988839098,4326.0,1.46972980013616345106204988839098
105,4411.07165783383891890174927611293687,4409.6,1.47165783383891890174927611293687
106,4495.47356756870024672783328360353387,4494.0,1.47356756870024672783328360353387
107,4580.67545934894879877442886703849902,4579.2,1.47545934894879877442886703849902
108,4666.67733350918747354638148280303107,4665.2,1.47733350918747354638148280303107
109,4753.47919037474909077998222525155972,4752.0,1.47919037474909077998222525155972
110,4841.08103026203578616632562131815485,4839.6,1.48103026203578616632562131815485
111,4929.48285347884300918418827144259462,4928.0,1.48285347884300918418827144259462
112,5018.68466032466895756667289088367172,5017.2,1.48466032466895756667289088367172
113,5108.68645109101022639006821955450635,5107.2,1.48645109101022639006821955450635
114,5199.48822606164440101561895271235593,5198.0,1.48822606164440101561895271235593
115,5291.08998551290028266639724057483545,5289.6,1.48998551290028266639724057483545
116,5383.49172971391638708981911975459133,5382.0,1.49172971391638708981911975459133
117,5476.69345892688832504334243256222071,5475.2,1.49345892688832504334243256222071
118,5570.69517340730563230977727245515556,5569.2,1.49517340730563230977727245515556
119,5665.49687340417858323492364617152167,5664.0,1.49687340417858323492364617152167
120,5761.09855916025549593801608720041042,5759.6,1.49855916025549593801608720041042
121,5857.50023091223099907821073262557846,5856.0,1.50023091223099907821073262557846
122,5954.70188889094571114721757228104887,5953.2,1.50188889094571114721757228104887
123,6052.70353332157775106524859677375825,6051.2,1.50353332157775106524859677375825
124,6151.50516442382648117764388025248521,6150.0,1.50516442382648117764388025248521
125,6251.10678241208885418327458451606979,6249.6,1.50678241208885418327458451606979
126,6351.50838749562872032852424233765245,6350.0,1.50838749562872032852424233765245
127,6452.70997987873943062276332832486438,6451.2,1.50997987873943062276332832486438
128,6554.71155976090004924404223009747962,6553.2,1.51155976090004924404223009747962
129,6657.51312733692547623048960222152672,6656.0,1.51312733692547623048960222152672
130,6761.11468279711076317103584523574179,6759.6,1.51468279711076317103584523574179
131,6865.51622632736988920496336627696996,6864.0,1.51622632736988920496336627696996
132,6970.71775810936924966258447040291431,6969.2,1.51775810936924966258447040291431
133,7076.71927832065609789776379775310615,7075.2,1.51927832065609789776379775310615
134,7183.52078713478216958704334809668436,7182.0,1.52078713478216958704334809668436
135,7291.12228472142270066178563640918262,7289.6,1.52228472142270066178563640918262
136,7399.52377124649104635222020823640415,7398.0,1.52377124649104635222020823640415
137,7508.72524687224909551433508024724831,7507.2,1.52524687224909551433508024724831
138,7618.72671175741366079856414855224833,7617.2,1.52671175741366079856414855224833
139,7729.52816605725902311331593402250935,7728.0,1.52816605725902311331593402250935
140,7841.12960992371579339042080741928440,7839.6,1.52960992371579339042080741928440
141,7953.53104350546625010208385744724849,7952.0,1.53104350546625010208385744724849
142,8066.73246694803630290566346770554304,8065.2,1.53246694803630290566346770554304
143,8180.73388039388422414242644811248729,8179.2,1.53388039388422414242644811248729
144,8295.53528398248628273679346768711632,8294.0,1.53528398248628273679346768711632
145,8411.13667785041941085482956987514077,8409.6,1.53667785041941085482956987514077
146,8527.53806213144102581198351915134443,8526.0,1.53806213144102581198351915134443
147,8644.73943695656612151711379191142105,8643.2,1.53943695656612151711379191142105
148,8762.74080245414174478180564975947711,8761.2,1.54080245414174478180564975947711
149,8881.54215874991895829590946457418094,8880.0,1.54215874991895829590946457418094
150,9001.14350596712239391015329920133780,8999.6,1.54350596712239391015329920133780
151,9121.54484422651749214005886941807964,9120.0,1.54484422651749214005886941807964
152,9242.74617364647551819030553813622813,9241.2,1.54617364647551819030553813622813
153,9364.74749434303644344921016318292735,9363.2,1.54749434303644344921016318292735
154,9487.54880642996977635253868030714708,9486.0,1.54880642996977635253868030714708
155,9611.15011001883342085261557183086020,9609.6,1.55011001883342085261557183086020
156,9735.55140521903064035906725229601917,9734.0,1.55140521903064035906725229601917
157,9860.75269213786519819777535471721348,9859.2,1.55269213786519819777535471721348
158,9986.75397088059474640611347621125115,9985.2,1.55397088059474640611347621125115
159,10113.5552415504825265372729212194551,10112.0,1.5552415504825265372729212194551
160,10241.1565042488474488111872206730491,10239.6,1.5565042488474488111872206730491
161,10369.5577590751126081081465329786709,10368.0,1.5577590751126081081465329786709
162,10498.7590061268522962661733825996179,10497.2,1.5590061268522962661733825996179
163,10628.7602454998375655354291391685807,10627.2,1.5602454998375655354291391685807
164,10759.5614772880803978262163133962841,10758.0,1.5614772880803978262163133962841
165,10891.1627015838765283507643826560492,10889.6,1.5627015838765283507643826560492
166,11023.5639184778469741743579638207677,11022.0,1.5639184778469741743579638207677
167,11156.7651280589783149080968222115448,11155.2,1.5651280589783149080968222115448
168,11290.7663304146617682321713240775345,11289.2,1.5663304146617682321713240775345
169,11425.5675256307311053117139196392669,11424.0,1.5675256307311053117139196392669
170,11561.1687137914994458483124497856624,11559.6,1.5687137914994458483124497856624
171,11697.5698949797949729616160411475396,11696.0,1.5698949797949729616160411475396
172,11834.7710692769956057676615642973338,11833.2,1.5710692769956057676615642973338
173,11972.7722367630626650562213673167406,11971.2,1.5722367630626650562213673167406
174,12111.5733975165735679106562852259553,12110.0,1.5733975165735679106562852259553
175,12251.1745516147535852551768750844222,12249.6,1.5745516147535852551768750844222
176,12391.5756991335066920358356477360187,12390.0,1.5756991335066920358356477360187
177,12532.7768401474455432957576818452361,12531.2,1.5768401474455432957576818452361
178,12674.7779747299206052989757195611995,12673.2,1.5779747299206052989757195611995
179,12817.5791029530484681477854067932390,12816.0,1.5791029530484681477854067932390
180,12961.1802248877393708399894690118205,12959.6,1.5802248877393708399894690118205
181,13105.5813406037239614145867614738595,13104.0,1.5813406037239614145867614738595
182,13250.7824501695793198812613421145553,13249.2,1.5824501695793198812613421145553
183,13396.7835536527542669829152701366418,13395.2,1.5835536527542669829152701366418
184,13543.5846511195939830327507960246129,13542.0,1.5846511195939830327507960246129
185,13691.1857426353639586339949009299189,13689.6,1.5857426353639586339949009299189
186,13839.5868282642732982508550193837160,13838.0,1.5868282642732982508550193837160
187,13988.7879080694974004311727395586760,13987.2,1.5879080694974004311727395586760
188,14138.7889821132000301170592209679440,14137.2,1.5889821132000301170592209679440
189,14289.5900504565548067745691315319892,14288.0,1.5900504565548067745691315319892
190,14441.1911131597661239934568426469157,14439.6,1.5911131597661239934568426469157
191,14593.5921702820895197795323503273247,14592.0,1.5921702820895197795323503273247
192,14746.7932218818515139217848794054386,14745.2,1.5932218818515139217848794054386
193,14900.7942680164689307380864914723097,14899.2,1.5942680164689307380864914723097
194,15055.5953087424677205402220273696424,15054.0,1.5953087424677205402220273696424
195,15211.1963441155012977505673454183757,15209.6,1.5963441155012977505673454183757
196,15367.5973741903684093622783371657723,15366.0,1.5973741903684093622783371657723
197,15524.7983990210305481182738200962203,15523.2,1.5983990210305481182738200962203
198,15682.7994186606289245709533109325356,15681.2,1.5994186606289245709533109325356
199,15841.6004331615010108564649828181463,15840.0,1.6004331615010108564649828181463
200,16001.2014425751966701236846116332051,15999.6,1.6014425751966701236846116332051
201,16161.6024469524938825942841614913269,16160.0,1.6024469524938825942841614913269
202,16322.8034463434140816300011394379006,16321.2,1.6034463434140816300011394379006
203,16484.8044407972371104617905556842523,16483.2,1.6044407972371104617905556842523
204,16647.6054303625158111957208361022241,16646.0,1.6054303625158111957208361022241
205,16811.2064150870902560609255108067907,16809.6,1.6064150870902560609255108067907
206,16975.6073950181016339183074110534424,16974.0,1.6073950181016339183074110534424
207,17140.8083702020057979006206706894688,17139.2,1.6083702020057979006206706894688
208,17306.8093406845864884053349634972615,17305.2,1.6093406845864884053349634972615
209,17473.6103065109682371831093729404122,17472.0,1.6103065109682371831093729404122
210,17641.2112677256289640174747167827229,17639.6,1.6112677256289640174747167827229
211,17809.6122243724122733546805443073624,17808.0,1.6122243724122733546805443073624
212,17978.8131764945394611108286861706235,17977.2,1.6131764945394611108286861706235
213,18148.8141241346212360341810853317080,18147.2,1.6141241346212360341810853317080
214,18319.6150673346691705983252321610459,18318.0,1.6150673346691705983252321610459
215,18491.2160061361068806324216589429254,18489.6,1.6160061361068806324216589429254
216,18663.6169405797809476429837755560323,18662.0,1.6169405797809476429837755560323
217,18836.8178707059715877862252693767570,18835.2,1.6178707059715877862252693767570
218,19010.8187965544030764634176775198609,19009.2,1.6187965544030764634176775198609
219,19185.6197181642539318121868135974180,19184.0,1.6197181642539318121868135974180
220,19361.2206355741668696018683906194213,19359.6,1.6206355741668696018683906194213
221,19537.6215488222585274352051144378456,19536.0,1.6215488222585274352051144378456
222,19714.8224579461289754537431399909338,19713.2,1.6224579461289754537431399909338
223,19892.8233629828710071077512399671575,19891.2,1.6233629828710071077512399671575
224,20071.6242639690792250499531247986461,20070.0,1.6242639690792250499531247986461
225,20251.2251609408589247096074007047179,20249.6,1.6251609408589247096074007047179
226,20431.6260539338347790848679573510329,20430.0,1.6260539338347790848679573510329
227,20612.8269429831593333962631869117761,20611.2,1.6269429831593333962631869117761
228,20794.8278281235213114114850609617105,20793.2,1.6278281235213114114850609617105
229,20977.6287093891537405936231962485667,20976.0,1.6287093891537405936231962485667
230,21161.2295868138419007590720450265335,21159.6,1.6295868138419007590720450265335
231,21345.6304604309310980343652998002622,21344.0,1.6304604309310980343652998002622
232,21530.8313302733342745208418974573463,21529.2,1.6313302733342745208418974573463
233,21716.8321963735394486526314735515262,21715.2,1.6321963735394486526314735515262
234,21903.6330587636170023940084513955028,21902.0,1.6330587636170023940084513955028
235,22091.2339174752268084471979557818563,22089.6,1.6339174752268084471979557818563
236,22279.6347725396252071693846613660909,22278.0,1.6347725396252071693846613660909
237,22468.8356239876718368190343614664769,22467.2,1.6356239876718368190343614664769
238,22658.8364718498363188625215887204670,22657.2,1.6364718498363188625215887204670
