Eigenstate,Energy,Kinetic Energy,Potential Energy
1,0.500000002798547682459930987467432690,0.0,0.500000002798547682459930987467432690
2,1.84623095591972728104889411624971721,1.2,0.64623095591972728104889411624971721
3,3.93633766337280536951440357954944086,3.2,0.73633766337280536951440357954944086
4,6.79966538961319706171595345203474960,6.0,0.79966538961319706171595345203474960
5,10.4480467689774713439864324497150628,9.6,0.8480467689774713439864324497150628
6,14.8870662966534412679853742311595980,14.0,0.8870662966534412679853742311595980
7,20.1197212542994188402312345668898730,19.2,0.9197212542994188402312345668898730
8,26.1477844284268873495484173194207586,25.2,0.9477844284268873495484173194207586
9,32.9723843181398311365459641704942078,32.0,0.9723843181398311365459641704942078
10,40.5942811776685856699798141031510762,39.6,0.9942811776685856699798141031510762
11,49.0140105772298631685414086965664676,48.0,1.0140105772298631685414086965664676
12,58.2319636122029140765979566349155087,57.2,1.0319636122029140765979566349155087
13,68.2484344127298750117974363420023463,67.2,1.0484344127298750117974363420023463
14,79.0636496765735348576659921425268696,78.0,1.0636496765735348576659921425268696
15,90.6777877849325065076227254869858543,89.6,1.0777877849325065076227254869858543
16,103.090991607312311164853889249143745,102.0,1.090991607312311164853889249143745
17,116.303377334987318241399345695691800,115.2,1.103377334987318241399345695691800
18,130.315040732007257007553699185801616,129.2,1.115040732007257007553699185801616
19,145.126061658301429652024216330932083,144.0,1.126061658301429652024216330932083
20,160.736507407312834487366556170597269,159.6,1.136507407312834487366556170597269
21,177.146435212080018651337772047014704,176.0,1.146435212080018651337772047014704
22,194.355894156395953678236193168323387,193.2,1.155894156395953678236193168323387
23,212.364926652744682832678839778654500,211.2,1.164926652744682832678839778654500
24,231.173569599701858117413069250795150,230.0,1.173569599701858117413069250795150
25,250.781855298730777078928275769808244,249.6,1.181855298730777078928275769808244
26,271.189812187990078928997097867329613,270.0,1.189812187990078928997097867329613
27,292.397465435296428430625614296212945,291.2,1.197465435296428430625614296212945
28,314.404837421483664734841640282918892,313.2,1.204837421483664734841640282918892
29,337.211948137604864221806659896999211,336.0,1.211948137604864221806659896999211
30,360.818815513774278613560976186364533,359.6,1.218815513774278613560976186364533
31,385.225455693300170973022938309393712,384.0,1.225455693300170973022938309393712
32,410.431883262681672510897343016470885,409.2,1.231883262681672510897343016470885
33,436.438111445733135240872030037619524,435.2,1.238111445733135240872030037619524
34,463.244152268348909202281299665822429,462.0,1.244152268348909202281299665822429
35,490.850016699082277864602177837302914,489.6,1.250016699082277864602177837302914
36,519.255714769678806422117341968284484,518.0,1.255714769678806422117341968284484
37,548.461255678900273119701319708662046,547.2,1.261255678900273119701319708662046
38,578.466647882344934995138946800152166,577.2,1.266647882344934995138946800152166
39,609.271899170472030766403464230680961,608.0,1.271899170472030766403464230680961
40,640.877016736642602805102879931246765,639.6,1.277016736642602805102879931246765
41,673.282007236671969862928392637938822,672.0,1.282007236671969862928392637938822
42,706.486876841134189618171354272756243,705.2,1.286876841134189618171354272756243
43,740.491631281452363768176432090258046,739.2,1.291631281452363768176432090258046
44,775.296275890640544383445101826516015,774.0,1.296275890640544383445101826516015
45,810.900815639425430676871976084424045,809.6,1.300815639425430676871976084424045
46,847.305255168362909067003839060534344,846.0,1.305255168362909067003839060534344
47,884.509598816471012810975291859884885,883.2,1.309598816471012810975291859884885
48,922.513850646823291128652338833088178,921.2,1.313850646823291128652338833088178
49,961.318014469481915206686771357352804,960.0,1.318014469481915206686771357352804
50,1000.92209386209572576951481659796606,999.6,1.32209386209572576951481659796606
51,1041.32609218844295995474889336214272,1040.0,1.32609218844295995474889336214272
52,1082.53001261516005002986028447794920,1081.2,1.33001261516005002986028447794920
53,1124.53385812686543638315801723917371,1123.2,1.33385812686543638315801723917371
54,1167.33763153985977610616403998699991,1166.0,1.33763153985977610616403998699991
55,1210.94133551456045300842963361284471,1209.6,1.34133551456045300842963361284471
56,1255.34497256680822035314410735678308,1254.0,1.34497256680822035314410735678308
57,1300.54854507816660865515175120890229,1299.2,1.34854507816660865515175120890229
58,1346.55205530531993371615664609323135,1345.2,1.35205530531993371615664609323135
59,1393.35550538866298614509211959113791,1392.0,1.35550538866298614509211959113791
60,1440.95889736016445912557475950178292,1439.6,1.35889736016445912557475950178292
61,1489.36223315057660698766681849267025,1488.0,1.36223315057660698766681849267025
62,1538.56551459605532616011765266017732,1537.2,1.36551459605532616011765266017732
63,1588.56874344424760821559651542842235,1587.2,1.36874344424760821559651542842235
64,1639.37192135989700226828795725238572,1638.0,1.37192135989700226828795725238572
65,1690.97504993001218917148644713602728,1689.6,1.37504993001218917148644713602728
66,1743.37813066863892265355075900504769,1742.0,1.37813066863892265355075900504769
67,1796.58116502127133027072283582822319,1795.2,1.38116502127133027072283582822319
68,1850.58415436893481092769371491751169,1849.2,1.38415436893481092769371491751169
69,1905.38710003196945308115143301557923,1904.0,1.38710003196945308115143301557923
70,1960.99000327353996951027741100953199,1959.6,1.39000327353996951027741100953199
71,2017.39286530289554587362069460095455,2016.0,1.39286530289554587362069460095455
72,2074.59568727840070207070242410504858,2073.2,1.39568727840070207070242410504858
73,2132.59847031035621246409356845573685,2131.2,1.39847031035621246409356845573685
74,2191.40121546362731221537925567325563,2190.0,1.40121546362731221537925567325563
75,2251.00392376009478593631260237058851,2249.6,1.40392376009478593631260237058851
76,2311.40659618094308535148420976338694,2310.0,1.40659618094308535148420976338694
77,2372.60923366879832032533690929658703,2371.2,1.40923366879832032533690929658703
78,2434.61183712972780186626864556001194,2433.2,1.41183712972780186626864556001194
79,2497.41440743511176896219390559277330,2496.0,1.41440743511176896219390559277330
80,2561.01694542339699304159014517938813,2559.6,1.41694542339699304159014517938813
81,2625.41945190174110458185112287956665,2624.0,1.41945190174110458185112287956665
82,2690.62192764755572500970521713969518,2689.2,1.42192764755572500970521713969518
83,2756.62437340995579838266600735951987,2755.2,1.42437340995579838266600735951987
84,2823.42678991112189313161251164829739,2822.0,1.42678991112189313161251164829739
85,2891.02917784758168495642347822137974,2889.6,1.42917784758168495642347822137974
86,2959.43153789141631619469825739713667,2958.0,1.43153789141631619469825739713667
87,3028.63387069139686961229003187504169,3027.2,1.43387069139686961229003187504169
88,3098.63617687405577129237056768046549,3097.2,1.43617687405577129237056768046549
89,3169.43845704469755391017563075998816,3168.0,1.43845704469755391017563075998816
90,3241.04071178835306858370290449319277,3239.6,1.44071178835306858370290449319277
91,3313.44294167068091216624461144404978,3312.0,1.44294167068091216624461144404978
92,3386.64514723881954868513340846508495,3385.2,1.44514723881954868513340846508495
93,3460.64732902219334152107946661114132,3459.2,1.44732902219334152107946661114132
94,3535.44948753327547014845013952239195,3534.0,1.44948753327547014845013952239195
95,3611.05162326831048426794168255563910,3609.6,1.45162326831048426794168255563910
96,3687.45373670799904651723365126279256,3686.0,1.45373670799904651723365126279256
97,3764.65582831814723079149660765872859,3763.2,1.45582831814723079149660765872859
98,3842.65789855028257053253269478237673,3841.2,1.45789855028257053253269478237673
99,3921.45994784223889808846082695159550,3920.0,1.45994784223889808846082695159550
100,4001.06197661871187013565665308424714,3999.6,1.46197661871187013565665308424714
101,4081.46398529178694509705748439894699,4080.0,1.46398529178694509705748439894699
102,4162.66597426144145318023833443164447,4161.2,1.46597426144145318023833443164447
103,4244.66794391602229202797714287930446,4243.2,1.46794391602229202797714287930446
104,4327.46989463270067401270385341421361,4326.0,1.46989463270067401270385341421361
105,4411.07182677790525845791671244421145,4409.6,1.47182677790525845791671244421145
106,4495.47374070773491165480551810030602,4494.0,1.47374070773491165480551810030602
107,4580.67563676835225983557307027346522,4579.2,1.47563676835225983557307027346522
108,4666.67751529635912142868228503853328,4665.2,1.47751529635912142868228503853328
109,4753.47937661915483676141256554822876,4752.0,1.47937661915483676141256554822876
110,4841.08122105527845142155400114130290,4839.6,1.48122105527845142155400114130290
111,4929.48304891473564413134969586400882,4928.0,1.48304891473564413134969586400882
112,5018.68486049931124109433947564083827,5017.2,1.48486049931124109433947564083827
113,5108.68665610286810382358334627853068,5107.2,1.48665610286810382358334627853068
114,5199.48843601163312933136927384176745,5198.0,1.48843601163312933136927384176745
115,5291.09020050447106179160275243863349,5289.6,1.49020050447106179160275243863349
116,5383.49194985314676718835107048369474,5382.0,1.49194985314676718835107048369474
117,5476.69368432257659154451897423795003,5475.2,1.49368432257659154451897423795003
118,5570.69540417106938315174867266309179,5569.2,1.49540417106938315174867266309179
119,5665.49710965055772643800235298407266,5664.0,1.49710965055772643800235298407266
120,5761.09880100681991027352630455553724,5759.6,1.49880100681991027352630455553724
121,5857.50047847969311633968795120479841,5856.0,1.50047847969311633968795120479841
122,5954.70214230327829545581761347097639,5953.2,1.50214230327829545581761347097639
123,6052.70379270613716885143542551030817,6051.2,1.50379270613716885143542551030817
124,6151.50542991148177508794784234347543,6150.0,1.50542991148177508794784234347543
125,6251.10705413735695528640511212966098,6249.6,1.50705413735695528640511212966098
126,6351.50866559681615577335199517814775,6350.0,1.50866559681615577335199517814775
127,6452.71026449809090847947091461250916,6451.2,1.51026449809090847947091461250916
128,6554.71185104475432880128151548619213,6553.2,1.51185104475432880128151548619213
129,6657.51342543587896070462071234334305,6656.0,1.51342543587896070462071234334305
130,6761.11498786618928280583141740422316,6759.6,1.51498786618928280583141740422316
131,6865.51653852620917631914172892188006,6864.0,1.51653852620917631914172892188006
132,6970.71807760240464357892834607473983,6969.2,1.51807760240464357892834607473983
133,7076.71960527732205712741667730118738,7075.2,1.51960527732205712741667730118738
134,7183.52112172972221144066155660437770,7182.0,1.52112172972221144066155660437770
135,7291.12262713471043494214016255779482,7289.6,1.52262713471043494214016255779482
136,7399.52412166386302031310338195858213,7398.0,1.52412166386302031310338195858213
137,7508.72560548535022225099004103996859,7507.2,1.52560548535022225099004103996859
138,7618.72707876405606311326867083160299,7617.2,1.52707876405606311326867083160299
139,7729.52854166169519017511003871447053,7728.0,1.52854166169519017511003871447053
140,7841.12999433692701873631339883083007,7839.6,1.52999433692701873631339883083007
141,7953.53143694546739732944662483693339,7952.0,1.53143694546739732944662483693339
142,8066.73286964019803047588837282308085,8065.2,1.53286964019803047588837282308085
143,8180.73429257127389383099853598665837,8179.2,1.53429257127389383099853598665837
144,8295.53570588622887829523479279970048,8294.0,1.53570588622887829523479279970048
145,8411.13710973007990537252959667262569,8409.6,1.53710973007990537252959667262569
146,8527.53850424542975917843217050786126,8526.0,1.53850424542975917843217050786126
147,8644.73988957256888452330738412250043,8643.2,1.53988957256888452330738412250043
148,8762.74126584957641515613804992466767,8761.2,1.54126584957641515613804992466767
149,8881.54263321242069791657529323299436,8880.0,1.54263321242069791657529323299436
150,9001.14399179505959735032736113960239,8999.6,1.54399179505959735032736113960239
151,9121.54534172954087659610362448144158,9120.0,1.54534172954087659610362448144158
152,9242.74668314610296599937039419641560,9241.2,1.54668314610296599937039419641560
153,9364.74801617327645341375296511896831,9363.2,1.54801617327645341375296511896831
154,9487.54934093798665190642553491808134,9486.0,1.54934093798665190642553491808134
155,9611.15065756565762509043154592935620,9609.6,1.55065756565762509043154592935620
156,9735.55196618031808394957859742515392,9734.0,1.55196618031808394957859742515392
157,9860.75326690470960060997467087833298,9859.2,1.55326690470960060997467087833298
158,9986.75455986039762873281048247985423,9985.2,1.55455986039762873281048247985423
159,10113.5558451678858612959414127528236,10112.0,1.5558451678858612959414127528236
160,10241.1571229467345150995086769106807,10239.6,1.5571229467345150995086769106807
161,10369.5583933156831870793899671540135,10368.0,1.5583933156831870793899671540135
162,10498.7596563927790009533053584253697,10497.2,1.5596563927790009533053584253697
163,10628.7609122955108408878080591584503,10627.2,1.5609122955108408878080591584503
164,10759.5621611409505633833749917961888,10758.0,1.5621611409505633833749917961888
165,10891.1634030459021811791180963072889,10889.6,1.5634030459021811791180963072889
166,11023.5646381270601397709535694038852,11022.0,1.5646381270601397709535694038852
167,11156.7658665011779477235280455066362,11155.2,1.5658665011779477235280455066362
168,11290.7670882852485835583450685122486,11289.2,1.5670882852485835583450685122486
169,11425.5683035966982967158475640265536,11424.0,1.5683035966982967158475640265536
170,11561.1695125535956380071179524709744,11559.6,1.5695125535956380071179524709744
171,11697.5707152748778151987373810517193,11696.0,1.5707152748778151987373810517193
172,11834.7719118805967701714583074643685,11833.2,1.5719118805967701714583074643685
173,11972.7731024921877263372968703640143,11971.2,1.5731024921877263372968703640143
174,12111.5742872327633717340500765789511,12110.0,1.5742872327633717340500765789511
175,12251.1754662274373314193428263468305,12249.6,1.5754662274373314193428263468305
176,12391.5766396036811572453818464651620,12390.0,1.5766396036811572453818464651620
177,12532.7778074917197523662121695601835,12531.2,1.5778074917197523662121695601835
178,12674.7789700249709589887929622124119,12673.2,1.5789700249709589887929622124119
179,12817.5801273405360079354347545148703,12816.0,1.5801273405360079354347545148703
180,12961.1812795797486981166984609925840,12959.6,1.5812795797486981166984609925840
181,13105.5824268887925664555688339060151,13104.0,1.5824268887925664555688339060151
182,13250.7835694193970048538859998052179,13249.2,1.5835694193970048538859998052179
183,13396.7847073296253262617710090323402,13395.2,1.5847073296253262617710090323402
184,13543.5858407847702796901611699925600,13542.0,1.5858407847702796901611699925600
185,13691.1869699583755660775734896542733,13689.6,1.5869699583755660775734896542733
186,13839.5880950334056615249392284107972,13838.0,1.5880950334056615249392284107972
187,13988.7892162035908982710619962368237,13987.2,1.5892162035908982710619962368237
188,14138.7903336749805119565355811340847,14137.2,1.5903336749805119565355811340847
189,14289.5914476677435779375660141503661,14288.0,1.5914476677435779375660141503661
190,14441.1925584182668101381464204598151,14439.6,1.5925584182668101381464204598151
191,14593.5936661816096600790736222881010,14592.0,1.5936661816096600790736222881010
192,14746.7947712343917475886385184585727,14745.2,1.5947712343917475886385184585727
193,14900.7958738782063802176168019676802,14899.2,1.5958738782063802176168019676802
194,15055.5969744436781125028140393808260,15054.0,1.5969744436781125028140393808260
195,15211.1980732953138284385611121692686,15209.6,1.5980732953138284385611121692686
196,15367.5991708373382542741685705559206,15366.0,1.5991708373382542741685705559206
197,15524.8002675207597455900946739606029,15523.2,1.6002675207597455900946739606029
198,15682.8013638519857557773689217698386,15681.2,1.6013638519857557773689217698386
199,15841.6024604034069351470459338838238,15840.0,1.6024604034069351470459338838238
200,16001.2035578265050352169636907158456,15999.6,1.6035578265050352169636907158456
201,16161.6046568682284893800061664484856,16160.0,1.6046568682284893800061664484856
202,16322.8057583916443902485656498284868,16321.2,1.6057583916443902485656498284868
203,16484.8068634022526430753481450297701,16483.2,1.6068634022526430753481450297701
204,16647.6079730818933044730944094861820,16646.0,1.6079730818933044730944094861820
205,16811.2090888329800243791939748133671,16809.6,1.6090888329800243791939748133671
206,16975.6102123369941694783983158791797,16974.0,1.6102123369941694783983158791797
207,17140.8113456330123657995576720680391,17139.2,1.6113456330123657995576720680391
208,17306.8124912249170814514087146862681,17305.2,1.6124912249170814514087146862681
209,17473.6136522305588348898340655370357,17472.0,1.6136522305588348898340655370357
210,17641.2148325937705361358577405993444,17639.6,1.6148325937705361358577405993444
211,17809.6160373931613312721728308300242,17808.0,1.6160373931613312721728308300242
212,17978.8172733046944098959111772073265,17977.2,1.6172733046944098959111772073265
213,18148.8185493177261093072562518683646,18147.2,1.6185493177261093072562518683646
214,18319.6198778871490847815127367541533,18318.0,1.6198778871490847815127367541533
215,18491.2212768754670255017317871133891,18489.6,1.6212768754670255017317871133891
216,18663.6227730181255281951648056517342,18662.0,1.6227730181255281951648056517342
217,18836.8244085646995169714975958008241,18835.2,1.6244085646995169714975958008241
218,19010.8262552409988134024930652972447,19009.2,1.6262552409988134024930652972447
219,19185.6284475222982394886980248006917,19184.0,1.6284475222982394886980248006917
220,19361.2312776578675265947545034805213,19359.6,1.6312776578675265947545034805213
221,19537.6355584571556735618539849849079,19536.0,1.6355584571556735618539849849079
222,19714.8450941121786512828910925242479,19713.2,1.6450941121786512828910925242479
