Eigenstate,Energy,Kinetic Energy,Potential Energy
1,0.500000000013259283501464714089674665,0.0,0.500000000013259283501464714089674665
2,1.84623093773766430622263502815081609,1.2,0.64623093773766430622263502815081609
3,3.93633760995920816829436304285413472,3.2,0.73633760995920816829436304285413472
4,6.79966527834377575528992073801187426,6.0,0.79966527834377575528992073801187426
5,10.4480465762029514152129420825718978,9.6,0.8480465762029514152129420825718978
6,14.8870659982896425916210745946210198,14.0,0.8870659982896425916210745946210198
7,20.1197208260411957647293844789564128,19.2,0.9197208260411957647293844789564128
8,26.1477838458341272152585430538388179,25.2,0.9477838458341272152585430538388179
9,32.9723835566744702734047083805502502,32.0,0.9723835566744702734047083805502502
10,40.5942802127106437349238512228618130,39.6,0.9942802127106437349238512228618130
11,49.0140093840835836032423732985927541,48.0,1.0140093840835836032423732985927541
12,58.2319621660978454847940463845377434,57.2,1.0319621660978454847940463845377434
13,68.2484326888191804711216090554371993,67.2,1.0484326888191804711216090554371993
14,79.0636476499306875072808335523944104,78.0,1.0636476499306875072808335523944104
15,90.6777854305469927505774554235002281,89.6,1.0777854305469927505774554235002281
16,103.090988900084691231458470306167851,102.0,1.090988900084691231458470306167851
17,116.303374249723849073912867034513586,115.2,1.103374249723849073912867034513586
18,130.315037243414201627547697583642925,129.2,1.115037243414201627547697583642925
19,145.126057740979130235908000920869579,144.0,1.126057740979130235908000920869579
20,160.736503035749598125497049661341776,159.6,1.136503035749598125497049661341776
21,177.146430360645847214659049477854892,176.0,1.146430360645847214659049477854892
22,194.355888799336137994478326588226584,193.2,1.155888799336137994478326588226584
23,212.364920764173274008051913545906798,211.2,1.164920764173274008051913545906798
24,231.173563153595023884811122389766292,230.0,1.173563153595023884811122389766292
25,250.781848268920047642332060406476543,249.6,1.181848268920047642332060406476543
26,271.189804548155484371681610113307225,270.0,1.189804548155484371681610113307225
27,292.397457158959528025115285041873833,291.2,1.197457158959528025115285041873833
28,314.404828482000467218490657507937900,313.2,1.204828482000467218490657507937900
29,337.211938508158637141089722966917244,336.0,1.211938508158637141089722966917244
30,360.818805167368244097526491547943252,359.6,1.218805167368244097526491547943252
31,385.225444602750084707246481657412590,384.0,1.225444602750084707246481657412590
32,410.431871400608282203057676120750134,409.2,1.231871400608282203057676120750134
33,436.438098784554514466489352867590638,435.2,1.238098784554514466489352867590638
34,463.244138780272662171988739181197540,462.0,1.244138780272662171988739181197540
35,490.850002356097610346553897638528474,489.6,1.250002356097610346553897638528474
36,519.255699543548457773080424443471834,518.0,1.255699543548457773080424443471834
37,548.461239541152304117365902878664863,547.2,1.261239541152304117365902878664863
38,578.466630804264365915721614825949475,577.2,1.266630804264365915721614825949475
39,609.271881123092323910740677846473621,608.0,1.271881123092323910740677846473621
40,640.876997690736983439321061628923064,639.6,1.276997690736983439321061628923064
41,673.281987162744579303397266916969099,672.0,1.281987162744579303397266916969099
42,706.486855709411063952390932643865189,705.2,1.286855709411063952390932643865189
43,740.491609061872231461524873196467345,739.2,1.291609061872231461524873196467345
44,775.296252552845435774682531311845972,774.0,1.296252552845435774682531311845972
45,810.900791152751092111532238385868699,809.6,1.300791152751092111532238385868699
46,847.305229501829014156070897993542051,846.0,1.305229501829014156070897993542051
47,884.509571938771163031434232291619825,883.2,1.309571938771163031434232291619825
48,922.513822526314797701592669157374279,921.2,1.313822526314797701592669157374279
49,961.317985074175353896672294041811457,960.0,1.317985074175353896672294041811457
50,1000.92206315964425594500113514495509,999.6,1.32206315964425594500113514495509
51,1041.32606014613139893252039815468651,1040.0,1.32606014613139893252039815468651
52,1082.52997919989369339591084482927812,1081.2,1.32997919989369339591084482927812
53,1124.53382330515861463724688737013288,1123.2,1.33382330515861463724688737013288
54,1167.33759527782413761654192497992982,1166.0,1.33759527782413761654192497992982
55,1210.94129777789296288604262869445198,1209.6,1.34129777789296288604262869445198
56,1255.34493332077886446000983785918310,1254.0,1.34493332077886446000983785918310
57,1300.54850428760579154860909199931358,1299.2,1.34850428760579154860909199931358
58,1346.55201293460555889824658949331710,1345.2,1.35201293460555889824658949331710
59,1393.35546140170720653341447270020668,1392.0,1.35546140170720653341447270020668
60,1440.95885172040008518740979143735681,1439.6,1.35885172040008518740979143735681
61,1489.36218582094315948178932089676232,1488.0,1.36218582094315948178932089676232
62,1538.56546553898471990931096952910609,1537.2,1.36546553898471990931096952910609
63,1588.56869262164945278609375241152142,1587.2,1.36869262164945278609375241152142
64,1639.37186873314350485880774792980454,1638.0,1.37186873314350485880774792980454
65,1690.97499545992264441273392325241286,1689.6,1.37499545992264441273392325241286
66,1743.37807431546377338748084804716186,1742.0,1.37807431546377338748084804716186
67,1796.58110674467578271582045519680310,1795.2,1.38110674467578271582045519680310
68,1850.58409412798198694029735420538547,1849.2,1.38409412798198694029735420538547
69,1905.38703778510306149154011456303856,1904.0,1.38703778510306149154011456303856
70,1960.98993897856647774393967934002079,1959.6,1.38993897856647774393967934002079
71,2017.39279891696583226062934183446246,2016.0,1.39279891696583226062934183446246
72,2074.59561875799116839732155358529897,2073.2,1.39561875799116839732155358529897
73,2132.59839961124933542815361920431278,2131.2,1.39839961124933542815361920431278
74,2191.40114254089161150814203724122759,2190.0,1.40114254089161150814203724122759
75,2251.00384856806418568574248111642879,2249.6,1.40384856806418568574248111642879
76,2311.40651867319564462225749203853122,2310.0,1.40651867319564462225749203853122
77,2372.60915379813430727641604597085376,2371.2,1.40915379813430727641604597085376
78,2434.61175484814708501426917785874144,2433.2,1.41175484814708501426917785874144
79,2497.41432269379049778455376047628677,2496.0,1.41432269379049778455376047628677
80,2561.01685817266353887403227462110548,2559.6,1.41685817266353887403227462110548
81,2625.41936209105123141583986750952601,2624.0,1.41936209105123141583986750952601
82,2690.62183522546695837331662979385673,2689.2,1.42183522546695837331662979385673
83,2756.62427832410095898801344438672093,2755.2,1.42427832410095898801344438672093
84,2823.42669210818176038884369784463886,2822.0,1.42669210818176038884369784463886
85,2891.02907727325675378317952540089022,2889.6,1.42907727325675378317952540089022
86,2959.43143449039760878530202334949585,2958.0,1.43143449039760878530202334949585
87,3028.63376440733576196681499540705368,3027.2,1.43376440733576196681499540705368
88,3098.63606764953279233589618785918778,3097.2,1.43606764953279233589618785918778
89,3169.43834482119011295009848346240682,3168.0,1.43834482119011295009848346240682
90,3241.04059650620206465068428376842556,3239.6,1.44059650620206465068428376842556
91,3313.44282326905617645442563177331108,3312.0,1.44282326905617645442563177331108
92,3386.64502565568406884126353421803187,3385.2,1.44502565568406884126353421803187
93,3460.64720419426621392116433097478910,3459.2,1.44720419426621392116433097478910
94,3535.44935939599352353477286717243385,3534.0,1.44935939599352353477286717243385
95,3611.05149175578851518843321536385846,3609.6,1.45149175578851518843321536385846
96,3687.45360175298860390203133162133834,3686.0,1.45360175298860390203133162133834
97,3764.65568985199388370600434488457394,3763.2,1.45568985199388370600434488457394
98,3842.65775650288158964956659443760759,3841.2,1.45775650288158964956659443760759
99,3921.45980214198927771001329471728068,3920.0,1.45980214198927771001329471728068
100,4001.06182719246861365254675066648473,3999.6,1.46182719246861365254675066648473
101,4081.46383206481153258591549468281873,4080.0,1.46383206481153258591549468281873
102,4162.66581715735040538443568474968796,4161.2,1.46581715735040538443568474968796
103,4244.66778285673374023335123207627311,4243.2,1.46778285673374023335123207627311
104,4327.46972953837884028977866587625059,4326.0,1.46972953837884028977866587625059
105,4411.07165756690274537772592275204465,4409.6,1.47165756690274537772592275204465
106,4495.47356729653269487143048298059861,4494.0,1.47356729653269487143048298059861
107,4580.67545907149727083930688157872779,4579.2,1.47545907149727083930688157872779
108,4666.67733322639930128123925513952191,4665.2,1.47733322639930128123925513952191
109,4753.47919008657153469842038966250110,4752.0,1.47919008657153469842038966250110
110,4841.08102996841603481481371608445273,4839.6,1.48102996841603481481371608445273
111,4929.48285317972817840811614866535821,4928.0,1.48285317972817840811614866535821
112,5018.68466002000608977446620334280324,5017.2,1.48466002000608977446620334280324
113,5108.68645078074628981534776537171066,5107.2,1.48645078074628981534776537171066
114,5199.48822574572628897738351310485754,5198.0,1.48822574572628897738351310485754
115,5291.08998519127481282720945482086807,5289.6,1.48998519127481282720945482086807
116,5383.49172938653030071197381142182252,5382.0,1.49172938653030071197381142182252
117,5476.69345859368828624299670589489865,5475.2,1.49345859368828624299670589489865
118,5570.69517306823822730902154509671843,5569.2,1.49517306823822730902154509671843
119,5665.49687305919031961177272272397595,5664.0,1.49687305919031961177272272397595
120,5761.09855880929280187429922196492096,5759.6,1.49855880929280187429922196492096
121,5857.50023055524022260533953769903305,5856.0,1.50023055524022260533953769903305
122,5954.70188852787311938981050215629752,5953.2,1.50188852787311938981050215629752
123,6052.70353295236952948259062997288757,6051.2,1.50353295236952948259062997288757
124,6151.50516404842873280295992127926271,6150.0,1.50516404842873280295992127926271
125,6251.10678203044759886079495812915058,6249.6,1.50678203044759886079495812915058
126,6351.50838710768989394832057391063032,6350.0,1.50838710768989394832057391063032
127,6452.70997948444888435333297441884190,6451.2,1.50997948444888435333297441884190
128,6554.71155936020354876261929336649524,6553.2,1.51155936020354876261929336649524
129,6657.51312692976870095106047686192826,6656.0,1.51312692976870095106047686192826
130,6761.11468238343930547003710749326900,6759.6,1.51468238343930547003710749326900
131,6865.51622590712925364463970638729440,6864.0,1.51622590712925364463970638729440
132,6970.71775768250485221198423376608657,6969.2,1.51775768250485221198423376608657
133,7076.71927788711326515134963148076770,7075.2,1.51927788711326515134963148076770
134,7183.52078669450613798089526127860355,7182.0,1.52078669450613798089526127860355
135,7291.12228427435861568737370856610606,7289.6,1.52228427435861568737370856610606
136,7399.52377079258396176772406100118570,7398.0,1.52377079258396176772406100118570
137,7508.72524641144397255348708297149667,7507.2,1.52524641144397255348708297149667
138,7618.72671128965536737699321725336631,7617.2,1.52671128965536737699321725336631
139,7729.52816558249233303236866837033545,7728.0,1.52816558249233303236866837033545
140,7841.12960944188538553843655791534836,7839.6,1.52960944188538553843655791534836
141,7953.53104301651670765310023795456763,7952.0,1.53104301651670765310023795456763
142,8066.73246645191211251552865898735989,8065.2,1.53246645191211251552865898735989
143,8180.73387989052977514229452280427139,8179.2,1.53387989052977514229452280427139
144,8295.53528347184586632397884898628029,8294.0,1.53528347184586632397884898628029
145,8411.13667733243721928099661370240876,8409.6,1.53667733243721928099661370240876
146,8527.53806160606115156864705274138405,8526.0,1.53806160606115156864705274138405
147,8644.73943642373255651842631890204224,8643.2,1.53943642373255651842631890204224
148,8762.74080191379837954460683757739191,8761.2,1.54080191379837954460683757739191
149,8881.54215820200958111701332848513312,8880.0,1.54215820200958111701332848513312
150,9001.14350541159069004084842676867474,8999.6,1.54350541159069004084842676867474
151,9121.54484366330704295779687281515691,9120.0,1.54484366330704295779687281515691
152,9242.74617307552980036755275224540653,9241.2,1.54617307552980036755275224540653
153,9364.74749376429882811943749698222288,9363.2,1.54749376429882811943749698222288
154,9487.54880584338352827332444376214623,9486.0,1.54880584338352827332444376214623
155,9611.15010942434169756583585486463262,9609.6,1.55010942434169756583585486463262
156,9735.55140461657649134814834296336053,9734.0,1.55140461657649134814834296336053
157,9860.75269152739156404198257348565325,9859.2,1.55269152739156404198257348565325
158,9986.75397026204445793185060410542335,9985.2,1.55397026204445793185060410542335
159,10113.5552409237983039663662701000621,10112.0,1.5552409237983039663662701000621
160,10241.1565036139719009061282922431183,10239.6,1.5565036139719009061282922431183
161,10369.5577584319882313142670023739423,10368.0,1.5577584319882313142670023739423
162,10498.7590054754214738507259878790369,10497.2,1.5590054754214738507259878790369
163,10628.7602448400425667235479991894868,10627.2,1.5602448400425667235479991894868
164,10759.5614766198633769337299627899563,10758.0,1.5614766198633769337299627899563
165,10891.1627009071795239138346369552767,10889.6,1.5627009071795239138346369552767
166,11023.5639177926119080759176732635092,11022.0,1.5639177926119080759176732635092
167,11156.7651273651469915010593504382799,11155.2,1.5651273651469915010593504382799
168,11290.7663297121758734593843925318051,11289.2,1.5663297121758734593843925318051
169,11425.5675249195322058226304224476129,11424.0,1.5675249195322058226304224476129
170,11561.1687130715289881123505347615320,11559.6,1.5687130715289881123505347615320
171,11697.5698942509942823781807210953781,11696.0,1.5698942509942823781807210953781
172,11834.7710685393058857727998511775829,11833.2,1.5710685393058857727998511775829
173,11972.7722360164249962258828532587342,11971.2,1.5722360164249962258828532587342
174,12111.5733967609289070605308580748203,12110.0,1.5733967609289070605308580748203
175,12251.1745508500427645370811191138651,12249.6,1.5745508500427645370811191138651
176,12391.5756983596704180306193048124918,12390.0,1.5756983596704180306193048124918
177,12532.7768393644243961027013641780550,12531.2,1.5768393644243961027013641780550
178,12674.7779739376550376216509285005031,12673.2,1.5779739376550376216509285005031
179,12817.5791021514788043763477032592122,12816.0,1.5791021514788043763477032592122
180,12961.1802240768058061298754662279062,12959.6,1.5802240768058061298754662279062
181,13105.5813397833665607615854542555831,13104.0,1.5813397833665607615854542555831
182,13250.7824493397380171929301083316031,13249.2,1.5824493397380171929301083316031
183,13396.7835528133688641463106574798051,13395.2,1.5835528133688641463106574798051
184,13543.5846502706041489784441074731443,13542.0,1.5846502706041489784441074731443
185,13691.1857417767092283963422737357793,13689.6,1.5857417767092283963422737357793
186,13839.5868273958930720244916777287305,13838.0,1.5868273958930720244916777287305
187,13988.7879071913309426237007768658166,13987.2,1.5879071913309426237007768658166
188,14138.7889812251864683978981250704813,14137.2,1.5889812251864683978981250704813
189,14289.5900495586331311199381022483658,14288.0,1.5900495586331311199381022483658
190,14441.1911122518751857274577010907560,14439.6,1.5911122518751857274577010907560
191,14593.5921693641680306113017099300195,14592.0,1.5921693641680306113017099300195
192,14746.7932209538380449786839954452348,14745.2,1.5932209538380449786839954452348
193,14900.7942670783019115948970294213425,14899.2,1.5942670783019115948970294213425
194,15055.5953077940854382443158120721102,15054.0,1.5953077940854382443158120721102
195,15211.1963431568418958430179203092718,15209.6,1.5963431568418958430179203092718
196,15367.5973732213698868948819545151520,15366.0,1.5973732213698868948819545151520
197,15524.7983980416307586664473263445899,15523.2,1.5983980416307586664473263445899
198,15682.7994176707655752424761288749106,15681.2,1.5994176707655752424761288749106
199,15841.6004321611116612960321941044659,15840.0,1.6004321611116612960321941044659
200,16001.2014415642187315132379777269671,15999.6,1.6014415642187315132379777269671
201,16161.6024459308646166490876508770823,16160.0,1.6024459308646166490876508770823
202,16322.8034453110705995904273144411550,16321.2,1.6034453110705995904273144411550
203,16484.8044397541163720807840219110755,16483.2,1.6044397541163720807840219110755
204,16647.6054293085546237219046528382329,16646.0,1.6054293085546237219046528382329
205,16811.2064140222252732173163047651338,16809.6,1.6064140222252732173163047651338
206,16975.6073939422693548766046810962839,16974.0,1.6073939422693548766046810962839
207,17140.8083691151425662510355367794699,17139.2,1.6083691151425662510355367794699
208,17306.8093395866284911219234266903590,17305.2,1.6093395866284911219234266903590
209,17473.6103054018515035845748627600296,17472.0,1.6103054018515035845748627600296
210,17641.2112666052893647234045398168255,17639.6,1.6112666052893647234045398168255
211,17809.6122232407855192371805595267469,17808.0,1.6122232407855192371805595267469
212,17978.8131753515611022415203400149512,17977.2,1.6131753515611022415203400149512
213,18148.8141229802266606265246341849664,18147.2,1.6141229802266606265246341849664
214,18319.6150661687936039452328373132203,18318.0,1.6150661687936039452328373132203
215,18491.2160049586853840391237037966390,18489.6,1.6160049586853840391237037966390
216,18663.6169393907484173551115677027388,18662.0,1.6169393907484173551115677027388
217,18836.8178695052627539130730170012034,18835.2,1.6178695052627539130730170012034
218,19010.8187953419525018963464039378664,19009.2,1.6187953419525018963464039378664
219,19185.6197169399960111381325861604048,19184.0,1.6197169399960111381325861604048
220,19361.2206343380358280119170163629747,19359.6,1.6206343380358280119170163629747
221,19537.6215475741884196281951970322385,19536.0,1.6215475741884196281951970322385
222,19714.8224566860536845348590945193134,19713.2,1.6224566860536845348590945193134
223,19892.8233617107242434820676990396162,19891.2,1.6233617107242434820676990396162
224,20071.6242626847945253108917764588458,20070.0,1.6242626847945253108917764588458
225,20251.2251596443696505222671043724067,20249.6,1.6251596443696505222671043724067
226,20431.6260526250741160641887522197783,20430.0,1.6260526250741160641887522197783
227,20612.8269416620602899799844350564908,20611.2,1.6269416620602899799844350564908
228,20794.8278267900167177278577997934632,20793.2,1.6278267900167177278577997934632
229,20977.6287080431762473238364365811444,20976.0,1.6287080431762473238364365811444
230,21161.2295854553239779943524589618059,21159.6,1.6295854553239779943524589618059
231,21345.6304590598050341277095441372732,21344.0,1.6304590598050341277095441372732
232,21530.8313288895321749333404300683991,21529.2,1.6313288895321749333404300683991
233,21716.8321949769932347943425146019230,21715.2,1.6321949769932347943425146019230
234,21903.6330573542584104593404278665727,21902.0,1.6330573542584104593404278665727
235,22091.2339160529873882447584269976038,22089.6,1.6339160529873882447584269976038
236,22279.6347711044363209462535563092821,22278.0,1.6347711044363209462535563092821
237,22468.8356225394646580794189060568519,22467.2,1.6356225394646580794189060568519
238,22658.8364703885418311807501173426112,22657.2,1.6364703885418311807501173426112
