Eigenstate,Energy,Kinetic Energy,Potential Energy
1,0.500000000028176313602749546299854278,0.0,0.500000000028176313602749546299854278
2,1.84623093783503483184431070561486263,1.2,0.64623093783503483184431070561486263
3,3.93633761024522589729591423019440297,3.2,0.73633761024522589729591423019440297
4,6.79966527893951707548802925298444760,6.0,0.79966527893951707548802925298444760
5,10.4480465772348951942286562854923123,9.6,0.8480465772348951942286562854923123
6,14.8870659998864798957494399208162247,14.0,0.8870659998864798957494399208162247
7,20.1197208283326539545544079199767449,19.2,0.9197208283326539545544079199767449
8,26.1477838489504791431248335482771109,25.2,0.9477838489504791431248335482771109
9,32.9723835607463056906825469121001568,32.0,0.9723835607463056906825469121001568
10,40.5942802178687529310486400046526130,39.6,0.9942802178687529310486400046526130
11,49.0140093904588938781350955578486687,48.0,1.0140093904588938781350955578486687
12,58.2319621738213845441675674349845720,57.2,1.0319621738213845441675674349845720
13,68.2484326980220544785083863183533144,67.2,1.0484326980220544785083863183533144
14,79.0636476607440675708314396395983886,78.0,1.0636476607440675708314396395983886
15,90.6777854431021064982048375319118838,89.6,1.0777854431021064982048375319118838
16,103.090988914512817582043479636496764,102.0,1.090988914512817582043479636496764
17,116.303374266156315087325654970525556,115.2,1.103374266156315087325654970525556
18,130.315037261982380748599030333346466,129.2,1.115037261982380748599030333346466
19,145.126057761814441498346273842998274,144.0,1.126057761814441498346273842998274
20,160.736503058983506033086951772434769,159.6,1.136503058983506033086951772434769
21,177.146430386409862109987734762322587,176.0,1.146430386409862109987734762322587
22,194.355888827761816785829637412337579,193.2,1.155888827761816785829637412337579
23,212.364920795392221163714225213618325,211.2,1.164920795392221163714225213618325
24,231.173563187738892630274474645428807,230.0,1.173563187738892630274474645428807
25,250.781848306120541313629966591721147,249.6,1.181848306120541313629966591721147
26,271.189804588544357890502473195059283,270.0,1.189804588544357890502473195059283
27,292.397457202668589470050146061970837,291.2,1.197457202668589470050146061970837
28,314.404828529161579473057913031499533,313.2,1.204828529161579473057913031499533
29,337.211938558903719603744406144672887,336.0,1.211938558903719603744406144672887
30,360.818805221829274442229812333622489,359.6,1.218805221829274442229812333622489
31,385.225444661059100685685456380481574,384.0,1.225444661059100685685456380481574
32,410.431871462897383481502468436725955,409.2,1.231871462897383481502468436725955
33,436.438098850955864491723492888262710,435.2,1.238098850955864491723492888262710
34,463.244138850918490061862250905366055,462.0,1.244138850918490061862250905366055
35,490.850002431120212801575816548622225,489.6,1.250002431120212801575816548622225
36,519.255699623080201006146292947904682,518.0,1.255699623080201006146292947904682
37,548.461239625325625799252376540273751,547.2,1.261239625325625799252376540273751
38,578.466630893211777134407362895569138,577.2,1.266630893211777134407362895569138
39,609.271881216946411142955069913558361,608.0,1.271881216946411142955069913558361
40,640.876997789630410532998368340651182,639.6,1.276997789630410532998368340651182
41,673.281987266810089469938353607348230,672.0,1.281987266810089469938353607348230
42,706.486855818781481767817626228003969,705.2,1.286855818781481767817626228003969
43,740.491609176680464875762650499271118,739.2,1.291609176680464875762650499271118
44,775.296252673224478128331409909162875,774.0,1.296252673224478128331409909162875
45,810.900791278834024159588879875968304,809.6,1.300791278834024159588879875968304
46,847.305229633749006098150939192456533,846.0,1.305229633749006098150939192456533
47,884.509572076661476548115895848415448,883.2,1.309572076661476548115895848415448
48,922.513822670308787996563354210163569,921.2,1.313822670308787996563354210163569
49,961.317985224406471744411068573338237,960.0,1.317985224406471744411068573338237
50,1000.92206331624604974377351870980405,999.6,1.32206331624604974377351870980405
51,1041.32606030923751676249887172655660,1040.0,1.32606030923751676249887172655660
52,1082.52997936963788508226615934075882,1081.2,1.32997936963788508226615934075882
53,1124.53382348167473381808239684460059,1123.2,1.33382348167473381808239684460059
54,1167.33759546124614381556657244990145,1166.0,1.33759546124614381556657244990145
55,1210.94129796835492358989839372347231,1209.6,1.34129796835492358989839372347231
56,1255.34493351841495720018697080790567,1254.0,1.34493351841495720018697080790567
57,1300.54850449255030598789764893853837,1299.2,1.34850449255030598789764893853837
58,1346.55201314699289892168611520058482,1345.2,1.35201314699289892168611520058482
59,1393.35546162167189234371521346930657,1392.0,1.35546162167189234371521346930657
60,1440.95885194807675540482904866203716,1439.6,1.35885194807675540482904866203716
61,1489.36218605646657324845548713830486,1488.0,1.36218605646657324845548713830486
62,1538.56546578248975899799572285035420,1537.2,1.36546578248975899799572285035420
63,1588.56869287327112371343985152953363,1587.2,1.36869287327112371343985152953363
64,1639.37186899301694100302605363691704,1638.0,1.37186899301694100302605363691704
65,1690.97499572818310813578885114211635,1689.6,1.37499572818310813578885114211635
66,1743.37807459224665816178831691784582,1742.0,1.37807459224665816178831691784582
67,1796.58110703011661525548682104271227,1795.2,1.38110703011661525548682104271227
68,1850.58409442221642933693175799595515,1849.2,1.38409442221642933693175799595515
69,1905.38703808826691335467626523302128,1904.0,1.38703808826691335467626523302128
70,1960.98993929079567834610618806497836,1959.6,1.38993929079567834610618806497836
71,2017.39279923839646268711075985323782,2016.0,1.39279923839646268711075985323782
72,2074.59561908875945370065474594777369,2073.2,1.39561908875945370065474594777369
73,2132.59839995149164678740659987200801,2131.2,1.39839995149164678740659987200801
74,2191.40114289074446839302449838606830,2190.0,1.40114289074446839302449838606830
75,2251.00384892766425802559928206986802,2249.6,1.40384892766425802559928206986802
76,2311.40651904267975497999815481644456,2310.0,1.40651904267975497999815481644456
77,2372.60915417763943302743499966277711,2371.2,1.40915417763943302743499966277711
78,2434.61175523781036053041304092632057,2433.2,1.41175523781036053041304092632057
79,2497.41432309374921662319338976600515,2496.0,1.41432309374921662319338976600515
80,2561.01685858305515597229858995599941,2559.6,1.41685858305515597229858995599941
81,2625.41936251201336529008375081041450,2624.0,1.41936251201336529008375081041450
82,2690.62183565713739332385432215155785,2689.2,1.42183565713739332385432215155785
83,2756.62427876661764730921993610032355,2755.2,1.42427876661764730921993610032355
84,2823.42669256168282458465763055862756,2822.0,1.42669256168282458465763055862756
85,2891.02907773788048878808408235981116,2889.6,1.42907773788048878808408235981116
86,2959.43143496628248419084715690808704,2958.0,1.43143496628248419084715690808704
87,3028.63376489462042425374724705326779,3027.2,1.43376489462042425374724705326779
88,3098.63606814835606711196312542499275,3097.2,1.43606814835606711196312542499275
89,3169.43834533169100719359556365511598,3168.0,1.43834533169100719359556365511598
90,3241.04059702851976895981268897677368,3239.6,1.44059702851976895981268897677368
91,3313.44282380333006730253035931022434,3312.0,1.44282380333006730253035931022434
92,3386.64502620205371083802166949507421,3385.2,1.44502620205371083802166949507421
93,3460.64720475287136207979411864498521,3459.2,1.44720475287136207979411864498521
94,3535.44935996697412554533481288760384,3534.0,1.44935996697412554533481288760384
95,3611.05149233928471369729509970278981,3609.6,1.45149233928471369729509970278981
96,3687.45360234914073879756956118703091,3686.0,1.45360234914073879756956118703091
97,3764.65569046094249441061473760439387,3763.2,1.45569046094249441061473760439387
98,3842.65775712476741741805816116710649,3841.2,1.45775712476741741805816116710649
99,3921.45980277695326793445924892451823,3920.0,1.45980277695326793445924892451823
100,4001.06182784065191817366743877348741,3999.6,1.46182784065191817366743877348741
101,4081.46383272635551201106853261642439,4080.0,1.46383272635551201106853261642439
102,4162.66581783239663141228910857886910,4161.2,1.46581783239663141228910857886910
103,4244.66778354542399798531593922748168,4243.2,1.46778354542399798531593922748168
104,4327.46973024085513064827706353277883,4326.0,1.46973024085513064827706353277883
105,4411.07165828330728733137408738621915,4409.6,1.47165828330728733137408738621915
106,4495.47356802700792786721171021762593,4494.0,1.47356802700792786721171021762593
107,4580.67545981618585714181501523500939,4579.2,1.47545981618585714181501523500939
108,4666.67733398544412833907063062008063,4665.2,1.47733398544412833907063062008063
109,4753.47919086011571751779380677121547,4752.0,1.47919086011571751779380677121547
110,4841.08103075660291834049828560682135,4839.6,1.48103075660291834049828560682135
111,4929.48285398270133991174738547069845,4928.0,1.48285398270133991174738547069845
112,5018.68466083790934125033125204449658,5017.2,1.48466083790934125033125204449658
113,5108.68645161372368038372108612314845,5107.2,1.48645161372368038372108612314845
114,5199.48822659392210729549490851160292,5198.0,1.48822659392210729549490851160292
115,5291.08998605483358950792678244409303,5289.6,1.48998605483358950792678244409303
116,5383.49173026559681075028324242663488,5382.0,1.49173026559681075028324242663488
117,5476.69345948840755145036386195477156,5475.2,1.49345948840755145036386195477156
118,5570.69517397875551875571739302810767,5569.2,1.49517397875551875571739302810767
119,5665.49687398565116007724854713900626,5664.0,1.49687398565116007724854713900626
120,5761.09855975184296830569555471588753,5759.6,1.49855975184296830569555471588753
121,5857.50023151402574858421440622270559,5856.0,1.50023151402574858421440622270559
122,5954.70188950304029760717287355394169,5953.2,1.50188950304029760717287355394169
123,6052.70353394406491422232542514883472,6051.2,1.50353394406491422232542514883472
124,6151.50516505679914243373150328106396,6150.0,1.50516505679914243373150328106396
125,6251.10678305564011833651653648069856,6249.6,1.50678305564011833651653648069856
126,6351.50838814985187731727743897263543,6350.0,1.50838814985187731727743897263543
127,6452.70998054372795727604804564073625,6451.2,1.50998054372795727604804564073625
128,6554.71156043674761103854998664211216,6553.2,1.51156043674761103854998664211216
129,6657.51312802372592905421641529207320,6656.0,1.51312802372592905421641529207320
130,6761.11468349495815509360873678995075,6759.6,1.51468349495815509360873678995075
131,6865.51622703635846225472841399191404,6864.0,1.51622703635846225472841399191404
132,6970.71775882959344161052521802886408,6969.2,1.51775882959344161052521802886408
133,7076.71927905221054404831909539759633,7075.2,1.51927905221054404831909539759633
134,7183.52078787776170457589429732792655,7182.0,1.52078787776170457589429732792655
135,7291.12228547592236026068169581306383,7289.6,1.52228547592236026068169581306383
136,7399.52377201260606928091489200274005,7398.0,1.52377201260606928091489200274005
137,7508.72524765007492525970226840183861,7507.2,1.52524765007492525970226840183861
138,7618.72671254704594744096634781416511,7617.2,1.52671254704594744096634781416511
139,7729.52816685879362516029639988730006,7728.0,1.52816685879362516029639988730006
140,7841.12961073724877961779181092567522,7839.6,1.52961073724877961779181092567522
141,7953.53104433109390140248385703880624,7952.0,1.53104433109390140248385703880624
142,8066.73246778585511414465652122018758,8065.2,1.53246778585511414465652122018758
143,8180.73388124399090602221750609917464,8179.2,1.53388124399090602221750609917464
144,8295.53528484497776366763385153502133,8294.0,1.53528484497776366763385153502133
145,8411.13667872539283883418726342245771,8409.6,1.53667872539283883418726342245771
146,8527.53806301899377031155351716337299,8526.0,1.53806301899377031155351716337299
147,8644.73943785679577537774417392250836,8643.2,1.53943785679577537774417392250836
148,8762.74080336714612611641556084187015,8761.2,1.54080336714612611641556084187015
149,8881.54215967579611240047570860880531,8880.0,1.54215967579611240047570860880531
150,9001.14350690597059518284272466932697,8999.6,1.54350690597059518284272466932697
151,9121.54484517843524600858433604895758,9120.0,1.54484517843524600858433604895758
152,9242.74617461156156304758363329459982,9241.2,1.54617461156156304758363329459982
153,9364.74749532138975259739950848191092,9363.2,1.54749532138975259739950848191092
154,9487.54880742168955995553807105480060,9486.0,1.54880742168955995553807105480060
155,9611.15011102401912789710181940104275,9609.6,1.55011102401912789710181940104275
156,9735.55140623778196062415315711688640,9734.0,1.55140623778196062415315711688640
157,9860.75269317028206423336868526728344,9859.2,1.55269317028206423336868526728344
158,9986.75397192677733552005848005964515,9985.2,1.55397192677733552005848005964515
159,10113.5552426105312627913564049161992,10112.0,1.5552426105312627913564049161992
160,10241.1565053228630050260918332657316,10239.6,1.5565053228630050260918332657316
161,10369.5577601631959078774344561650675,10368.0,1.5577601631959078774344561650675
162,10498.7590072291045159793841887184911,10497.2,1.5590072291045159793841887184911
163,10628.7602466163601364103761360385576,10627.2,1.5602466163601364103761360385576
164,10759.5614784189750079505663757218272,10758.0,1.5614784189750079505663757218272
165,10891.1627027292451247329868271434910,10889.6,1.5627027292451247329868271434910
166,11023.5639196377917648041285508615917,11022.0,1.5639196377917648041285508615917
167,11156.7651292336017708262436873590375,11155.2,1.5651292336017708262436873590375
168,11290.7663316040666256102502429041824,11289.2,1.5663316040666256102502429041824
169,11425.5675268350203675413007992865207,11424.0,1.5675268350203675413007992865207
170,11561.1687150107763856401018013618665,11559.6,1.5687150107763856401018013618665
171,11697.5698962141631344544146142712685,11696.0,1.5698962141631344544146142712685
172,11834.7710705265588066473670697794675,11833.2,1.5710705265588066473670697794675
173,11972.7722380279249986848768209574714,11971.2,1.5722380279249986848768209574714
174,12111.5733987968394054656712084363427,12110.0,1.5733987968394054656712084363427
175,12251.1745529105275778788072365289585,12249.6,1.5745529105275778788072365289585
176,12391.5757004448937729950150457843467,12390.0,1.5757004448937729950150457843467
177,12532.7768414745509301523730039988295,12531.2,1.5768414745509301523730039988295
178,12674.7779760728498020906811862712398,12673.2,1.5779760728498020906811862712398
179,12817.5791043119072675794495814575878,12816.0,1.5791043119072675794495814575878
180,12961.1802262626338564858705360314527,12959.6,1.5802262626338564858705360314527
181,13105.5813419947605099313320578766060,13104.0,1.5813419947605099313320578766060
182,13250.7824515768646032318278644016238,13249.2,1.5824515768646032318278644016238
183,13396.7835550763952546715085719925451,13395.2,1.5835550763952546715085719925451
184,13543.5846525596979443508804024553974,13542.0,1.5846525596979443508804024553974
185,13691.1857440920384649177452468867118,13689.6,1.5857440920384649177452468867118
186,13839.5868297376262251494713763388083,13838.0,1.5868297376262251494713763388083
187,13988.7879095596369301870626750217716,13987.2,1.5879095596369301870626750217716
188,14138.7889836202346538573106188287356,14137.2,1.5889836202346538573106188287356
189,14289.5900519805933268140867518938788,14288.0,1.5900519805933268140867518938788
190,14441.1911147009176561498200975403730,14439.6,1.5911147009176561498200975403730
191,14593.5921718404634956996777265263495,14592.0,1.5921718404634956996777265263495
192,14746.7932234575576834206173077283776,14745.2,1.5932234575576834206173077283776
193,14900.7942696096173641491247064555696,14899.2,1.5942696096173641491247064555696
194,15055.5953103531688110783838066336180,15054.0,1.5953103531688110783838066336180
195,15211.1963457438657638872012507140758,15209.6,1.5963457438657638872012507140758
196,15367.5973758365072972125495305299690,15366.0,1.5973758365072972125495305299690
197,15524.7984006850552338410122523203930,15523.2,1.5984006850552338410122523203930
198,15682.7994203426511167810734726734377,15681.2,1.5994203426511167810734726734377
199,15841.6004348616327530500672758411709,15840.0,1.6004348616327530500672758411709
200,16001.2014442935503431159492180227290,15999.6,1.6014442935503431159492180227290
201,16161.6024486891822069702691313209902,16160.0,1.6024486891822069702691313209902
202,16322.8034480985501202084574077045352,16321.2,1.6034480985501202084574077045352
203,16484.8044425709342707721073503080724,16483.2,1.6044425709342707721073503080724
204,16647.6054321548878479681159609509240,16646.0,1.6054321548878479681159609509240
205,16811.2064168982512737299957390034595,16809.6,1.6064168982512737299957390034595
206,16975.6073968481660891400553499551226,16974.0,1.6073968481660891400553499551226
207,17140.8083720510885020830751526338192,17139.2,1.6083720510885020830751526338192
208,17306.8093425528026102528831327387277,17305.2,1.6093425528026102528831327387277
209,17473.6103083984333052546594860299559,17472.0,1.6103083984333052546594860299559
210,17641.2112696324588692985696687663819,17639.6,1.6112696324588692985696687663819
211,17809.6122262987232718436830742722014,17808.0,1.6122262987232718436830742722014
212,17978.8131784404481764193001887756133,17977.2,1.6131784404481764193001887756133
213,18148.8141261002446620015769828713881,18147.2,1.6141261002446620015769828713881
214,18319.6150693201246739211307813209457,18318.0,1.6150693201246739211307813209457
215,18491.2160081415122035078531326291489,18489.6,1.6160081415122035078531326291489
216,18663.6169426052542104273809719000299,18662.0,1.6169426052542104273809719000299
217,18836.8178727516312916682622742829761,18835.2,1.6178727516312916682622742829761
218,19010.8187986203681061522599050922952,19009.2,1.6187986203681061522599050922952
219,19185.6197202506435582407233625766091,19184.0,1.6197202506435582407233625766091
220,19361.2206376811007526451498115012282,19359.6,1.6206376811007526451498115012282
221,19537.6215509498567186442178096730584,19536.0,1.6215509498567186442178096730584
222,19714.8224600945119208046525807614597,19713.2,1.6224600945119208046525807614597
223,19892.8233651521595497667474216971151,19891.2,1.6233651521595497667474216971151
224,20071.6242661593946081538326172649072,20070.0,1.6242661593946081538326172649072
225,20251.2251631523227941622276902325871,20249.6,1.6251631523227941622276902325871
226,20431.6260561665691863696106861108716,20430.0,1.6260561665691863696106861108716
227,20612.8269452372867384046441386752956,20611.2,1.6269452372867384046441386752956
228,20794.8278303991645852880498851822089,20793.2,1.6278303991645852880498851822089
229,20977.6287116864361685972690557694558,20976.0,1.6287116864361685972690557694558
230,21161.2295891328871851409364568959833,21159.6,1.6295891328871851409364568959833
231,21345.6304627718633609324247052076993,21344.0,1.6304627718633609324247052076993
232,21530.8313326362780608713636828691330,21529.2,1.6313326362780608713636828691330
233,21716.8321987586197291186243635873464,21715.2,1.6321987586197291186243635873464
234,21903.6330611709591763108174465753878,21902.0,1.6330611709591763108174465753878
235,22091.2339199049567067853911498036354,22089.6,1.6339199049567067853911498036354
236,22279.6347749918690955150806180894195,22278.0,1.6347749918690955150806180894195
237,22468.8356264625564183718200301562034,22467.2,1.6356264625564183718200301562034
238,22658.8364743474887374511118003643323,22657.2,1.6364743474887374511118003643323
