Eigenstate,Energy,Kinetic Energy,Potential Energy
1,0.500000000267221391234289847674837393,0.0,0.500000000267221391234289847674837393
2,1.84623093939541289109991053664945489,1.2,0.64623093939541289109991053664945489
3,3.93633761482878519202758506026363940,3.2,0.73633761482878519202758506026363940
4,6.79966528848676075225116698837517141,6.0,0.79966528848676075225116698837517141
5,10.4480465937731451968984156064724646,9.6,0.8480465937731451968984156064724646
6,14.8870660254788368837126903984629098,14.0,0.8870660254788368837126903984629098
7,20.1197208650592376670879175850007718,19.2,0.9197208650592376670879175850007718
8,26.1477838989006476174190481040208868,25.2,0.9477838989006476174190481040208868
9,32.9723836260150765012650563230776714,32.0,0.9723836260150765012650563230776714
10,40.5942803005550230600240448686208625,39.6,0.9942803005550230600240448686208625
11,49.0140094926645063643642239190077799,48.0,1.0140094926645063643642239190077799
12,58.2319622976506267044017556161228613,57.2,1.0319622976506267044017556161228613
13,68.2484328455813911451186627413433777,67.2,1.0484328455813911451186627413433777
14,79.0636478341420096502298016637670288,78.0,1.0636478341420096502298016637670288
15,90.6777856444491612350264245964760865,89.6,1.0777856444491612350264245964760865
16,103.090989145921490217250839308218284,102.0,1.090989145921490217250839308218284
17,116.303374529741144018757846757040708,115.2,1.103374529741144018757846757040708
18,130.315037559859995231321591341104643,129.2,1.115037559859995231321591341104643
19,145.126058096103634944674275137104435,144.0,1.126058096103634944674275137104435
20,160.736503431805320390822123315162798,159.6,1.136503431805320390822123315162798
21,177.146430799887680297654460976815295,176.0,1.146430799887680297654460976815295
22,194.355889284021461120428266797546235,193.2,1.155889284021461120428266797546235
23,212.364921296562056341999327680330765,211.2,1.164921296562056341999327680330765
24,231.173563735949932242764151274446000,230.0,1.173563735949932242764151274446000
25,250.781848903506557155891838418502479,249.6,1.181848903506557155891838418502479
26,271.189805237241991534579426759106614,270.0,1.189805237241991534579426759106614
27,292.397457904817465699069907699520122,291.2,1.197457904817465699069907699520122
28,314.404829286904421282703097052207703,313.2,1.204829286904421282703097052207703
29,337.211939374386464547538608713285436,336.0,1.211939374386464547538608713285436
30,360.818806097201192151663481306652350,359.6,1.218806097201192151663481306652350
31,385.225445598472911436590204850456821,384.0,1.225445598472911436590204850456821
32,410.431872464509377708592360623586083,409.2,1.231872464509377708592360623586083
33,436.438099918926023176518932003867190,435.2,1.238099918926023176518932003867190
34,463.244139987410605937180125553286110,462.0,1.244139987410605937180125553286110
35,490.850003638302012329760046643336009,489.6,1.250003638302012329760046643336009
36,519.255700903123467099203669780056862,518.0,1.255700903123467099203669780056862
37,548.461240980406321257768169684339510,547.2,1.261240980406321257768169684339510
38,578.466632325510168789073090458286176,577.2,1.266632325510168789073090458286176
39,609.271882728647194688144455720956724,608.0,1.271882728647194688144455720956724
40,640.876999382922836046375265260236155,639.6,1.276999382922836046375265260236155
41,673.281988943888087615799193669954738,672.0,1.281988943888087615799193669954738
42,706.486857581843790684935096242269233,705.2,1.286857581843790684935096242269233
43,740.491611027930757753040888189111396,739.2,1.291611027930757753040888189111396
44,775.296254614871491473709854881815810,774.0,1.296254614871491473709854881815810
45,810.900793313091686769424400159706753,809.6,1.300793313091686769424400159706753
46,847.305231762836568735830076137380883,846.0,1.305231762836568735830076137380883
47,884.509574302803642341951155739050505,883.2,1.309574302803642341951155739050505
48,922.513824995735843568151341585013401,921.2,1.313824995735843568151341585013401
49,961.317987651354419079607300019246947,960.0,1.317987651354419079607300019246947
50,1000.92206584695673881929548117243622,999.6,1.32206584695673881929548117243622
51,1041.32606294595877894192721099828215,1040.0,1.32606294595877894192721099828215
52,1082.52998211462366729588982191205763,1081.2,1.32998211462366729588982191205763
53,1124.53382633718523354164223062184513,1123.2,1.33382633718523354164223062184513
54,1167.33759842954794486350453873343567,1166.0,1.33759842954794486350453873343567
55,1210.94130105172113273922570111921877,1209.6,1.34130105172113273922570111921877
56,1255.34493671912534166155214562221615,1254.0,1.34493671912534166155214562221615
57,1300.54850781289143174087090638877025,1299.2,1.34850781289143174087090638877025
58,1346.55201658925826993168664806291165,1345.2,1.35201658925826993168664806291165
59,1393.35546518816209067839456168016556,1392.0,1.35546518816209067839456168016556
60,1440.95885564109958226809405011204736,1439.6,1.35885564109958226809405011204736
61,1489.36218987833719095066915337426088,1488.0,1.36218987833719095066915337426088
62,1538.56546973553083388123811193204893,1537.2,1.36546973553083388123811193204893
63,1588.56869695981297005104471928481550,1587.2,1.36869695981297005104471928481550
64,1639.37187321539766589293539423414778,1638.0,1.37187321539766589293539423414778
65,1690.97500008874875740758952175479516,1689.6,1.37500008874875740758952175479516
66,1743.37807909335136331761085558795916,1742.0,1.37807909335136331761085558795916
67,1796.58111167412274146526166796497220,1795.2,1.38111167412274146526166796497220
68,1850.58409921149472450880982971451107,1849.2,1.38409921149472450880982971451107
69,1905.38704302519665830173469972297931,1904.0,1.38704302519665830173469972297931
70,1960.98994437776483807077010529901607,1959.6,1.38994437776483807077010529901607
71,2017.39280447780183880503778950748807,2016.0,1.39280447780183880503778950748807
72,2074.59562448300683802614220645640930,2073.2,1.39562448300683802614220645640930
73,2132.59840550299597610270073440375728,2131.2,1.39840550299597610270073440375728
74,2191.40114860192998042423041693936164,2190.0,1.40114860192998042423041693936164
75,2251.00385480096464864821557828254534,2249.6,1.40385480096464864821557828254534
76,2311.40652508053833667742682061542662,2310.0,1.40652508053833667742682061542662
77,2372.60916038250929462615076473552385,2371.2,1.40916038250929462615076473552385
78,2434.61176161215452823581292333142168,2433.2,1.41176161215452823581292333142168
79,2497.41432964004081638048987339640769,2496.0,1.41432964004081638048987339640769
80,2561.01686530377757717716642721029602,2559.6,1.41686530377757717716642721029602
81,2625.41936940966042587412506673641582,2624.0,1.41936940966042587412506673641582
82,2690.62184273421350624030533165659309,2689.2,1.42184273421350624030533165659309
83,2756.62428602563798844468844561785243,2755.2,1.42428602563798844468844561785243
84,2823.42670000517350212305309399758556,2822.0,1.42670000517350212305309399758556
85,2891.02908536837871405328108650156291,2889.6,1.42908536837871405328108650156291
86,2959.43144278633674399500902523029329,2958.0,1.43144278633674399500902523029329
87,3028.63377290679065477863126491420413,3027.2,1.43377290679065477863126491420413
88,3098.63607635521382935092918575509065,3097.2,1.43607635521382935092918575509065
89,3169.43835373581966398244970779187976,3168.0,1.43835373581966398244970779187976
90,3241.04060563251466362503348962649311,3239.6,1.44060563251466362503348962649311
91,3313.44283260979870395585293285495571,3312.0,1.44283260979870395585293285495571
92,3386.64503521361593634678675767064978,3385.2,1.44503521361593634678675767064978
93,3460.64721397215954974291337072833863,3459.2,1.44721397215954974291337072833863
94,3535.44936939663336050517488954806175,3534.0,1.44936939663336050517488954806175
95,3611.05150198197298011824450813231970,3609.6,1.45150198197298011824450813231970
96,3687.45361220752910884252197401669160,3686.0,1.45361220752910884252197401669160
97,3764.65570053771531904708405340036060,3763.2,1.45570053771531904708405340036060
98,3842.65776742262251908612892353972160,3841.2,1.45776742262251908612892353972160
99,3921.45981329860213510927838568550406,3920.0,1.45981329860213510927838568550406
100,4001.06183858881990185569194762728260,3999.6,1.46183858881990185569194762728260
101,4081.46384370378202417780699268127202,4080.0,1.46384370378202417780699268127202
102,4162.66582904183534546580614315265180,4161.2,1.46582904183534546580614315265180
103,4244.66779498964305123031177925103565,4243.2,1.46779498964305123031177925103565
104,4327.46974192263732883611127025218373,4326.0,1.46974192263732883611127025218373
105,4411.07167020545031130596689023539414,4409.6,1.47167020545031130596689023539414
106,4495.47358019232454234933617977004364,4494.0,1.47358019232454234933617977004364
107,4580.67547222750412168888400388879801,4579.2,1.47547222750412168888400388879801
108,4666.67734664560761051812536540503114,4665.2,1.47734664560761051812536540503114
109,4753.47920377198370833001779176365929,4752.0,1.47920377198370833001779176365929
110,4841.08104392305064993620880828510622,4839.6,1.48104392305064993620880828510622
111,4929.48286740662020563545986711504362,4928.0,1.48286740662020563545986711504362
112,5018.68467452220711805614854169667366,5017.2,1.48467452220711805614854169667366
113,5108.68646556132475366196924496122351,5107.2,1.48646556132475366196924496122351
114,5199.48824080776769815221260498401857,5198.0,1.48824080776769815221260498401857
115,5291.09000053788198453951457017513326,5289.6,1.49000053788198453951457017513326
116,5383.49174502082359435633372019769107,5382.0,1.49174502082359435633372019769107
117,5476.69347451880584072842306330357842,5475.2,1.49347451880584072842306330357842
118,5570.69518928733620102247410862390804,5569.2,1.49518928733620102247410862390804
119,5665.49688957544313306140920503982466,5664.0,1.49688957544313306140920503982466
120,5761.09857562589338305858094430386838,5759.6,1.49857562589338305858094430386838
121,5857.50024767540025515490937668258404,5856.0,1.50024767540025515490937668258404
122,5954.70190595482329352987252895491769,5953.2,1.50190595482329352987252895491769
123,6052.70355068935979586435131551544433,6051.2,1.50355068935979586435131551544433
124,6151.50518209872855925353841066222023,6150.0,1.50518209872855925353841066222023
125,6251.10680039734623010187810613605743,6249.6,1.50680039734623010187810613605743
126,6351.50840579449661433472409561457684,6350.0,1.50840579449661433472409561457684
127,6452.70999849449328368353442469663164,6451.2,1.50999849449328368353442469663164
128,6554.71157869683579121425530720757820,6553.2,1.51157869683579121425530720757820
129,6657.51314659635979719532453796008293,6656.0,1.51314659635979719532453796008293
130,6761.11470238338138801988122168088362,6759.6,1.51470238338138801988122168088362
131,6865.51624624383585549267090622191523,6864.0,1.51624624383585549267090622191523
132,6970.71777835941118881495686317786102,6969.2,1.51777835941118881495686317786102
133,7076.71929890767651981918358796663743,7075.2,1.51929890767651981918358796663743
134,7183.52080806220575072920839198570584,7182.0,1.52080806220575072920839198570584
135,7291.12230599269657561359202817064545,7289.6,1.52230599269657561359202817064545
136,7399.52379286508510301193604672821651,7398.0,1.52379286508510301193604672821651
137,7508.72526884165627390633570647531115,7507.2,1.52526884165627390633570647531115
138,7618.72673408115025559805020184626962,7617.2,1.52673408115025559805020184626962
139,7729.52818873886498994361349336506157,7728.0,1.52818873886498994361349336506157
140,7841.12963296675505895866735689189279,7839.6,1.52963296675505895866735689189279
141,7953.53106691352702624033304251457736,7952.0,1.53106691352702624033304251457736
142,8066.73249072473140458570225937353498,8065.2,1.53249072473140458570225937353498
143,8180.73390454285139153388506686922299,8179.2,1.53390454285139153388506686922299
144,8295.53530850738850737944441262606463,8294.0,1.53530850738850737944441262606463
145,8411.13670275494526601731797275150173,8409.6,1.53670275494526601731797275150173
146,8527.53808741930500111060949549225786,8526.0,1.53808741930500111060949549225786
147,8644.73946263150896186969491491879183,8643.2,1.53946263150896186969491491879183
148,8762.74082851993079377308728617061214,8761.2,1.54082851993079377308728617061214
149,8881.54218521034850603246699660001550,8880.0,1.54218521034850603246699660001550
150,9001.14353282601402944423387233896651,8999.6,1.54353282601402944423387233896651
151,9121.54487148772046054335686755751213,9120.0,1.54487148772046054335686755751213
152,9242.74620131386708236024020309582084,9241.2,1.54620131386708236024020309582084
153,9364.74752242052225073189010250092027,9363.2,1.54752242052225073189010250092027
154,9487.54883492148423006824912960511975,9486.0,1.54883492148423006824912960511975
155,9611.15013892834005681135441688294423,9609.6,1.55013892834005681135441688294423
156,9735.55143455052250845538659220018519,9734.0,1.55143455052250845538659220018519
157,9860.75272189536524917595391546779821,9859.2,1.55272189536524917595391546779821
158,9986.75400106815622388849844885024942,9985.2,1.55400106815622388849844885024942
159,10113.5552721721893644104822402378655,10112.0,1.5552721721893644104822402378655
160,10241.1565353088146740667636313797047,10239.6,1.5565353088146740667636313797047
161,10369.5577905774867492361952219737834,10368.0,1.5577905774867492361952219737834
162,10498.7590380758117973025065560699166,10497.2,1.5590380758117973025065560699166
163,10628.7602778995932058647733322789187,10627.2,1.5602778995932058647733322789187
164,10759.5615101428757178461269850277276,10758.0,1.5615101428757178461269850277276
165,10891.1627348979882611030247561459378,10889.6,1.5627348979882611030247561459378
166,11023.5639522555854830528245067871051,11022.0,1.5639522555854830528245067871051
167,11156.7651623046880375541923427672955,11155.2,1.5651623046880375541923427672955
168,11290.7663651327216667315201685551904,11289.2,1.5663651327216667315201685551904
169,11425.5675608255551228077578093912068,11424.0,1.5675608255551228077578093912068
170,11561.1687494675369696911547017128880,11559.6,1.5687494675369696911547017128880
171,11697.5699311415313045128005375847025,11696.0,1.5699311415313045128005375847025
172,11834.7711059289524369841178440309952,11833.2,1.5711059289524369841178440309952
173,11972.7722739097985619791910030844309,11971.2,1.5722739097985619791910030844309
174,12111.5734351626844611880644069648621,12110.0,1.5734351626844611880644069648621
175,12251.1745897648732678286248015081616,12249.6,1.5745897648732678286248015081616
176,12391.5757377923073241261712088076272,12390.0,1.5757377923073241261712088076272
177,12532.7768793196381648240282873476652,12531.2,1.5768793196381648240282873476652
178,12674.7780144202556558824874970878001,12673.2,1.5780144202556558824874970878001
179,12817.5791431663163148139858078580325,12816.0,1.5791431663163148139858078580325
180,12961.1802656287708436039563200981065,12959.6,1.5802656287708436039563200981065
181,13105.5813818773908968690493383664856,13104.0,1.5813818773908968690493383664856
182,13250.7824919807951129513021832079668,13249.2,1.5824919807951129513021832079668
183,13396.7835960064744310008058296155680,13395.2,1.5835960064744310008058296155680
184,13543.5846940208167182917587220724925,13542.0,1.5846940208167182917587220724925
185,13691.1857860891307295834768370193069,13689.6,1.5857860891307295834768370193069
186,13839.5868722756694194985054321308782,13838.0,1.5868722756694194985054321308782
187,13988.7879526436526317219554562820305,13987.2,1.5879526436526317219554562820305
188,14138.7890272552891804620910742024174,14137.2,1.5890272552891804620910742024174
189,14289.5900961717983479070670941674497,14288.0,1.5900961717983479070670941674497
190,14441.1911594534308133328007108414772,14439.6,1.5911594534308133328007108414772
191,14593.5922171594890330885367392128740,14592.0,1.5922171594890330885367392128740
192,14746.7932693483470878464210130165618,14745.2,1.5932693483470878464210130165618
193,14900.7943160774700154231488360222138,14899.2,1.5943160774700154231488360222138
194,15055.5953574034326425188001619738182,15054.0,1.5953574034326425188001619738182
195,15211.1963933819379333096633226111031,15209.6,1.5963933819379333096633226111031
196,15367.5974240678348685915068457858627,15366.0,1.5974240678348685915068457858627
197,15524.7984495151358698533009884678162,15523.2,1.5984495151358698533009884678162
198,15682.7994697770337824481720913450311,15681.2,1.5994697770337824481720913450311
199,15841.6004849059184307003778253620589,15840.0,1.6004849059184307003778253620589
200,16001.2014949533927588935662856653029,15999.6,1.6014949533927588935662856653029
201,16161.6024999702885691219364865937239,16160.0,1.6024999702885691219364865937239
202,16322.8035000066818693857954436068386,16321.2,1.6035000066818693857954436068386
203,16484.8044951119078425917122610581033,16483.2,1.6044951119078425917122610581033
204,16647.6054853345754480778086759667335,16646.0,1.6054853345754480778086759667335
205,16811.2064707225816656353213648485898,16809.6,1.6064707225816656353213648485898
206,16975.6074513231253950511203148130914,16974.0,1.6074513231253950511203148130914
207,17140.8084271827210170479546528108549,17139.2,1.6084271827210170479546528108549
208,17306.8093983472116298501468935596774,17305.2,1.6093983472116298501468935596774
209,17473.6103648617819671240520510178751,17472.0,1.6103648617819671240520510178751
210,17641.2113267709710087955486389597568,17639.6,1.6113267709710087955486389597568
211,17809.6122841186842921103670396970952,17808.0,1.6122841186842921103670396970952
212,17978.8132369482059331714210322222420,17977.2,1.6132369482059331714210322222420
213,18148.8141853022103633382681608659395,18147.2,1.6141853022103633382681608659395
214,18319.6151292227737954718179456276629,18318.0,1.6151292227737954718179456276629
215,18491.2160687513854192381636187346587,18489.6,1.6160687513854192381636187346587
216,18663.6170039289583394338489720756672,18662.0,1.6170039289583394338489720756672
217,18836.8179347958402612996879363822605,18835.2,1.6179347958402612996879363822605
218,19010.8188613918239318038951671207118,19009.2,1.6188613918239318038951671207118
219,19185.6197837561573401760046448459330,19184.0,1.6197837561573401760046448459330
220,19361.2207019275536902084885018350329,19359.6,1.6207019275536902084885018350329
221,19537.6216159442011422374042188433815,19536.0,1.6216159442011422374042188433815
222,19714.8225258437723420087320384855903,19713.2,1.6225258437723420087320384855903
223,19892.8234316634337300007974056470440,19891.2,1.6234316634337300007974056470440
224,20071.6243334398546462719186283861293,20070.0,1.6243334398546462719186283861293
225,20251.2252312092162333999524700348379,20249.6,1.6252312092162333999524700348379
226,20431.6261250072201410620958546123278,20430.0,1.6261250072201410620958546123278
227,20612.8270148690970409085217387377385,20611.2,1.6270148690970409085217387377385
228,20794.8279008296149535510921401923876,20793.2,1.6279008296149535510921401923876
229,20977.6287829230873948306557989914963,20976.0,1.6287829230873948306557989914963
230,21161.2296611833813460608785187546285,21159.6,1.6296611833813460608785187546285
231,21345.6305356439250500499142255203000,21344.0,1.6305356439250500499142255203000
232,21530.8314063377156433212492103273192,21529.2,1.6314063377156433212492103273192
233,21716.8322732973266195319959692227548,21715.2,1.6322732973266195319959692227548
234,21903.6331365549151402478636059727215,21902.0,1.6331365549151402478636059727215
235,22091.2339961422291862594625564775992,22089.6,1.6339961422291862594625564775992
236,22279.6348520906145591526788830840368,22278.0,1.6348520906145591526788830840368
237,22468.8357044310217367676423809264524,22467.2,1.6357044310217367676423809264524
238,22658.8365531940125842921263528343192,22657.2,1.6365531940125842921263528343192
