Eigenstate,Energy,Kinetic Energy,Potential Energy
1,0.500000000063207094644932440613379149,0.0,0.500000000063207094644932440613379149
2,1.84623093806369802319770599305806288,1.2,0.64623093806369802319770599305806288
3,3.93633761091690789051170530023553149,3.2,0.73633761091690789051170530023553149
4,6.79966528033856059089905045777774000,6.0,0.79966528033856059089905045777774000
5,10.4480465796583394683017402010754861,9.6,0.8480465796583394683017402010754861
6,14.8870660036365719642593483716310818,14.0,0.8870660036365719642593483716310818
7,20.1197208337140904508558749562024382,19.2,0.9197208337140904508558749562024382
8,26.1477838562692569756422436145536619,25.2,0.9477838562692569756422436145536619
9,32.9723835703091884903605112576111355,32.0,0.9723835703091884903605112576111355
10,40.5942802299830010640391185078836511,39.6,0.9942802299830010640391185078836511
11,49.0140094054321185340132423800274675,48.0,1.0140094054321185340132423800274675
12,58.2319621919614650521919332344553185,57.2,1.0319621919614650521919332344553185
13,68.2484327196370900465051537710850440,67.2,1.0484327196370900465051537710850440
14,79.0636476861423488354036285319721598,78.0,1.0636476861423488354036285319721598
15,90.6777854725920990278074178191733698,89.6,1.0777854725920990278074178191733698
16,103.090988948403152889351966669619388,102.0,1.090988948403152889351966669619388
17,116.303374304755786527421620187413566,115.2,1.103374304755786527421620187413566
18,130.315037305599942694847795189834956,129.2,1.115037305599942694847795189834956
19,145.126057810759210777295383221832754,144.0,1.126057810759210777295383221832754
20,160.736503113564764954136561980152622,159.6,1.136503113564764954136561980152622
21,177.146430446937062645419371939799052,176.0,1.146430446937062645419371939799052
22,194.355888894544585596968601874114000,193.2,1.155888894544585596968601874114000
23,212.364920868740365260648988729334335,211.2,1.164920868740365260648988729334335
24,231.173563267962405513827997102004298,230.0,1.173563267962405513827997102004298
25,250.781848393529609490080202184442673,249.6,1.181848393529609490080202184442673
26,271.189804683449367678599346297624239,270.0,1.189804683449367678599346297624239
27,292.397457305380134040406797739757717,291.2,1.197457305380134040406797739757717
28,314.404828639990466074728911319855332,313.2,1.204828639990466074728911319855332
29,337.211938678160976943529840522310210,336.0,1.211938678160976943529840522310210
30,360.818805349826160190154988490129070,359.6,1.218805349826160190154988490129070
31,385.225444798107109086011230761592580,384.0,1.225444798107109086011230761592580
32,410.431871609308253053079140960179032,409.2,1.231871609308253053079140960179032
33,436.438099007041585804901717590018016,435.2,1.238099007041585804901717590018016
34,463.244139016991313581793644720594847,462.0,1.244139016991313581793644720594847
35,490.850002607492656789771866840765437,489.6,1.250002607492656789771866840765437
36,519.255699810065059473760070297603803,518.0,1.255699810065059473760070297603803
37,548.461239823235976506808741484382979,547.2,1.261239823235976506808741484382979
38,578.466631102360989633711372259219736,577.2,1.266631102360989633711372259219736
39,609.271881437648154857713354479299653,608.0,1.271881437648154857713354479299653
40,640.876998022198662875338147775259917,639.6,1.276998022198662875338147775259917
41,673.281987511559143990536612941648531,672.0,1.281987511559143990536612941648531
42,706.486856076025956337784429536925973,705.2,1.286856076025956337784429536925973
43,740.491609446735309898777221846958581,739.2,1.291609446735309898777221846958581
44,775.296252956404984781822630448535884,774.0,1.296252956404984781822630448535884
45,810.900791575455832663995365478345231,809.6,1.300791575455832663995365478345231
46,847.305229944128114013499206543190469,846.0,1.305229944128114013499206543190469
47,884.509572401114247097325650913694919,883.2,1.309572401114247097325650913694919
48,922.513823009151958415032797899752649,921.2,1.313823009151958415032797899752649
49,961.317985577957161655556844319217027,960.0,1.317985577957161655556844319217027
50,1000.92206368482176956030346834187019,999.6,1.32206368482176956030346834187019
51,1041.32606069315617611328429192085842,1040.0,1.32606069315617611328429192085842
52,1082.52997976921780126475607847039083,1081.2,1.32997976921780126475607847039083
53,1124.53382389723464027626774520656653,1123.2,1.33382389723464027626774520656653
54,1167.33759589310519864355866028173691,1166.0,1.33759589310519864355866028173691
55,1210.94129841683271806123518896612501,1209.6,1.34129841683271806123518896612501
56,1255.34493398383152432302344509979638,1254.0,1.34493398383152432302344509979638
57,1300.54850497522612908627388500029072,1299.2,1.34850497522612908627388500029072
58,1346.55201364724892024309988134733199,1345.2,1.35201364724892024309988134733199
59,1393.35546213982952169325461790088086,1392.0,1.35546213982952169325461790088086
60,1440.95885248445787880614674725247463,1439.6,1.35885248445787880614674725247463
61,1489.36218661139356163188868743636181,1488.0,1.36218661139356163188868743636181
62,1538.56546635628547691615685047388327,1537.2,1.36546635628547691615685047388327
63,1588.56869346625893808462094023101273,1587.2,1.36869346625893808462094023101273
64,1639.37186960552072988277651216866072,1638.0,1.37186960552072988277651216866072
65,1690.97499636052726951704126515378649,1689.6,1.37499636052726951704126515378649
66,1743.37807524475611880392051870072574,1742.0,1.37807524475611880392051870072574
67,1796.58110770311683954272086848275829,1795.2,1.38110770311683954272086848275829
68,1850.58409511603342816648185236525609,1849.2,1.38409511603342816648185236525609
69,1905.38703880322725305506827217811101,1904.0,1.38703880322725305506827217811101
70,1960.98994002722648962610088507244041,1959.6,1.38994002722648962610088507244041
71,2017.39279999662544961567229649086281,2016.0,1.39279999662544961567229649086281
72,2074.59561986911490271841394826070221,2073.2,1.39561986911490271841394826070221
73,2132.59840075430243575007692150526377,2131.2,1.39840075430243575007692150526377
74,2191.40114371634007564723574822841021,2190.0,1.40114371634007564723574822841021
75,2251.00384977637477151762146071122048,2249.6,1.40384977637477151762146071122048
76,2311.40651991483588139783431050474245,2310.0,1.40651991483588139783431050474245
77,2372.60915507357250697676860222920950,2371.2,1.40915507357250697676860222920950
78,2434.61175615785235374490148403931040,2433.2,1.41175615785235374490148403931040
79,2497.41432403823274720960519775037171,2496.0,1.41432403823274720960519775037171
80,2561.01685955231349769099756968932048,2559.6,1.41685955231349769099756968932048
81,2625.41936350638045687136903483478036,2624.0,1.41936350638045687136903483478036
82,2690.62183667694784782067060732735766,2689.2,1.42183667694784782067060732735766
83,2756.62427981220676148675749644381728,2755.2,1.42427981220676148675749644381728
84,2823.42669363338658834736693343670150,2822.0,1.42669363338658834736693343670150
85,2891.02907883603559464463493539526679,2889.6,1.42907883603559464463493539526679
86,2959.43143609122633675756726057853018,2958.0,1.43143609122633675756726057853018
87,3028.63376604669114979708011113079082,3027.2,1.43376604669114979708011113079082
88,3098.63606932789252313049014255315070,3097.2,1.43606932789252313049014255315070
89,3169.43834653903279204017192464017445,3168.0,1.43834653903279204017192464017445
90,3241.04059826400723150437163874974724,3239.6,1.44059826400723150437163874974724
91,3313.44282506730431663611518517845745,3312.0,1.44282506730431663611518517845745
92,3386.64502749485662601860955763170016,3385.2,1.44502749485662601860955763170016
93,3460.64720607484560192048081634694022,3459.2,1.44720607484560192048081634694022
94,3535.44936131846313844545388688736893,3534.0,1.44936131846313844545388688736893
95,3611.05149372063274751705037857908191,3609.6,1.45149372063274751705037857908191
96,3687.45360376069285077676405509969783,3686.0,1.45360376069285077676405509969783
97,3764.65569190304456113206441238291035,3763.2,1.45569190304456113206441238291035
98,3842.65775859776614481628350478490429,3841.2,1.45775859776614481628350478490429
99,3921.45980428119620135025269952941779,3920.0,1.45980428119620135025269952941779
100,4001.06182937648745245513952892567543,3999.6,1.46182937648745245513952892567543
101,4081.46383429413290166178061771023126,4080.0,1.46383429413290166178061771023126
102,4162.66581943246600078708549436691187,4161.2,1.46581943246600078708549436691187
103,4244.66778517813635153447312486977631,4243.2,1.46778517813635153447312486977631
104,4327.46973190656236321059325700346685,4326.0,1.46973190656236321059325700346685
105,4411.07165998236219447682685684361748,4409.6,1.47165998236219447682685684361748
106,4495.47356975976421628981704703013085,4494.0,1.47356975976421628981704703013085
107,4580.67546158299815510332612253115823,4579.2,1.47546158299815510332612253115823
108,4666.67733578666799616416023583009746,4665.2,1.47733578666799616416023583009746
109,4753.47919269610765814136891397641918,4752.0,1.47919269610765814136891397641918
110,4841.08103262772038790780178493939497,4839.6,1.48103262772038790780178493939497
111,4929.48285588930275843190631484279814,4928.0,1.48285588930275843190631484279814
112,5018.68466278035410330401703603897442,5017.2,1.48466278035410330401703603897442
113,5108.68645359237216588559263887523536,5107.2,1.48645359237216588559263887523536
114,5199.48822860913569231210111807457898,5198.0,1.48822860913569231210111807457898
115,5291.08998810697465713175054301442145,5289.6,1.48998810697465713175054301442145
116,5383.49173235502876203061503841398830,5382.0,1.49173235502876203061503841398830
117,5476.69346161549481638169871481514103,5475.2,1.49346161549481638169871481514103
118,5570.69517614386356732437485781347304,5569.2,1.49517614386356732437485781347304
119,5665.49687618914651336692135127697566,5664.0,1.49687618914651336692135127697566
120,5761.09856199409320966263878895123561,5759.6,1.49856199409320966263878895123561
121,5857.50023379539953484279300985001022,5856.0,1.50023379539953484279300985001022
122,5954.70189182390737037649151147561576,5953.2,1.50189182390737037649151147561576
123,6052.70353630479611123467110555388451,6051.2,1.50353630479611123467110555388451
124,6151.50516745776640895556563442420332,6150.0,1.50516745776640895556563442420332
125,6251.10678549721651864275957681467869,6249.6,1.50678549721651864275957681467869
126,6351.50839063241160622963587110372003,6350.0,1.50839063241160622963587110372003
127,6452.70998306764635176613988913964145,6451.2,1.50998306764635176613988913964145
128,6554.71156300240116189659193918129268,6553.2,1.51156300240116189659193918129268
129,6657.51313063149229262404239055028985,6656.0,1.51313063149229262404239055028985
130,6761.11468614521616507479639463884844,6759.6,1.51468614521616507479639463884844
131,6865.51622972948814157261727979466125,6864.0,1.51622972948814157261727979466125
132,6970.71776156597601435491726075578385,6969.2,1.51776156597601435491726075578385
133,7076.71928183222844748165928993659479,7075.2,1.51928183222844748165928993659479
134,7183.52079070179860121173645708463604,7182.0,1.52079070179860121173645708463604
135,7291.12228834436315001325192734544682,7289.6,1.52228834436315001325192734544682
136,7399.52377492583690168659242910233494,7398.0,1.52377492583690168659242910233494
137,7508.72525060848321177124508633444821,7507.2,1.52525060848321177124508633444821
138,7618.72671555102037379531652230485704,7617.2,1.52671555102037379531652230485704
139,7729.52816990872416382080801048415445,7728.0,1.52816990872416382080801048415445
140,7841.12961383352670229173187995767913,7839.6,1.52961383352670229173187995767913
141,7953.53104747411179163466479617622118,7952.0,1.53104747411179163466479617622118
142,8066.73247097600687998806663862838400,8065.2,1.53247097600687998806663862838400
143,8180.73388448167179278652423921099187,8179.2,1.53388448167179278652423921099187
144,8295.53528813058436674644273647760516,8294.0,1.53528813058436674644273647760516
145,8411.13668205932311661194779070813742,8409.6,1.53668205932311661194779070813742
146,8527.53806640164705715101177139106359,8526.0,1.53806640164705715101177139106359
147,8644.73944128857279468885058944702443,8643.2,1.53944128857279468885058944702443
148,8762.74080684844900350760485162942638,8761.2,1.54080684844900350760485162942638
149,8881.54216320702838891324491539069452,8880.0,1.54216320702838891324491539069452
150,9001.14351048753724061056200004780634,8999.6,1.54351048753724061056200004780634
151,9121.54484881074267230048466280521455,9120.0,1.54484881074267230048466280521455
152,9242.74617829501763779887426695737194,9241.2,1.54617829501763779887426695737194
153,9364.74749905640381262647763080891964,9363.2,1.54749905640381262647763080891964
154,9487.54881120867242496926233655961504,9486.0,1.54881120867242496926233655961504
155,9611.15011486338311424511114497787383,9609.6,1.55011486338311424511114497787383
156,9735.55141012994089514322183826973161,9734.0,1.55141012994089514322183826973161
157,9860.75269711565129818279847399697223,9859.2,1.55269711565129818279847399697223
158,9986.75397592577375860911843806469239,9985.2,1.55397592577375860911843806469239
159,10113.5552466635733172997912861369296,10112.0,1.5552466635733172997912861369296
160,10241.1565094303707000187300290287086,10239.6,1.5565094303707000187300290287086
161,10369.5577643255908335139367695402961,10368.0,1.5577643255908335139367695402961
162,10498.7590114468098579201853836914111,10497.2,1.5590114468098579201853836914111
163,10628.7602508898006903198813992157169,10627.2,1.5602508898006903198813992157169
164,10759.5614827485771940986760733698661,10758.0,1.5614827485771940986760733698661
165,10891.1627071154370026960336784763387,10889.6,1.5627071154370026960336784763387
166,11023.5639240810030482663220788465278,11022.0,1.5639240810030482663220788465278
167,11156.7651337342638424827284076929671,11155.2,1.5651337342638424827284076929671
168,11290.7663361626125521728952791785005,11289.2,1.5663361626125521728952791785005
169,11425.5675314518849148483499384038269,11424.0,1.5675314518849148483499384038269
170,11561.1687196863960338708248644314253,11559.6,1.5687196863960338708248644314253
171,11697.5699009489760934499126859734923,11696.0,1.5699009489760934499126859734923
172,11834.7710753210050313386961569261827,11833.2,1.5710753210050313386961569261827
173,11972.7722428824462046296665952873433,11971.2,1.5722428824462046296665952873433
174,12111.5734037118790844944277930337204,12110.0,1.5734037118790844944277930337204
175,12251.1745578865310138521014370830468,12249.6,1.5745578865310138521014370830468
176,12391.5757054823080576727700864598993,12390.0,1.5757054823080576727700864598993
177,12532.7768465738249791764785436354738,12531.2,1.5768465738249791764785436354738
178,12674.7779812344343710821733687367070,12673.2,1.5779812344343710821733687367070
179,12817.5791095362549683515100175318303,12816.0,1.5791095362549683515100175318303
180,12961.1802315501991733739105079265544,12959.6,1.5802315501991733739105079265544
181,13105.5813473459998162414415461822799,13104.0,1.5813473459998162414415461822799
182,13250.7824569922361778088827460466099,13249.2,1.5824569922361778088827460466099
183,13396.7835605563592985882433347931167,13395.2,1.5835605563592985882433347931167
184,13543.5846581047165977192475268852540,13542.0,1.5846581047165977192475268852540
185,13691.1857497025758238238968568567880,13689.6,1.5857497025758238238968568567880
186,13839.5868354141483587137129300734165,13838.0,1.5868354141483587137129300734165
187,13988.7879153026118977501434020914465,13987.2,1.5879153026118977501434020914465
188,14138.7889894301325222944299059671242,14137.2,1.5889894301325222944299059671242
189,14289.5900578578861879780109922073873,14288.0,1.5900578578861879780109922073873
190,14441.1911206460796444445194978886919,14439.6,1.5911206460796444445194978886919
191,14593.5921778539708057859081167530760,14592.0,1.5921778539708057859081167530760
192,14746.7932295398885880548877027046125,14745.2,1.5932295398885880548877027046125
193,14900.7942757612522321575069924548679,14899.2,1.5942757612522321575069924548679
194,15055.5953165745901254666372201379751,15054.0,1.5953165745901254666372201379751
195,15211.1963520355581400887005484746964,15209.6,1.5963520355581400887005484746964
196,15367.5973821989575014755220921567790,15366.0,1.5973821989575014755220921567790
197,15524.7984071187522017566064256999960,15523.2,1.5984071187522017566064256999960
198,15682.7994268480859719537968953437045,15681.2,1.5994268480859719537968953437045
199,15841.6004414392988259121518928725660,15840.0,1.6004414392988259121518928725660
200,16001.2014509439431898872162435590949,15999.6,1.6014509439431898872162435590949
201,16161.6024554127996287650855022604135,16160.0,1.6024554127996287650855022604135
202,16322.8034548958921822913930970629698,16321.2,1.6034548958921822913930970629698
203,16484.8044494425033219639208446920862,16483.2,1.6044494425033219639208446920862
204,16647.6054391011885402037136474061746,16646.0,1.6054391011885402037136474061746
205,16811.2064239197905817700298066808364,16809.6,1.6064239197905817700298066808364
206,16975.6074039454533304378434804526067,16974.0,1.6074039454533304378434804526067
207,17140.8083792246353568085448515022774,17139.2,1.6083792246353568085448515022774
208,17306.8093498031231414752623192154123,17305.2,1.6093498031231414752623192154123
209,17473.6103157260439792856553982076426,17472.0,1.6103157260439792856553982076426
210,17641.2112770378785761977976179266678,17639.6,1.6112770378785761977976179266678
211,17809.6122337824733460881269493046957,17808.0,1.6122337824733460881269493046957
212,17978.8131860030524177386074472138244,17977.2,1.6131860030524177386074472138244
213,18148.8141337422293563810112841432270,18147.2,1.6141337422293563810112841432270
214,18319.6150770420186147740266298629656,18318.0,1.6150770420186147740266298629656
215,18491.2160159438467130194385500502943,18489.6,1.6160159438467130194385500502943
216,18663.6169504885631610718557561138789,18662.0,1.6169504885631610718557561138789
217,18836.8178807164511279010412390999495,18835.2,1.6178807164511279010412390999495
218,19010.8188066672378662793129312448194,19009.2,1.6188066672378662793129312448194
219,19185.6197283801048964669671755442584,19184.0,1.6197283801048964669671755442584
220,19361.2206458936979613038684958247108,19359.6,1.6206458936979613038684958247108
221,19537.6215592461367506095129476473480,19536.0,1.6215592461367506095129476473480
222,19714.8224684750244120889473411561049,19713.2,1.6224684750244120889473411561049
223,19892.8233736174568423053928527923482,19891.2,1.6233736174568423053928527923482
224,20071.6242747100317727788884966856405,20070.0,1.6242747100317727788884966856405
225,20251.2251717888576537675150260387908,20249.6,1.6251717888576537675150260387908
226,20431.6260648895623392691583654078231,20430.0,1.6260648895623392691583654078231
227,20612.8269540473015818866760655503702,20611.2,1.6269540473015818866760655503702
228,20794.8278392967673393666869218850185,20793.2,1.6278392967673393666869218850185
229,20977.6287206721958999641436749405694,20976.0,1.6287206721958999641436749405694
230,21161.2295982073758313189462197621077,21159.6,1.6295982073758313189462197621077
231,21345.6304719356557546338763209182843,21344.0,1.6304719356557546338763209182843
232,21530.8313418899519545627873647661945,21529.2,1.6313418899519545627873647661945
233,21716.8322081027558197945649908331395,21715.2,1.6322081027558197945649908331395
234,21903.6330706061411304789376161165148,21902.0,1.6330706061411304789376161165148
235,22091.2339294317711856652491273832268,22089.6,1.6339294317711856652491273832268
236,22279.6347846109057804529750567071114,22278.0,1.6347846109057804529750567071114
237,22468.8356361744080364741222827708363,22467.2,1.6356361744080364741222827708363
238,22658.8364841527510874385368662608627,22657.2,1.6364841527510874385368662608627
