Eigenstate,Energy,Kinetic Energy,Potential Energy
1,0.500000000077609736130999433329977952,0.0,0.500000000077609736130999433329977952
2,1.84623093815771140309789301199916256,1.2,0.64623093815771140309789301199916256
3,3.93633761119306662407009736003293146,3.2,0.73633761119306662407009736003293146
4,6.79966528091377345301040138251551253,6.0,0.79966528091377345301040138251551253
5,10.4480465806547385535886667724276138,9.6,0.8480465806547385535886667724276138
6,14.8870660051784348743443059545826573,14.0,0.8870660051784348743443059545826573
7,20.1197208359267073984411735097957946,19.2,0.9197208359267073984411735097957946
8,26.1477838592784593684081146174492822,25.2,0.9477838592784593684081146174492822
9,32.9723835742411306853038679499576581,32.0,0.9723835742411306853038679499576581
10,40.5942802349640504859433288417065289,39.6,0.9942802349640504859433288417065289
11,49.0140094115887968079435582047343444,48.0,1.0140094115887968079435582047343444
12,58.2319621994204151330956781292617873,57.2,1.0319621994204151330956781292617873
13,68.2484327285250575028688798114321757,67.2,1.0484327285250575028688798114321757
14,79.0636476965861712797393063715954000,78.0,1.0636476965861712797393063715954000
15,90.6777854847187004631285510391857509,89.6,1.0777854847187004631285510391857509
16,103.090988962339541144812080153102582,102.0,1.090988962339541144812080153102582
17,116.303374320629052704610996122975486,115.2,1.103374320629052704610996122975486
18,130.315037323537261963702037459161739,129.2,1.115037323537261963702037459161739
19,145.126057830887844102921262205998150,144.0,1.126057830887844102921262205998150
20,160.736503136012061481580747191844616,159.6,1.136503136012061481580747191844616
21,177.146430471830462559790879971685092,176.0,1.146430471830462559790879971685092
22,194.355888922011623333964664864359027,193.2,1.155888922011623333964664864359027
23,212.364920898908672980215566383051804,211.2,1.164920898908672980215566383051804
24,231.173563300959716774878462248061670,230.0,1.173563300959716774878462248061670
25,250.781848429483763081383309074092244,249.6,1.181848429483763081383309074092244
26,271.189804722488311572892074657744829,270.0,1.189804722488311572892074657744829
27,292.397457347631929447229372431320730,291.2,1.197457347631929447229372431320730
28,314.404828685583291573538147511142349,313.2,1.204828685583291573538147511142349
29,337.211938727223132683057657585451978,336.0,1.211938727223132683057657585451978
30,360.818805402486072143232079439856614,359.6,1.218805402486072143232079439856614
31,385.225444854493333351504467261670437,384.0,1.225444854493333351504467261670437
32,410.431871669549480198424796302219603,409.2,1.231871669549480198424796302219603
33,436.438099071266645244115357649362065,435.2,1.238099071266645244115357649362065
34,463.244139085329177984915113824265481,462.0,1.244139085329177984915113824265481
35,490.850002680072446520541519904065472,489.6,1.250002680072446520541519904065472
36,519.255699887016047052979270414589359,518.0,1.255699887016047052979270414589359
37,548.461239904687591099356874528684463,547.2,1.261239904687591099356874528684463
38,578.466631188442821557605167113638055,577.2,1.266631188442821557605167113638055
39,609.271881528489960113926045386036600,608.0,1.271881528489960113926045386036600
40,640.876998117930367697363983535452621,639.6,1.276998117930367697363983535452621
41,673.281987612310849412904025299296363,672.0,1.281987612310849412904025299296363
42,706.486856181927942782899384269771769,705.2,1.286856181927942782899384269771769
43,740.491609557918041781624895953379056,739.2,1.291609557918041781624895953379056
44,775.296253072999115132176899791469810,774.0,1.296253072999115132176899791469810
45,810.900791697592207765886563646486874,809.6,1.300791697592207765886563646486874
46,847.305230071937778061775113635442296,846.0,1.305230071937778061775113635442296
47,884.509572534728446871211694184308920,883.2,1.309572534728446871211694184308920
48,922.513823148702147968657525099220503,921.2,1.313823148702147968657525099220503
49,961.317985723575007025459754573773239,960.0,1.317985723575007025459754573773239
50,1000.92206383663915348998580294845433,999.6,1.32206383663915348998580294845433
51,1041.32606085130520279490081200655752,1040.0,1.32606085130520279490081200655752
52,1082.52997993383080109807806356125736,1081.2,1.32997993383080109807806356125736
53,1124.53382406844417464507535065041344,1123.2,1.33382406844417464507535065041344
54,1167.33759607104406470964511326820539,1166.0,1.33759607104406470964511326820539
55,1210.94129860163395357622656571028284,1209.6,1.34129860163395357622656571028284
56,1255.34493417562841245823648732963495,1254.0,1.34493417562841245823648732963495
57,1300.54850517415220328085085327103636,1299.2,1.34850517415220328085085327103636
58,1346.55201385343796907067420292641731,1345.2,1.35201385343796907067420292641731
59,1393.35546235341559374741417148147174,1392.0,1.35546235341559374741417148147174
60,1440.95885270557528760497343230582662,1439.6,1.35885270557528760497343230582662
61,1489.36218684017689054186365997400784,1488.0,1.36218684017689054186365997400784
62,1538.56546659286958409573043748798147,1537.2,1.36546659286958409573043748798147
63,1588.56869371077896144775512141005962,1587.2,1.36869371077896144775512141005962
64,1639.37186985811209208277597642257610,1638.0,1.37186985811209208277597642257610
65,1690.97499662132568295099659919267553,1689.6,1.37499662132568295099659919267553
66,1743.37807551389759063809403846221662,1742.0,1.37807551389759063809403846221662
67,1796.58110798073767675921212881017858,1795.2,1.38110798073767675921212881017858
68,1850.58409540227024263151603342446288,1849.2,1.38409540227024263151603342446288
69,1905.38703909821696660925642794324473,1904.0,1.38703909821696660925642794324473
70,1960.98994033110633919702649321302678,1959.6,1.38994033110633919702649321302678
71,2017.39280030953299235316388287930787,2016.0,1.39280030953299235316388287930787
72,2074.59562019118802115286852151278888,2073.2,1.39562019118802115286852151278888
73,2132.59840108567934297420388240391673,2131.2,1.39840108567934297420388240391673
74,2191.40114405715932052159555330968579,2190.0,1.40114405715932052159555330968579
75,2251.00385012677524390033798857991633,2249.6,1.40385012677524390033798857991633
76,2311.40652027495681739886424356431019,2310.0,1.40652027495681739886424356431019
77,2372.60915544355349423711554621771323,2371.2,1.40915544355349423711554621771323
78,2434.61175653783333674116684653664516,2433.2,1.41175653783333674116684653664516
79,2497.41432442835403258427208898739256,2496.0,1.41432442835403258427208898739256
80,2561.01685995271575960884808073548476,2559.6,1.41685995271575960884808073548476
81,2625.41936391720474240243950163958768,2624.0,1.41936391720474240243950163958768
82,2690.62183709833558235015353595727426,2689.2,1.42183709833558235015353595727426
83,2756.62428024429975415226289209269350,2755.2,1.42428024429975415226289209269350
84,2823.42669407632703750395992601468504,2822.0,1.42669407632703750395992601468504
85,2891.02907928996609335807065233534559,2889.6,1.42907928996609335807065233534559
86,2959.43143655628987832614793751221615,2958.0,1.43143655628987832614793751221615
87,3028.63376652303113330256363670692909,3027.2,1.43376652303113330256363670692909
88,3098.63606981565275901848327213891633,3097.2,1.43606981565275901848327213891633
89,3169.43834703835750773044553692660603,3168.0,1.43834703835750773044553692660603
90,3241.04059877504107703153957808439535,3239.6,1.44059877504107703153957808439535
91,3313.44282559019237032112248885669006,3312.0,1.44282559019237032112248885669006
92,3386.64502802974440017147993896675782,3385.2,1.44502802974440017147993896675782
93,3460.64720662187904857477770310380454,3459.2,1.44720662187904857477770310380454
94,3535.44936187778865512491350088576814,3534.0,1.44936187778865512491350088576814
95,3611.05149429239718303484969303834167,3609.6,1.45149429239718303484969303834167
96,3687.45360434504351106789096331710235,3686.0,1.45360434504351106789096331710235
97,3764.65569250012921511926168261669231,3763.2,1.45569250012921511926168261669231
98,3842.65775920773303031004274842055652,3841.2,1.45775920773303031004274842055652
99,3921.45980490419403098333908411721242,3920.0,1.45980490419403098333908411721242
100,4001.06183001266541965213245633840455,3999.6,1.46183001266541965213245633840455
101,4081.46383494364068664412038491438254,4080.0,1.46383494364068664412038491438254
102,4162.66582009545377661412055511556876,4161.2,1.46582009545377661412055511556876
103,4244.66778585475479018100739974676030,4243.2,1.46778585475479018100739974676030
104,4327.46973259696264168143776350747666,4326.0,1.46973259696264168143776350747666
105,4411.07166068669600095886480626890210,4409.6,1.47166068669600095886480626890210
106,4495.47357047818375634209647500934883,4494.0,1.47357047818375634209647500934883
107,4580.67546231565615788569931884563010,4579.2,1.47546231565615788569931884563010
108,4666.67733653371772070499414039804582,4665.2,1.47733653371772070499414039804582
109,4753.47919345770289964485596149079184,4752.0,1.47919345770289964485596149079184
110,4841.08103340401548410140585358964852,4839.6,1.48103340401548410140585358964852
111,4929.48285668045259595448374509858957,4928.0,1.48285668045259595448374509858957
112,5018.68466358651412413515818456215570,5017.2,1.48466358651412413515818456215570
113,5108.68645441369837381673475491079723,5107.2,1.48645441369837381673475491079723
114,5199.48822944578465945996900032637314,5198.0,1.48822944578465945996900032637314
115,5291.08998895910353049468704899040806,5289.6,1.48998895910353049468704899040806
116,5383.49173322279527008836914851494174,5382.0,1.49173322279527008836914851494174
117,5476.69346249905727573924481149096015,5475.2,1.49346249905727573924481149096015
118,5570.69517704338088940034252041824339,5569.2,1.49517704338088940034252041824339
119,5665.49687710477821112722124321333456,5664.0,1.49687710477821112722124321333456
120,5761.09856292599940439987597105080485,5759.6,1.49856292599940439987597105080485
121,5857.50023474374096300206536966257885,5856.0,1.50023474374096300206536966257885
122,5954.70189278884539042817717704442627,5953.2,1.50189278884539042817717704442627
123,6052.70353728649271059481495476970828,6051.2,1.50353728649271059481495476970828
124,6151.50516845638421095448151915898920,6150.0,1.50516845638421095448151915898920
125,6251.10678651291878954247144660229166,6249.6,1.50678651291878954247144660229166
126,6351.50839166536226229078743611083276,6350.0,1.50839166536226229078743611083276
127,6452.70998411800996636500931491206818,6451.2,1.50998411800996636500931491206818
128,6554.71156407034297269285485877569311,6553.2,1.51156407034297269285485877569311
129,6657.51313171717820877993329152725710,6656.0,1.51313171717820877993329152725710
130,6761.11468724881277452632562981782013,6759.6,1.51468724881277452632562981782013
131,6865.51623085116271835350803055175429,6864.0,1.51623085116271835350803055175429
132,6970.71776270589652597393396578850983,6969.2,1.51776270589652597393396578850983
133,7076.71928299056356235400628229088492,7075.2,1.51928299056356235400628229088492
134,7183.52079187871769614521326154796369,7182.0,1.52079187871769614521326154796369
135,7291.12228954003631774985905139681944,7289.6,1.52228954003631774985905139681944
136,7399.52377614043495850028902046960784,7398.0,1.52377614043495850028902046960784
137,7508.72525184217770512256793138263586,7507.2,1.52525184217770512256793138263586
138,7618.72671680398359004357750659436006,7617.2,1.52671680398359004357750659436006
139,7729.52817118112913599459519122938760,7728.0,1.52817118112913599459519122938760
140,7841.12961512554721791844765744626296,7839.6,1.52961512554721791844765744626296
141,7953.53104878592240062984261050155406,7952.0,1.53104878592240062984261050155406
142,8066.73247230778290260521632161945824,8065.2,1.53247230778290260521632161945824
143,8180.73388583358932762826439943927184,8179.2,1.53388583358932762826439943927184
144,8295.53528950282029883768737306288866,8294.0,1.53528950282029883768737306288866
145,8411.13668345205512553592292922851365,8409.6,1.53668345205512553592292922851365
146,8527.53806781505362524888691194115261,8526.0,1.53806781505362524888691194115261
147,8644.73944272283321532377883320551161,8643.2,1.53944272283321532377883320551161
148,8762.74080830374338939397454314610898,8761.2,1.54080830374338939397454314610898
149,8881.54216468353768051195514410657816,8880.0,1.54216468353768051195514410657816
150,9001.14351198544321459114357046342212,8999.6,1.54351198544321459114357046342212
151,9121.54485033022795007089790578339068,9120.0,1.54485033022795007089790578339068
152,9242.74617983626569410382456197734516,9241.2,1.54617983626569410382456197734516
153,9364.74750061959898421509960708766122,9363.2,1.54750061959898421509960708766122
154,9487.54881279399991933303355445096331,9486.0,1.54881279399991933303355445096331
155,9611.15011647102901842686629876713228,9609.6,1.55011647102901842686629876713228
156,9735.55141176009218461814895288614121,9734.0,1.55141176009218461814895288614121
157,9860.75269876849584581230876709994375,9859.2,1.55269876849584581230876709994375
158,9986.75397760150034366849251703677723,9985.2,1.55397760150034366849251703677723
159,10113.5552483623716345805148073728537,10112.0,1.5552483623716345805148073728537
160,10241.1565111524313690064431070670418,10239.6,1.5565111524313690064431070670418
161,10369.5577660711054076429325424714875,10368.0,1.5577660711054076429325424714875
162,10498.7590132159708339054042319844519,10497.2,1.5590132159708339054042319844519
163,10628.7602526828015175673590591455401,10627.2,1.5602526828015175673590591455401
164,10759.5614845656122841954153719736872,10758.0,1.5614845656122841954153719736872
165,10891.1627089567017389802813849678933,10889.6,1.5627089567017389802813849678933
166,11023.5639259466937954792445019237351,11022.0,1.5639259466937954792445019237351
167,11156.7651356245779565024913556123849,11155.2,1.5651356245779565024913556123849
168,11290.7663380777483898321665595853233,11289.2,1.5663380777483898321665595853233
169,11425.5675333920418438362548870558046,11424.0,1.5675333920418438362548870558046
170,11561.1687216517744427203984685844175,11559.6,1.5687216517744427203984685844175
171,11697.5699029397774016121043423920553,11696.0,1.5699029397774016121043423920553
172,11834.7710773374316993439967272560849,11833.2,1.5710773374316993439967272560849
173,11972.7722449247017443384402370646533,11971.2,1.5722449247017443384402370646533
174,12111.5734057801680694370450400239105,12110.0,1.5734057801680694370450400239105
175,12251.1745599810590896599834256497557,12249.6,1.5745599810590896599834256497557
176,12391.5757076032819526014679846938605,12390.0,1.5757076032819526014679846938605
177,12532.7768487214525147219260977900262,12531.2,1.5768487214525147219260977900262
178,12674.7779834089244726912653535067325,12673.2,1.5779834089244726912653535067325
179,12817.5791117378176762281733316540908,12816.0,1.5791117378176762281733316540908
180,12961.1802337790456533818501053148555,12959.6,1.5802337790456533818501053148555
181,13105.5813496023423709047580821796256,13104.0,1.5813496023423709047580821796256
182,13250.7824592762882574117740344982398,13249.2,1.5824592762882574117740344982398
183,13396.7835628683355123750175255185221,13395.2,1.5835628683355123750175255185221
184,13543.5846604448327251958913509999310,13542.0,1.5846604448327251958913509999310
185,13691.1857520710488261624589379708113,13689.6,1.5857520710488261624589379708113
186,13839.5868378111963902607770958057887,13838.0,1.5868378111963902607770958057887
187,13988.7879177284543176406849347823532,13987.2,1.5879177284543176406849347823532
188,14138.7889918849899061723635249249321,14137.2,1.5889918849899061723635249249321
189,14289.5900603419803398247563863290646,14288.0,1.5900603419803398247563863290646
190,14441.1911231596336085169277941857744,14439.6,1.5911231596336085169277941857744
191,14593.5921803972088786649104527430219,14592.0,1.5921803972088786649104527430219
192,14746.7932321130363308062440054818471,14745.2,1.5932321130363308062440054818471
193,14900.7942783645364826060522989227345,14899.2,1.5942783645364826060522989227345
194,15055.5953192082390105854399842994561,15054.0,1.5953192082390105854399842994561
195,15211.1963546998010885045674181389862,15209.6,1.5963546998010885045674181389862
196,15367.5973848940252560923014114751753,15366.0,1.5973848940252560923014114751753
197,15524.7984098448768324977626305363152,15523.2,1.5984098448768324977626305363152
198,15682.7994296055008886257473908941874,15681.2,1.5994296055008886257473908941874
199,15841.6004442282387911898778764481209,15840.0,1.6004442282387911898778764481209
200,16001.2014537646443324236790933110046,15999.6,1.6014537646443324236790933110046
201,16161.6024582654994564260003316172386,16160.0,1.6024582654994564260003316172386
202,16322.8034577808295955169332751831646,16321.2,1.6034577808295955169332751831646
203,16484.8044523599186272589464983581915,16483.2,1.6044523599186272589464983581915
204,16647.6054420513234637581407627184940,16646.0,1.6054420513234637581407627184940
205,16811.2064269028882832109764333685576,16809.6,1.6064269028882832109764333685576
206,16975.6074069617584167152127803663229,16974.0,1.6074069617584167152127803663229
207,17140.8083822743938962157273736461986,17139.2,1.6083822743938962157273736461986
208,17306.8093528865826778066617929710503,17305.2,1.6093528865826778066617929710503
209,17473.6103188434535461327667853530523,17472.0,1.6103188434535461327667853530523
210,17641.2112801894887113855888220100663,17639.6,1.6112801894887113855888220100663
211,17809.6122369685361062535000970007207,17808.0,1.6122369685361062535000970007207
212,17978.8131892238213930527396856543107,17977.2,1.6131892238213930527396856543107
213,18148.8141369979596854174001713303244,18147.2,1.6141369979596854174001713303244
214,18319.6150803329669995240901124328748,18318.0,1.6150803329669995240901124328748
215,18491.2160192702714340575449829863029,18489.6,1.6160192702714340575449829863029
216,18663.6169538507240928716857978921030,18662.0,1.6169538507240928716857978921030
217,18836.8178841146097543052093976095812,18835.2,1.6178841146097543052093976095812
218,19010.8188101016572961242036509029112,19009.2,1.6188101016572961242036509029112
219,19185.6197318510498793647674939513355,19184.0,1.6197318510498793647674939513355
220,19361.2206494014349035838069919694733,19359.6,1.6206494014349035838069919694733
221,19537.6215627909337314203428178129881,19536.0,1.6215627909337314203428178129881
222,19714.8224720571511996647404171733045,19713.2,1.6224720571511996647404171733045
223,19892.8233772371849103967396235832792,19891.2,1.6233772371849103967396235832792
224,20071.6242783676343172516296105046878,20070.0,1.6242783676343172516296105046878
225,20251.2251754846096093711593581020690,20249.6,1.6251754846096093711593581020690
226,20431.6260686237403965771731886872267,20430.0,1.6260686237403965771731886872267
227,20612.8269578201842044108660430751141,20611.2,1.6269578201842044108660430751141
228,20794.8278431086347808479099535754378,20793.2,1.6278431086347808479099535754378
229,20977.6287245233302218416443029293622,20976.0,1.6287245233302218416443029293622
230,21161.2296020980609203806186657869659,21159.6,1.6296020980609203806186657869659
231,21345.6304758661773408498038111185227,21344.0,1.6304758661773408498038111185227
232,21530.8313458605976291044366715345816,21529.2,1.6313458605976291044366715345816
233,21716.8322121138150532420503622786713,21715.2,1.6322121138150532420503622786713
234,21903.6330746579052912188025249940404,21902.0,1.6330746579052912188025249940404
235,22091.2339335245335584812498753993105,22089.6,1.6339335245335584812498753993105
236,22279.6347887449615853123856055910365,22278.0,1.6347887449615853123856055910365
237,22468.8356403500544475121174617940321,22467.2,1.6356403500544475121174617940321
238,22658.8364883702872521432469239175348,22657.2,1.6364883702872521432469239175348
