Eigenstate,Energy,Kinetic Energy,Potential Energy
1,0.500000000375172761193664101821075983,0.0,0.500000000375172761193664101821075983
2,1.84623094010007849330210581597465383,1.2,0.64623094010007849330210581597465383
3,3.93633761689875339896670149243481298,3.2,0.73633761689875339896670149243481298
4,6.79966529279846753392253122924333360,6.0,0.79966529279846753392253122924333360
5,10.4480466012423437524598245465994890,9.6,0.8480466012423437524598245465994890
6,14.8870660370375862733477529402634252,14.0,0.8870660370375862733477529402634252
7,20.1197208816474691723773118272134045,19.2,0.9197208816474691723773118272134045
8,26.1477839214626891631619363857666955,25.2,0.9477839214626891631619363857666955
9,32.9723836554980747671655748137672764,32.0,0.9723836554980747671655748137672764
10,40.5942803379081779316087091105089218,39.6,0.9942803379081779316087091105089218
11,49.0140095388386878799664000010390807,48.0,1.0140095388386878799664000010390807
12,58.2319623535981870017222134839532398,57.2,1.0319623535981870017222134839532398
13,68.2484329122560826533894345880898770,67.2,1.0484329122560826533894345880898770
14,79.0636479124989645156857085418157170,78.0,1.0636479124989645156857085418157170
15,90.6777857354449077776522751325736483,89.6,1.0777857354449077776522751325736483
16,103.090989250513992740582506797175008,102.0,1.090989250513992740582506797175008
17,116.303374648889857903685607936048309,115.2,1.103374648889857903685607936048309
18,130.315037694525932374031901949704725,129.2,1.115037694525932374031901949704725
19,145.126058247249436415552253194367608,144.0,1.126058247249436415552253194367608
20,160.736503600395334283518439626424339,159.6,1.136503600395334283518439626424339
21,177.146430986888043415136335983432261,176.0,1.146430986888043415136335983432261
22,194.355889490400183576998182138810679,193.2,1.155889490400183576998182138810679
23,212.364921523289108442837952423314242,211.2,1.164921523289108442837952423314242
24,231.173563983997333191514508153282401,230.0,1.173563983997333191514508153282401
25,250.781849173848465269764491079195999,249.6,1.181849173848465269764491079195999
26,271.189805530854795736123980639863786,270.0,1.189805530854795736123980639863786
27,292.397458222679878117171922266690651,291.2,1.197458222679878117171922266690651
28,314.404829629997570840922385438852389,313.2,1.204829629997570840922385438852389
29,337.211939743693991451112304914179147,336.0,1.211939743693991451112304914179147
30,360.818806493709343209033036564867407,359.6,1.218806493709343209033036564867407
31,385.225446023170636169671852403540737,384.0,1.225446023170636169671852403540737
32,410.431872918388425219915978918280776,409.2,1.231872918388425219915978918280776
33,436.438100402981039752012437300914336,435.2,1.238100402981039752012437300914336
34,463.244140502639233371627215437272144,462.0,1.244140502639233371627215437272144
35,490.850004185704986968418180586280777,489.6,1.250004185704986968418180586280777
36,519.255701483704719594178437839944843,518.0,1.255701483704719594178437839944843
37,548.461241595173077041824607576940019,547.2,1.261241595173077041824607576940019
38,578.466632975473049272862960688326714,577.2,1.266632975473049272862960688326714
39,609.271883414820319189520694763456852,608.0,1.271883414820319189520694763456852
40,640.877000106323924462685772972959519,639.6,1.277000106323924462685772972959519
41,673.281989705538563851904015696997583,672.0,1.281989705538563851904015696997583
42,706.486858382768886851253454420866674,705.2,1.286858382768886851253454420866674
43,740.491611869159619149267178024479027,739.2,1.291611869159619149267178024479027
44,775.296255497437282374988494466283165,774.0,1.296255497437282374988494466283165
45,810.900794238031697032779002778150024,809.6,1.300794238031697032779002778150024
46,847.305232731192321245532170421051429,846.0,1.305232731192321245532170421051429
47,884.509575315621001313310498666327491,883.2,1.309575315621001313310498666327491
48,922.513826054065123729932432688722576,921.2,1.313826054065123729932432688722576
49,961.317988756250495755939430399690382,960.0,1.317988756250495755939430399690382
50,1000.92206699947915893255913491694715,999.6,1.32206699947915893255913491694715
51,1041.32606414717187295867708283610726,1040.0,1.32606414717187295867708283610726
52,1082.52998336559666213842218240470241,1081.2,1.32998336559666213842218240470241
53,1124.53382763899236648833832977248384,1123.2,1.33382763899236648833832977248384
54,1167.33759978326857846158814616115079,1166.0,1.33759978326857846158814616115079
55,1210.94130245843987075406499146891003,1209.6,1.34130245843987075406499146891003
56,1255.34493817993214608711924247660213,1254.0,1.34493817993214608711924247660213
57,1300.54850932888174089644773511332052,1299.2,1.34850932888174089644773511332052
58,1346.55201816153311767037880727083860,1345.2,1.35201816153311767037880727083860
59,1393.35546681782822673348407098849766,1392.0,1.35546681782822673348407098849766
60,1440.95885732926959376373290021807482,1439.6,1.35885732926959376373290021807482
61,1489.36219162612962510388776832877348,1488.0,1.36219162612962510388776832877348
62,1538.56547154407032192271859838205407,1537.2,1.36547154407032192271859838205407
63,1588.56869883023035239258846882342293,1587.2,1.36869883023035239258846882342293
64,1639.37187514883011857004088769925048,1638.0,1.37187514883011857004088769925048
65,1690.97500208633991982604901389760375,1689.6,1.37500208633991982604901389760375
66,1743.37808115625146733353438546176881,1742.0,1.37808115625146733353438546176881
67,1796.58111380348874182844580156645910,1795.2,1.38111380348874182844580156645910
68,1850.58410140849043069988631060367826,1849.2,1.38410140849043069988631060367826
69,1905.38704529099286779406217175904930,1904.0,1.38704529099286779406217175904930
70,1960.98994671353947104856954577134791,1959.6,1.38994671353947104856954577134791
71,2017.39280688474007436982271659276440,2016.0,1.39280688474007436982271659276440
72,2074.59562696230125192405448634366366,2073.2,1.39562696230125192405448634366366
73,2132.59840805584668000593721192502801,2131.2,1.39840805584668000593721192502801
74,2191.40115122954476280033065652210952,2190.0,1.40115122954476280033065652210952
75,2251.00385750455911725158079411438072,2249.6,1.40385750455911725158079411438072
76,2311.40652786133606269805270348492299,2310.0,1.40652786133606269805270348492299
77,2372.60916324174195853118411893124418,2371.2,1.40916324174195853118411893124418
78,2434.61176455106206734018429428517814,2433.2,1.41176455106206734018429428517814
79,2497.41433265987157418353108360295018,2496.0,1.41433265987157418353108360295018
80,2561.01686840578845450279465885722471,2559.6,1.41686840578845450279465885722471
81,2625.41937259511703385286451368244730,2624.0,1.41937259511703385286451368244730
82,2690.62184600439032117212266044749034,2689.2,1.42184600439032117212266044749034
83,2756.62428938181850858234089543519446,2755.2,1.42428938181850858234089543519446
84,2823.42670344865040641638855195500474,2822.0,1.42670344865040641638855195500474
85,2891.02908890045402289568783647666203,2889.6,1.42908890045402289568783647666203
86,2959.43144640832198201398962752817999,2958.0,1.43144640832198201398962752817999
87,3028.63377662000701571327139096437230,3027.2,1.43377662000701571327139096437230
88,3098.63608016099234305984781323590108,3097.2,1.43608016099234305984781323590108
89,3169.43835763550136562665278020566509,3168.0,1.43835763550136562665278020566509
90,3241.04060962745076507095041949904322,3239.6,1.44060962745076507095041949904322
91,3313.44283670135076744471255609570405,3312.0,1.44283670135076744471255609570405
92,3386.64503940315605047738923922369757,3385.2,1.44503940315605047738923922369757
93,3460.64721826107050781577722453706703,3459.2,1.44721826107050781577722453706703
94,3535.44937378630884127698278627987759,3534.0,1.44937378630884127698278627987759
95,3611.05150647381773101648111553115623,3609.6,1.45150647381773101648111553115623
96,3687.45361680295913169118948881630632,3686.0,1.45361680295913169118948881630632
97,3764.65570523815805835540013593306905,3763.2,1.45570523815805835540013593306905
98,3842.65777222951705295315440396243993,3841.2,1.45777222951705295315440396243993
99,3921.45981821339936879849298576059178,3920.0,1.45981821339936879849298576059178
100,4001.06184361298276409463281142953632,3999.6,1.46184361298276409463281142953632
101,4081.46384883878566623900955635339198,4080.0,1.46384883878566623900955635339198
102,4162.66583428916734308644031507622650,4161.2,1.46583428916734308644031507622650
103,4244.66780035080360942908852804923123,4243.2,1.46780035080360942908852804923123
104,4327.46974739913948968724760386880200,4326.0,1.46974739913948968724760386880200
105,4411.07167579882016473124043505446675,4409.6,1.47167579882016473124043505446675
106,4495.47358590410143999053522966794606,4494.0,1.47358590410143999053522966794606
107,4580.67547805924089392426723652580280,4579.2,1.47547805924089392426723652580280
108,4666.67735259887078668784591191816284,4665.2,1.47735259887078668784591191816284
109,4753.47920984835374023684179052161925,4752.0,1.47920984835374023684179052161925
110,4841.08105012412213868927067896926980,4839.6,1.48105012412213868927067896926980
111,4929.48287373400213190624135438960926,4928.0,1.48287373400213190624135438960926
112,5018.68468097752307581735504340676586,5017.2,1.48468097752307581735504340676586
113,5108.68647214621318748149812967286771,5107.2,1.48647214621318748149812967286771
114,5199.48824752388214411597244096782882,5198.0,1.48824752388214411597244096782882
115,5291.09000738689131487845465948455156,5289.6,1.49000738689131487845465948455156
116,5383.49175200441226585468928363970787,5382.0,1.49175200441226585468928363970787
117,5476.69348163867414699186801743317611,5475.2,1.49348163867414699186801743317611
118,5570.69519654520052868660536040399564,5569.2,1.49519654520052868660536040399564
119,5665.49689697303622202276226269015945,5664.0,1.49689697303622202276226269015945
120,5761.09858316496459081219974657497147,5759.6,1.49858316496459081219974657497147
121,5857.50025535771582532436583386165035,5856.0,1.50025535771582532436583386165035
122,5954.70191378216662867755063314361500,5953.2,1.50191378216662867755063314361500
123,6052.70355866353173467178162511574647,6051.2,1.50355866353173467178162511574647
124,6151.50519022154765816359315962274150,6150.0,1.50519022154765816359315962274150
125,6251.10680867064904951671421462373831,6249.6,1.50680867064904951671421462373831
126,6351.50841422013800946549228091446656,6350.0,1.50841422013800946549228091446656
127,6452.71000707434670015006435758418018,6451.2,1.51000707434670015006435758418018
128,6554.71158743279356549517268894257978,6553.2,1.51158743279356549517268894257978
129,6657.51315549033346203136532926893209,6656.0,1.51315549033346203136532926893209
130,6761.11471143730198287553718899157205,6759.6,1.51471143730198287553718899157205
131,6865.51625545965424218373601042334211,6864.0,1.51625545965424218373601042334211
132,6970.71778773909837241204353617879219,6969.2,1.51778773909837241204353617879219
133,7076.71930845322397493984446581703498,7075.2,1.51930845322397493984446581703498
134,7183.52081777562575333393800593732411,7182.0,1.52081777562575333393800593732411
135,7291.12231587602254042369145194935958,7289.6,1.52231587602254042369145194935958
136,7399.52380292037192667000599295804030,7398.0,1.52380292037192667000599295804030
137,7508.72527907098068400302441493870489,7507.2,1.52527907098068400302441493870489
138,7618.72674448661116569161940592823279,7617.2,1.52674448661116569161940592823279
139,7729.52819932258386070190493456821774,7728.0,1.52819932258386070190493456821774
140,7841.12964373087626555615550196459857,7839.6,1.52964373087626555615550196459857
141,7953.53107786021823214613605516415391,7952.0,1.53107786021823214613605516415391
142,8066.73250185618394188170214305433285,8065.2,1.53250185618394188170214305433285
143,8180.73391586128064790547501907712515,8179.2,1.53391586128064790547501907712515
144,8295.53532001503431992488430816166522,8294.0,1.53532001503431992488430816166522
145,8411.13671445407232202523720322408561,8409.6,1.53671445407232202523720322408561
146,8527.53809931220324595885826735261762,8526.0,1.53809931220324595885826735261762
147,8644.73947472049401420250472946351381,8643.2,1.53947472049401420250472946351381
148,8762.74084080734436811737275016788477,8761.2,1.54084080734436811737275016788477
149,8881.54219769855884301807923762146058,8880.0,1.54219769855884301807923762146058
150,9001.14354551741633379706758415237066,8999.6,1.54354551741633379706758415237066
151,9121.54488438473734702442318574768978,9120.0,1.54488438473734702442318574768978
152,9242.74621441894902982814506981107850,9241.2,1.54621441894902982814506981107850
153,9364.74753573614806451061438276159477,9363.2,1.54753573614806451061438276159477
154,9487.54884845016151280670616009423003,9486.0,1.54884845016151280670616009423003
155,9611.15015267260568802591726441330364,9609.6,1.55015267260568802591726441330364
156,9735.55144851294313295142878994668828,9734.0,1.55144851294313295142878994668828
157,9860.75273607853777454943785713641510,9859.2,1.55273607853777454943785713641510
158,9986.75401547470832731378751241786941,9985.2,1.55401547470832731378751241786941
159,10113.5552868047800089258371007560019,10112.0,1.5552868047800089258371007560019
160,10241.1565501701346345744316541365385,10239.6,1.5565501701346345744316541365385
161,10369.5578056702591484396038442239987,10368.0,1.5578056702591484396038442239987
162,10498.7590534027926518088419914433534,10497.2,1.5590534027926518088419914433534
163,10628.7602934635719826871691729886046,10627.2,1.5602934635719826871691729886046
164,10759.5615259466759015458040149775786,10758.0,1.5615259466759015458040149775786
165,10891.1627509444679318180254633279012,10889.6,1.5627509444679318180254633279012
166,11023.5639685476379056664759612929294,11022.0,1.5639685476379056664759612929294
167,11156.7651788452422622631149193148133,11155.2,1.5651788452422622631149193148133
168,11290.7663819247431412798892769572454,11289.2,1.5663819247431412798892769572454
169,11425.5675778720463166616191189985351,11424.0,1.5675778720463166616191189985351
170,11561.1687667715380104339047822346239,11559.6,1.5687667715380104339047822346239
171,11697.5699487061206267504794973297859,11696.0,1.5699487061206267504794973297859
172,11834.7711237572474440569252682700837,11833.2,1.5711237572474440569252682700837
173,11972.7722920049563007836388901842986,11971.2,1.5722920049563007836388901842986
174,12111.5734535279023104224295532456858,12110.0,1.5734535279023104224295532456858
175,12251.1746084033896399828697112430987,12249.6,1.5746084033896399828697112430987
176,12391.5757567074023815462699549774724,12390.0,1.5757567074023815462699549774724
177,12532.7768985146345501896738424031239,12531.2,1.5768985146345501896738424031239
178,12674.7780338985192374464842375243781,12673.2,1.5780338985192374464842375243781
179,12817.5791629312569467612445980467220,12816.0,1.5791629312569467612445980467220
180,12961.1802856838431418979299334722984,12959.6,1.5802856838431418979299334722984
181,13105.5814022260950309636797133211287,13104.0,1.5814022260950309636797133211287
182,13250.7825126266776137571054409278050,13249.2,1.5825126266776137571054409278050
183,13396.7836169531290155046158792861974,13395.2,1.5836169531290155046158792861974
184,13543.5847152718851312408911875285188,13542.0,1.5847152718851312408911875285188
185,13691.1858076483036026566756144787587,13689.6,1.5858076483036026566756144787587
186,13839.5868941466871483980094947577418,13838.0,1.5868941466871483980094947577418
187,13988.7879748303062716333837483688335,13987.2,1.5879748303062716333837483688335
188,14138.7890497614213603416080037204451,14137.2,1.5890497614213603416080037204451
189,14289.5901190013042040684645962006341,14288.0,1.5901190013042040684645962006341
190,14441.1911826102589428207456512542401,14439.6,1.5911826102589428207456512542401
191,14593.5922406476424673382832912694173,14592.0,1.5922406476424673382832912694173
192,14746.7932931718842871448043263705200,14745.2,1.5932931718842871448043263705200
193,14900.7943402405058847006755578686267,14899.2,1.5943402405058847006755578686267
194,15055.5953819101395690181427219401497,15054.0,1.5953819101395690181427219401497
195,15211.1964182365468466918750358851307,15209.6,1.5964182365468466918750358851307
196,15367.5974492746363240578216671156926,15366.0,1.5974492746363240578216671156926
197,15524.7984750784811548774802946948962,15523.2,1.5984750784811548774802946948962
198,15682.7994957013360477320364472815632,15681.2,1.5994957013360477320364472815632
199,15841.6005111956538459834412745640774,15840.0,1.6005111956538459834412745640774
200,16001.2015216131016942665781029660583,15999.6,1.6015216131016942665781029660583
201,16161.6025270045768025136795268160680,16160.0,1.6025270045768025136795268160680
202,16322.8035274202218209126972643725157,16321.2,1.6035274202218209126972643725157
203,16484.8045229094398364807294225896221,16483.2,1.6045229094398364807294225896221
204,16647.6055135209090028946620657434801,16646.0,1.6055135209090028946620657434801
205,16811.2064993025968135725411941009727,16809.6,1.6064993025968135725411941009727
206,16975.6074803017740310535080512026962,16974.0,1.6074803017740310535080512026962
207,17140.8084565650282785770283781652033,17139.2,1.6084565650282785770283781652033
208,17306.8094281382773081139378518853473,17305.2,1.6094281382773081139378518853473
209,17473.6103950667819506242936533273708,17472.0,1.6103950667819506242936533273708
210,17641.2113573951587600708829517887408,17639.6,1.6113573951587600708829517887408
211,17809.6123151673923585817207113684075,17808.0,1.6123151673923585817207113684075
212,17978.8132684268474930242066526162141,17977.2,1.6132684268474930242066526162141
213,18148.8142172162808074056024634367924,18147.2,1.6142172162808074056024634367924
214,18319.6151615778523461135312269967266,18318.0,1.6151615778523461135312269967266
215,18491.2161015531367872420798281737869,18489.6,1.6161015531367872420798281737869
216,18663.6170371831344199986552192567900,18662.0,1.6170371831344199986552192567900
217,18836.8179685082818701927552232791650,18835.2,1.6179685082818701927552232791650
218,19010.8188955684625828227049394312546,19009.2,1.6188955684625828227049394312546
219,19185.6198184030170650784179438471114,19184.0,1.6198184030170650784179438471114
220,19361.2207370507529023150253758887662,19359.6,1.6207370507529023150253758887662
221,19537.6216515499545449480474071517421,19536.0,1.6216515499545449480474071517421
222,19714.8225619383928835175730594719156,19713.2,1.6225619383928835175730594719156
223,19892.8234682533346055341793529871072,19891.2,1.6234682533346055341793529871072
224,20071.6243705315513492196367028464505,20070.0,1.6243705315513492196367028464505
225,20251.2252688093286567546781132038059,20249.6,1.6252688093286567546781132038059
226,20431.6261631224747306294735428814229,20430.0,1.6261631224747306294735428814229
227,20612.8270535063290017995045637266326,20611.2,1.6270535063290017995045637266326
228,20794.8279399957705115190700204408004,20793.2,1.6279399957705115190700204408004
229,20977.6288226252261140688724570490266,20976.0,1.6288226252261140688724570490266
230,21161.2297014286785051306187011606253,21159.6,1.6297014286785051306187011606253
231,21345.6305764396740776670638119454129,21344.0,1.6305764396740776670638119454129
232,21530.8314476913306157881815166778226,21529.2,1.6314476913306157881815166778226
233,21716.8323152163448216633922472925887,21715.2,1.6323152163448216633922472925887
234,21903.6331790469996917031745568368998,21902.0,1.6331790469996917031745568368998
235,22091.2340392151717352613424034755963,22089.6,1.6340392151717352613424034755963
236,22279.6348957523380456399833377760986,22278.0,1.6348957523380456399833377760986
237,22468.8357486895832271036179982417028,22467.2,1.6357486895832271036179982417028
238,22658.8365980576061797233235098952402,22657.2,1.6365980576061797233235098952402
