Eigenstate,Energy,Kinetic Energy,Potential Energy
1,0.500000000020134341794615328718571974,0.0,0.500000000020134341794615328718571974
2,1.84623093778254104499447919127933323,1.2,0.64623093778254104499447919127933323
3,3.93633761009102969863866837748706651,3.2,0.73633761009102969863866837748706651
4,6.79966527861834418440399460052377307,6.0,0.79966527861834418440399460052377307
5,10.4480465766785584290919770768245898,9.6,0.8480465766785584290919770768245898
6,14.8870659990255989764741738759372722,14.0,0.8870659990255989764741738759372722
7,20.1197208270972893274093507081570250,19.2,0.9197208270972893274093507081570250
8,26.1477838472703964578098743957462777,25.2,0.9477838472703964578098743957462777
9,32.9723835585510989164790735538266889,32.0,0.9723835585510989164790735538266889
10,40.5942802150879069672198904419694473,39.6,0.9942802150879069672198904419694473
11,49.0140093870218186810531952946375803,48.0,1.0140093870218186810531952946375803
12,58.2319621696574347398641595399550078,57.2,1.0319621696574347398641595399550078
13,68.2484326930605410735011555969450689,67.2,1.0484326930605410735011555969450689
14,79.0636476549142651155602638741914184,78.0,1.0636476549142651155602638741914184
15,90.6777854363332575071757467892887722,89.6,1.0777854363332575071757467892887722
16,103.090988906734135230831115907741856,102.0,1.090988906734135230831115907741856
17,116.303374257296984788750435560947399,115.2,1.103374257296984788750435560947399
18,130.315037251971560977304061841639530,129.2,1.115037251971560977304061841639530
19,145.126057750581264097680394596844836,144.0,1.126057750581264097680394596844836
20,160.736503046457076156836995015336672,159.6,1.136503046457076156836995015336672
21,177.146430372519257901036598681233339,176.0,1.146430372519257901036598681233339
22,194.355888812436088861634424448528149,193.2,1.155888812436088861634424448528149
23,212.364920778560391957459710198223761,211.2,1.164920778560391957459710198223761
24,231.173563169329955622491564784184158,230.0,1.173563169329955622491564784184158
25,250.781848286063460179472686811399041,249.6,1.181848286063460179472686811399041
26,271.189804566768065581208375245722940,270.0,1.189804566768065581208375245722940
27,292.397457179101987242396176199006103,291.2,1.197457179101987242396176199006103
28,314.404828503733535877241385151475728,313.2,1.204828503733535877241385151475728
29,337.211938531543069437656585379954150,336.0,1.211938531543069437656585379954150
30,360.818805192464817678273793405387651,359.6,1.218805192464817678273793405387651
31,385.225444629619601374934589502522652,384.0,1.225444629619601374934589502522652
32,410.431871429311568638972432676714361,409.2,1.231871429311568638972432676714361
33,436.438098815152422965750700228909735,435.2,1.238098815152422965750700228909735
34,463.244138812826071389980201760078639,462.0,1.244138812826071389980201760078639
35,490.850002390667426054813887480025211,489.6,1.250002390667426054813887480025211
36,519.255699580195613623309297365340336,518.0,1.255699580195613623309297365340336
37,548.461239579937762412449958395156946,547.2,1.261239579937762412449958395156946
38,578.466630845249118386872028866393714,577.2,1.266630845249118386872028866393714
39,609.271881166337392500003101734593705,608.0,1.271881166337392500003101734593705
40,640.876997736303421086838908310096908,639.6,1.276997736303421086838908310096908
41,673.281987210693470738915037654154689,672.0,1.281987210693470738915037654154689
42,706.486855759803526490568345804903496,705.2,1.286855759803526490568345804903496
43,740.491609114769415800701883529410310,739.2,1.291609114769415800701883529410310
44,775.296252608308526798792560622430507,774.0,1.296252608308526798792560622430507
45,810.900791210841309694908441224207816,809.6,1.300791210841309694908441224207816
46,847.305229562607613970929902643150227,846.0,1.305229562607613970929902643150227
47,884.509572002299437357854969167893042,883.2,1.309572002299437357854969167893042
48,922.513822592654076239835826710373249,921.2,1.313822592654076239835826710373249
49,961.317985143387004581709520958301549,960.0,1.317985143387004581709520958301549
50,1000.92206323178968576314311363212038,999.6,1.32206323178968576314311363212038
51,1041.32606022127205474004996196827146,1040.0,1.32606022127205474004996196827146
52,1082.52997927809106273964186302012947,1081.2,1.32997927809106273964186302012947
53,1124.53382338647422657694212712768491,1123.2,1.33382338647422657694212712768491
54,1167.33759536231956354913385427355913,1166.0,1.33759536231956354913385427355913
55,1210.94129786562981737161040153688508,1209.6,1.34129786562981737161040153688508
56,1255.34493341181880604947373556810706,1254.0,1.34493341181880604947373556810706
57,1300.54850438201052361311067192529214,1299.2,1.34850438201052361311067192529214
58,1346.55201303243683046018890046042110,1345.2,1.35201303243683046018890046042110
59,1393.35546150302681309914198155823137,1392.0,1.35546150302681309914198155823137
60,1440.95885182526986958151234794691624,1439.6,1.35885182526986958151234794691624
61,1489.36218592942501268301856552630416,1488.0,1.36218592942501268301856552630416
62,1538.56546565114058188810122111897920,1537.2,1.36546565114058188810122111897920
63,1588.56869273754131334368257339011865,1587.2,1.36869273754131334368257339011865
64,1639.37186885283340446795421351168748,1638.0,1.37186885283340446795421351168748
65,1690.97499558347267506003514686002237,1689.6,1.37499558347267506003514686002237
66,1743.37807444293607941728952056658888,1742.0,1.37807444293607941728952056658888
67,1796.58110687613256167576815909503754,1795.2,1.38110687613256167576815909503754
68,1850.58409426348549042843018822546778,1849.2,1.38409426348549042843018822546778
69,1905.38703792471559600507478012635499,1904.0,1.38703792471559600507478012635499
70,1960.98993912235040552964957633285973,1959.6,1.38993912235040552964957633285973
71,2017.39279906498357216687156339280484,2016.0,1.39279906498357216687156339280484
72,2074.59561891030519672771678557928296,2073.2,1.39561891030519672771678557928296
73,2132.59839976792218679693205684689131,2131.2,1.39839976792218679693205684689131
74,2191.40114270198587969716934623698549,2190.0,1.40114270198587969716934623698549
75,2251.00384873364252450324073975268356,2249.6,1.40384873364252450324073975268356
76,2311.40651884332076876323682523907911,2310.0,1.40651884332076876323682523907911
77,2372.60915397286899318483339302564156,2371.2,1.40915397286899318483339302564156
78,2434.61175502755417174693130304754221,2433.2,1.41175502755417174693130304754221
79,2497.41432287793288787678224144416762,2496.0,1.41432287793288787678224144416762
80,2561.01685836160419920710874184298828,2559.6,1.41685836160419920710874184298828
81,2625.41936228485319408625031032144541,2624.0,1.41936228485319408625031032144541
82,2690.62183542419332156381406561687831,2689.2,1.42183542419332156381406561687831
83,2756.62427852781488784051868455397897,2755.2,1.42427852781488784051868455397897
84,2823.42669231694648787920436472373680,2822.0,1.42669231694648787920436472373680
85,2891.02907748713558159780787050685154,2889.6,1.42907748713558159780787050685154
86,2959.43143470945390819971245003062194,2958.0,1.43143470945390819971245003062194
87,3028.63376463163297472608254443110034,3027.2,1.43376463163297472608254443110034
88,3098.63606787913443153705755692532276,3097.2,1.43606787913443153705755692532276
89,3169.43834505615976392651745861085005,3168.0,1.43834505615976392651745861085005
90,3241.04059674660338585840373869248191,3239.6,1.44059674660338585840373869248191
91,3313.44282351495290036052853485783063,3312.0,1.44282351495290036052853485783063
92,3386.64502590714000281426566276076257,3385.2,1.44502590714000281426566276076257
93,3460.64720445134524112346163021674939,3459.2,1.44720445134524112346163021674939
94,3535.44935965875960381716662500436334,3534.0,1.44935965875960381716662500436334
95,3611.05149202430568598675647438502300,3609.6,1.45149202430568598675647438502300
96,3687.45360202732098113590013754776855,3686.0,1.45360202732098113590013754776855
97,3764.65569013220566267971769308703519,3763.2,1.45569013220566267971769308703519
98,3842.65775678903704595517907450872581,3841.2,1.45775678903704595517907450872581
99,3921.45980243415276813260469780792505,3920.0,1.45980243415276813260469780792505
100,4001.06182749070457707771304041854507,3999.6,1.46182749070457707771304041854507
101,4081.46383236918449090950575409984421,4080.0,1.46383236918449090950575409984421
102,4162.66581746792496442455983912600817,4161.2,1.46581746792496442455983912600817
103,4244.66778317357459064468348422094071,4243.2,1.46778317357459064468348422094071
104,4327.46972986155075848018181828902013,4326.0,1.46972986155075848018181828902013
105,4411.07165789647059442722186886996288,4409.6,1.47165789647059442722186886996288
106,4495.47356763256142545354235144894444,4494.0,1.47356763256142545354235144894444
107,4580.67545941405192214479847416064097,4579.2,1.47545941405192214479847416064097
108,4666.67733357554500194427757045706341,4665.2,1.47733357554500194427757045706341
109,4753.47919044237350372518720267817472,4752.0,1.47919044237350372518720267817472
110,4841.08103033093958251459232999722569,4839.6,1.48103033093958251459232999722569
111,4929.48285354903870732687958974061643,4928.0,1.48285354903870732687958974061643
112,5018.68466039616909563099330068656891,5017.2,1.48466039616909563099330068656891
113,5108.68645116382736243989368710657892,5107.2,1.48645116382736243989368710657892
114,5199.48822613579111325293150898236036,5198.0,1.48822613579111325293150898236036
115,5291.08998558838916963333069348252586,5289.6,1.48998558838916963333069348252586
116,5383.49172979076006787132235550739719,5382.0,1.49172979076006787132235550739719
117,5476.69345900509943947046681599344240,5475.2,1.49345900509943947046681599344240
118,5570.69517348689684116359467685311439,5569.2,1.49517348689684116359467685311439
119,5665.49687348516256845108169452168644,5664.0,1.49687348516256845108169452168644
120,5761.09855924264496081193721119245549,5759.6,1.49855924264496081193721119245549
121,5857.50023099603866847094171401419094,5856.0,1.50023099603866847094171401419094
122,5954.70188897618433169193624482591910,5953.2,1.50188897618433169193624482591910
123,6052.70353340826009137443443621694469,6051.2,1.50353340826009137443443621694469
124,6151.50516451196533205091925296766807,6150.0,1.50516451196533205091925296766807
125,6251.10678250169702881592345679967498,6249.6,1.50678250169702881592345679967498
126,6351.50838758671905452069518761724932,6350.0,1.50838758671905452069518761724932
127,6452.70997997132478298936372423926336,6451.2,1.50997997132478298936372423926336
128,6554.71155985499330142533055297494302,6553.2,1.51155985499330142533055297494302
129,6657.51312743253953310337278607422883,6656.0,1.51312743253953310337278607422883
130,6761.11468289425855306107870336295291,6759.6,1.51468289425855306107870336295291
131,6865.51622642606436409911711237182993,6864.0,1.51622642606436409911711237182993
132,6970.71775820962338542264141834412301,6969.2,1.51775820962338542264141834412301
133,7076.71927842248289447454536256961836,7075.2,1.51927842248289447454536256961836
134,7183.52078723819465123532850210423114,7182.0,1.52078723819465123532850210423114
135,7291.12228482643391615598703130565574,7289.6,1.52228482643391615598703130565574
136,7399.52377135311406920281518915997914,7398.0,1.52377135311406920281518915997914
137,7508.72524698049702418505889640999054,7507.2,1.52524698049702418505889640999054
138,7618.72671186729961892437267044345552,7617.2,1.52671186729961892437267044345552
139,7729.52816616879615971912525490610386,7728.0,1.52816616879615971912525490610386
140,7841.12961003691728311063114407307307,7839.6,1.52961003691728311063114407307307
141,7953.53104362034529340089518687015527,7952.0,1.53104362034529340089518687015527
142,8066.73246706460612629819042081990293,8065.2,1.53246706460612629819042081990293
143,8180.73388051215808041661998672692546,8179.2,1.53388051215808041661998672692546
144,8295.53528410247745117617693783517874,8294.0,1.53528410247745117617693783517874
145,8411.13667797214119746205676203751352,8409.6,1.53667797214119746205676203751352
146,8527.53806225490676353322640470335995,8526.0,1.53806225490676353322640470335995
147,8644.73943708178917046728768516464512,8643.2,1.53943708178917046728768516464512
148,8762.74080258113549247063952956016359,8761.2,1.54080258113549247063952956016359
149,8881.54215887869681985486928461538890,8880.0,1.54215887869681985486928461538890
150,9001.14350609769781232022614473327024,8999.6,1.54350609769781232022614473327024
151,9121.54484435890393846040587319869536,9120.0,1.54484435890393846040587319869536
152,9242.74617378068649178779151419929625,9241.2,1.54617378068649178779151419929625
153,9364.74749447908547222881795433680710,9363.2,1.54749447908547222881795433680710
154,9487.54880656787041698867628497363670,9486.0,1.54880656787041698867628497363670
155,9611.15011015859925902132414114866004,9609.6,1.55011015859925902132414114866004
156,9735.55140536067529097113810854240397,9734.0,1.55140536067529097113810854240397
157,9860.75269228140230563278424839755562,9859.2,1.55269228140230563278424839755562
158,9986.75397102603798474738031549756578,9985.2,1.55397102603798474738031549756578
159,10113.5552416978455998077552871177436,10112.0,1.5552416978455998077552871177436
160,10241.1565043981440912103160247043630,10239.6,1.5565043981440912103160247043630
161,10369.5577592263565842496122220696552,10368.0,1.5577592263565842496122220696552
162,10498.7590062800574014166711440580216,10497.2,1.5590062800574014166711440580216
163,10628.7602456550176258543716299102373,10627.2,1.5602456550176258543716299102373
164,10759.5614774452492706064224744044926,10758.0,1.5614774452492706064224744044926
165,10891.1627017430481022601329575384517,10889.6,1.5627017430481022601329575384517
166,11023.5639186390351694985343915344891,11022.0,1.5639186390351694985343915344891
167,11156.7651282221970837941422607234321,11155.2,1.5651282221970837941422607234321
168,11290.7663305799250949332425344582502,11289.2,1.5663305799250949332425344582502
169,11425.5675257980530064327629214462920,11424.0,1.5675257980530064327629214462920
170,11561.1687139608939705928148009852214,11559.6,1.5687139608939705928148009852214
171,11697.5698951512762033793367087663041,11696.0,1.5698951512762033793367087663041
172,11834.7710694505776570034674061255379,11833.2,1.5710694505776570034674061255379
173,11972.7722369387596855999492916306430,11971.2,1.5722369387596855999492916306430
174,12111.5733976943997398480462107295204,12110.0,1.5733976943997398480462107295204
175,12251.1745517947231245198787043981351,12249.6,1.5745517947231245198787043981351
176,12391.5756993156338486624994927876001,12390.0,1.5756993156338486624994927876001
177,12532.7768403317446016742166495857999,12531.2,1.5768403317446016742166495857999
178,12674.7779749164058844295306339018197,12673.2,1.5779749164058844295306339018197
179,12817.5791031417343218976009092422870,12816.0,1.5791031417343218976009092422870
180,12961.1802250786401882006109804707256,12959.6,1.5802250786401882006109804707256
181,13105.5813407968541667605878784679577,13104.0,1.5813407968541667605878784679577
182,13250.7824503649533732300312965602308,13249.2,1.5824503649533732300312965602308
183,13396.7835538503866642555961257651923,13395.2,1.5835538503866642555961257651923
184,13543.5846513194992563163341488726618,13542.0,1.5846513194992563163341488726618
185,13691.1857428375566764445878991557775,13689.6,1.5857428375566764445878991557775
186,13839.5868284687680657981255802971814,13838.0,1.5868284687680657981255802971814
187,13988.7879082763088598839839349922609,13987.2,1.5879082763088598839839349922609
188,14138.7889823223428608703028426221009,14137.2,1.5889823223428608703028426221009
189,14289.5900506680437257172085154362011,14288.0,1.5900506680437257172085154362011
190,14441.1911133736158857777891206883849,14439.6,1.5911133736158857777891206883849
191,14593.5921704983149170916803680285995,14592.0,1.5921704983149170916803680285995
192,14746.7932221004673777534290536391281,14745.2,1.5932221004673777534290536391281
193,14900.7942682374901306594469850659314,14899.2,1.5942682374901306594469850659314
194,15055.5953089659091649743017079494167,15054.0,1.5953089659091649743017079494167
195,15211.1963443413779342486659959410769,15209.6,1.5963443413779342486659959410769
196,15367.5973744186952248807887370965594,15366.0,1.5973744186952248807887370965594
197,15524.7983992518225692967703413952433,15523.2,1.5983992518225692967703413952433
198,15682.7994188939012180115837780777881,15681.2,1.5994188939012180115837780777881
199,15841.6004333972686834046565862175795,15840.0,1.6004333972686834046565862175795
200,16001.2014428134748691501747812157272,15999.6,1.6014428134748691501747812157272
201,16161.6024471932977962784873513107508,16160.0,1.6024471932977962784873513107508
202,16322.8034465867589392447225594316778,16321.2,1.6034465867589392447225594316778
203,16484.8044410431381826592979680116280,16483.2,1.6044410431381826592979680116280
204,16647.6054306109884102951856393000444,16646.0,1.6054306109884102951856393000444
205,16811.2064153381497363372443481006778,16809.6,1.6064153381497363372443481006778
206,16975.6073952717633918923157005817671,16974.0,1.6073952717633918923157005817671
207,17140.8083704582852726307094596172872,17139.2,1.6083704582852726307094596172872
208,17306.8093409434991617804826396009849,17305.2,1.6093409434991617804826396009849
209,17473.6103067725296342173398659966565,17472.0,1.6103067725296342173398659966565
210,17641.2112679898546531457538342552243,17639.6,1.6112679898546531457538342552243
211,17809.6122246393178667302622307077637,17808.0,1.6122246393178667302622307077637
212,17978.8131767641406149040630748761844,17977.2,1.6131767641406149040630748761844
213,18148.8141244069336507327962662914938,18147.2,1.6141244069336507327962662914938
214,18319.6150676097085913091947736608269,18318.0,1.6150676097085913091947736608269
215,18491.2160064138890973848300135052838,18489.6,1.6160064138890973848300135052838
216,18663.6169408603217956934017750114340,18662.0,1.6169408603217956934017750114340
217,18836.8178709892869479246079686460841,18835.2,1.6178709892869479246079686460841
218,19010.8187968405088753210369951075884,19009.2,1.6187968405088753210369951075884
219,19185.6197184531661421710114099832958,19184.0,1.6197184531661421710114099832958
220,19361.2206358659015107055033453915059,19359.6,1.6206358659015107055033453915059
221,19537.6215491168316653014041026660400,19536.0,1.6215491168316653014041026660400
222,19714.8224582435567231885058299378283,19713.2,1.6224582435567231885058299378283
223,19892.8233632831695252210187989201262,19891.2,1.6233632831695252210187989201262
224,20071.6242642722647217729147477364633,20070.0,1.6242642722647217729147477364633
225,20251.2251612469476563136309387623126,20249.6,1.6251612469476563136309387623126
226,20431.6260542428430502020677679356455,20430.0,1.6260542428430502020677679356455
227,20612.8269432951034973417184511101879,20611.2,1.6269432951034973417184511101879
228,20794.8278284384177705071219086114238,20793.2,1.6278284384177705071219086114238
229,20977.6287097070189464937741272711168,20976.0,1.6287097070189464937741272711168
230,21161.2295871346923547777260959672399,21159.6,1.6295871346923547777260959672399
231,21345.6304607547833514741226976339189,21344.0,1.6304607547833514741226976339189
232,21530.8313306002049290035868943429577,21529.2,1.6313306002049290035868943429577
233,21716.8321967034451564519372210311347,21715.2,1.6321967034451564519372210311347
234,21903.6330590965744667692879325336162,21902.0,1.6330590965744667692879325336162
235,22091.2339178112527839796149464426888,22089.6,1.6339178112527839796149464426888
236,22279.6347728787365000995389855519586,22278.0,1.6347728787365000995389855519586
237,22468.8356243298853053864356676986478,22467.2,1.6356243298853053864356676986478
238,22658.8364721951688736468660672517386,22657.2,1.6364721951688736468660672517386
