Eigenstate,Energy,Kinetic Energy,Potential Energy
1,0.500000001205881889838308644979153302,0.0,0.500000001205881889838308644979153302
2,1.84623094552274951993422197579433731,1.2,0.64623094552274951993422197579433731
3,3.93633763282848275732880952636935325,3.2,0.73633763282848275732880952636935325
4,6.79966532598133084234394278577305482,6.0,0.79966532598133084234394278577305482
5,10.4480466587285998440780074647687923,9.6,0.8480466587285998440780074647687923
6,14.8870661260051618073020047383472615,14.0,0.8870661260051618073020047383472615
7,20.1197210093376236302203678439824500,19.2,0.9197210093376236302203678439824500
8,26.1477840951538350955647964690464544,25.2,0.9477840951538350955647964690464544
9,32.9723838824942033241959203947012470,32.0,0.9723838824942033241959203947012470
10,40.5942806255335379251154752034604098,39.6,0.9942806255335379251154752034604098
11,49.0140098944354109144383930427529451,48.0,1.0140098944354109144383930427529451
12,58.2319627845254161354958956063036761,57.2,1.0319627845254161354958956063036761
13,68.2484334258899219092379822500051907,67.2,1.0484334258899219092379822500051907
14,79.0636485162329031707826031668759723,78.0,1.0636485162329031707826031668759723
15,90.6777864366905335097467774276949693,89.6,1.0777864366905335097467774276949693
16,103.090990056701888696371151372146491,102.0,1.090990056701888696371151372146491
17,116.303375567470621924572254428556224,115.2,1.103375567470621924572254428556224
18,130.315038732971280699281104945766702,129.2,1.115038732971280699281104945766702
19,145.126059413053368167486950144469643,144.0,1.126059413053368167486950144469643
20,160.736504901075341450337858526496778,159.6,1.136504901075341450337858526496778
21,177.146432429986356266200906953300751,176.0,1.146432429986356266200906953300751
22,194.355891083485044776013747548487488,193.2,1.155891083485044776013747548487488
23,212.364923273956071303991597039486511,211.2,1.164923273956071303991597039486511
24,231.173565899870580983070362164118472,230.0,1.173565899870580983070362164118472
25,250.781851262582149467618211379094460,249.6,1.181851262582149467618211379094460
26,271.189807800134391825655749640723347,270.0,1.189807800134391825655749640723347
27,292.397460680223558035834260116284532,291.2,1.197460680223558035834260116284532
28,314.404832283557591510965136434716367,313.2,1.204832283557591510965136434716367
29,337.211942601058099114078146419801298,336.0,1.211942601058099114078146419801298
30,360.818809562702193469464233698602944,359.6,1.218809562702193469464233698602944
31,385.225449311655229804076011343112048,384.0,1.225449311655229804076011343112048
32,410.431876434267559921690425993166410,409.2,1.231876434267559921690425993166410
33,436.438104154198778072988509096085910,435.2,1.238104154198778072988509096085910
34,463.244144497182387192725692080576750,462.0,1.244144497182387192725692080576750
35,490.850008431604618890312363788262778,489.6,1.250008431604618890312363788262778
36,519.255705989037661687253616234731093,518.0,1.255705989037661687253616234731093
37,548.461246368063467435610666324513757,547.2,1.261246368063467435610666324513757
38,578.466638024093887100353439915430522,577.2,1.266638024093887100353439915430522
39,609.271888747395038432769712585420291,608.0,1.271888747395038432769712585420291
40,640.877005731127987273845571002497521,639.6,1.277005731127987273845571002497521
41,673.281995630901073949232126137243048,672.0,1.281995630901073949232126137243048
42,706.486864617074223613198897602476293,705.2,1.286864617074223613198897602476293
43,740.491618420849093052021694845578955,739.2,1.291618420849093052021694845578955
44,775.296262375010812440237868346712896,774.0,1.296262375010812440237868346712896
45,810.900801450049510973111688427421544,809.6,1.300801450049510973111688427421544
46,847.305240286276679015298209559485836,846.0,1.305240286276679015298209559485836
47,884.509583222457942792866047367213587,883.2,1.309583222457942792866047367213587
48,922.513834321406241291315104531892014,921.2,1.313834321406241291315104531892014
49,961.317997392914732478225841663636602,960.0,1.317997392914732478225841663636602
50,1000.92207601435463325557259935690350,999.6,1.32207601435463325557259935690350
51,1041.32607354921773058443481491929325,1040.0,1.32607354921773058443481491929325
52,1082.52999316384495601081241989531088,1081.2,1.32999316384495601081241989531088
53,1124.53383784254996570307955894917537,1123.2,1.33383784254996570307955894917537
54,1167.33761040131910698060103430427657,1166.0,1.33761040131910698060103430427657
55,1210.94131350024567682104359245806960,1209.6,1.34131350024567682104359245806960
56,1255.34494965483630326437260272043208,1254.0,1.34494965483630326437260272043208
57,1300.54852124631008166704763319811061,1299.2,1.34852124631008166704763319811061
58,1346.55203053099630057433867172798794,1345.2,1.35203053099630057433867172798794
59,1393.35547964892383803215190429292074,1392.0,1.35547964892383803215190429292074
60,1440.95887063168428465285475829379107,1439.6,1.35887063168428465285475829379107
61,1489.36220540964128552292494686320822,1488.0,1.36220540964128552292494686320822
62,1538.56548581855029203603028455620392,1537.2,1.36548581855029203603028455620392
63,1588.56871360564567284705578533550124,1587.2,1.36871360564567284705578533550124
64,1639.37189043524582066365742634874252,1638.0,1.37189043524582066365742634874252
65,1690.97501789392135675297930827187123,1689.6,1.37501789392135675297930827187123
66,1743.37809749526668770318413683211909,1742.0,1.37809749526668770318413683211909
67,1796.58113068431090668924515848219542,1795.2,1.38113068431090668924515848219542
68,1850.58411884160027533280564181737031,1849.2,1.38411884160027533280564181737031
69,1905.38706328698120957640719584075627,1904.0,1.38706328698120957640719584075627
70,1960.98996528310976472537744867883378,1959.6,1.38996528310976472537744867883378
71,2017.39282603871101610827433686021450,2016.0,1.39282603871101610827433686021450
72,2074.59564671160943356575718187037884,2073.2,1.39564671160943356575718187037884
73,2132.59842841154929497279483700401563,2131.2,1.39842841154929497279483700401563
74,2191.40117220282236515204175936732142,2190.0,1.40117220282236515204175936732142
75,2251.00387910671843543665917303376266,2249.6,1.40387910671843543665917303376266
76,2311.40655010381286958570658825567611,2310.0,1.40655010381286958570658825567611
77,2372.60918613610399935848309085314837,2371.2,1.40918613610399935848309085314837
78,2434.61178810901204725775594039302191,2433.2,1.41178810901204725775594039302191
79,2497.41435689325020713362314999773971,2496.0,1.41435689325020713362314999773971
80,2561.01689332657757521599425796523122,2559.6,1.41689332657757521599425796523122
81,2625.41939821544277480415534871404852,2624.0,1.41939821544277480415534871404852
82,2690.62187233652635639336252503380864,2689.2,1.42187233652635639336252503380864
83,2756.62431643818936628673343178882860,2755.2,1.42431643818936628673343178882860
84,2823.42673124183485245119529510808173,2822.0,1.42673124183485245119529510808173
85,2891.02911744318851710237385317393284,2889.6,1.42911744318851710237385317393284
86,2959.43147571350420964029087605670013,2958.0,1.43147571350420964029087605670013
87,3028.63380670069949608944381107458330,3027.2,1.43380670069949608944381107458330
88,3098.63611103042611782168157815205547,3097.2,1.43611103042611782168157815205547
89,3169.43838930707976884082830466171018,3168.0,1.43838930707976884082830466171018
90,3241.04064211475327769409516530333302,3239.6,1.44064211475327769409516530333302
91,3313.44287001813695862618835995804104,3312.0,1.44287001813695862618835995804104
92,3386.64507356336960829754836235717508,3385.2,1.44507356336960829754836235717508
93,3460.64725327884336213626676213395721,3459.2,1.44725327884336213626676213395721
94,3535.44940967596538146781825562304380,3534.0,1.44940967596538146781825562304380
95,3611.05154324987912141617973272328516,3609.6,1.45154324987912141617973272328516
96,3687.45365448014772775138275486558818,3686.0,1.45365448014772775138275486558818
97,3764.65574383140192652023662861495747,3763.2,1.45574383140192652023662861495747
98,3842.65781175395459742655618782038890,3841.2,1.45781175395459742655618782038890
99,3921.45985868438406845917714250192557,3920.0,1.45985868438406845917714250192557
100,4001.06188504608802292988606105668200,3999.6,1.46188504608802292988606105668200
101,4081.46389124980978078372774331643286,4080.0,1.46389124980978078372774331643286
102,4162.66587769413859047409051186768893,4161.2,1.46587769413859047409051186768893
103,4244.66784476598545978624679527975354,4243.2,1.46784476598545978624679527975354
104,4327.46979284103594673342429702541174,4326.0,1.46979284103594673342429702541174
105,4411.07172228418123858104271438492264,4409.6,1.47172228418123858104271438492264
106,4495.47363344992875629609150400182286,4494.0,1.47363344992875629609150400182286
107,4580.67552668279344364250052219895319,4579.2,1.47552668279344364250052219895319
108,4666.67740231767082090989418324327172,4665.2,1.47740231767082090989418324327172
109,4753.47926068019281467596554644850397,4752.0,1.47926068019281467596554644850397
110,4841.08110208706731258925822877944981,4839.6,1.48110208706731258925822877944981
111,4929.48292684640232630493707261015576,4928.0,1.48292684640232630493707261015576
112,5018.68473525801559627979905433107697,5017.2,1.48473525801559627979905433107697
113,5108.68652761373041660466229877940218,5107.2,1.48652761373041660466229877940218
114,5199.48830419765840930251843253961612,5198.0,1.48830419765840930251843253961612
115,5291.09006528646993708075764857207046,5289.6,1.49006528646993708075764857207046
116,5383.49181114965279520293065355900693,5382.0,1.49181114965279520293065355900693
117,5476.69354204975979144174099920049168,5475.2,1.49354204975979144174099920049168
118,5570.69525824264578205355344875618542,5569.2,1.49525824264578205355344875618542
119,5665.49695997769469801113237709891024,5664.0,1.49695997769469801113237709891024
120,5761.09864749803706989975952616606139,5759.6,1.49864749803706989975952616606139
121,5857.50032104075852162581867160459991,5856.0,1.50032104075852162581867160459991
122,5954.70198083709968418553767594857102,5953.2,1.50198083709968418553767594857102
123,6052.70362711264794856098158040298065,6051.2,1.50362711264794856098158040298065
124,6151.50526008752145914352093413419185,6150.0,1.50526008752145914352093413419185
125,6251.10687997654571953234569728974370,6249.6,1.50687997654571953234569728974370
126,6351.50848698942316737259079744860246,6350.0,1.50848698942316737259079744860246
127,6452.71008133089605433476318669621725,6451.2,1.51008133089605433476318669621725
128,6554.71166320090294476579366971692609,6553.2,1.51166320090294476579366971692609
129,6657.51323279472913448538402690019183,6656.0,1.51323279472913448538402690019183
130,6761.11479030315127283696002632035414,6759.6,1.51479030315127283696002632035414
131,6865.51633591257645571679622478449433,6864.0,1.51633591257645571679622478449433
132,6970.71786980517604234706959977040683,6969.2,1.51786980517604234706959977040683
133,7076.71939215901443679736788810891072,7075.2,1.51939215901443679736788810891072
134,7183.52090314817306400474694495728628,7182.0,1.52090314817306400474694495728628
135,7291.12240294286975195668859317307665,7289.6,1.52240294286975195668859317307665
136,7399.52389170957372803763764779850605,7398.0,1.52389170957372803763764779850605
137,7508.72536961111642425703583208521810,7507.2,1.52536961111642425703583208521810
138,7618.72683680679827249126691090472912,7617.2,1.52683680679827249126691090472912
139,7729.52829345249166879403042427877152,7728.0,1.52829345249166879403042427877152
140,7841.12973970074027041325394197339300,7839.6,1.52973970074027041325394197339300
141,7953.53117570085478462628515089384766,7952.0,1.53117570085478462628515089384766
142,8066.73260159900540046484378203358876,8065.2,1.53260159900540046484378203358876
143,8180.73401753831100578579330755841206,8179.2,1.53401753831100578579330755841206
144,8295.53542365892532500094501449572275,8294.0,1.53542365892532500094501449572275
145,8411.13682009812010863021171135841354,8409.6,1.53682009812010863021171135841354
146,8527.53820699036549801480272624068065,8526.0,1.53820699036549801480272624068065
147,8644.73958446740768036768501072943451,8643.2,1.53958446740768036768501072943451
148,8762.74095265834395042650737008453687,8761.2,1.54095265834395042650737008453687
149,8881.54231168969528149491582152415852,8880.0,1.54231168969528149491582152415852
150,9001.14366168547651054964989963990970,8999.6,1.54366168547651054964989963990970
151,9121.54500276726423441896279283320467,9120.0,1.54500276726423441896279283320467
152,9242.74633505426250848075059412313157,9241.2,1.54633505426250848075059412313157
153,9364.74765866336643804080974743325734,9363.2,1.54765866336643804080974743325734
154,9487.54897370922374756638476673622385,9486.0,1.54897370922374756638476673622385
155,9611.15028030429440735614558440146913,9609.6,1.55028030429440735614558440146913
156,9735.55157855890839693159145279132923,9734.0,1.55157855890839693159145279132923
157,9860.75286858132167769312949139914314,9859.2,1.55286858132167769312949139914314
158,9986.75415047777044823854820173784023,9985.2,1.55415047777044823854820173784023
159,10113.5554243525237476844349951248521,10112.0,1.5554243525237476844349951248521
160,10241.1566903079344750895940886511710,10239.6,1.5566903079344750895940886511710
161,10369.5579484444888853378002605952492,10368.0,1.5579484444888853378002605952492
162,10498.7591988608546229083850364797525,10497.2,1.5591988608546229083850364797525
163,10628.7604416539273504684011314506494,10627.2,1.5604416539273504684011314506494
164,10759.5616769188760291238700338923321,10758.0,1.5616769188760291238700338923321
165,10891.1629047491869012595897862109256,10889.6,1.5629047491869012595897862109256
166,11023.5641252367062289492620260431964,11022.0,1.5641252367062289492620260431964
167,11156.7653384716818377805122691720073,11155.2,1.5653384716818377805122691720073
168,11290.7665445428035115518517279517182,11289.2,1.5665445428035115518517279517182
169,11425.5677435372422858382914221364311,11424.0,1.5677435372422858382914221364311
170,11561.1689355406886832812811909215808,11559.6,1.5689355406886832812811909215808
171,11697.5701206373899341001273506740121,11696.0,1.5701206373899341001273506740121
172,11834.7712989101862231976781942265977,11833.2,1.5712989101862231976781942265977
173,11972.7724704405460029863656169222214,11971.2,1.5724704405460029863656169222214
174,12111.5736353086004117349900588740708,12110.0,1.5736353086004117349900588740708
175,12251.1747935931768356276956037702814,12249.6,1.5747935931768356276956037702814
176,12391.5759453718316487156230853465653,12390.0,1.5759453718316487156230853465653
177,12532.7770907208821687829313599984054,12531.2,1.5770907208821687829313599984054
178,12674.7782297154378633507628544203953,12673.2,1.5782297154378633507628544203953
179,12817.5793624294308376638982069283031,12816.0,1.5793624294308376638982069283031
180,12961.1804889356456413616721844778243,12959.6,1.5804889356456413616721844778243
181,13105.5816093057484226187604791429387,13104.0,1.5816093057484226187604791429387
182,13250.7827236103154639990609905047322,13249.2,1.5827236103154639990609905047322
183,13396.7838319188611300619965668201309,13395.2,1.5838319188611300619965668201309
184,13543.5849342998652584289229994528313,13542.0,1.5849342998652584289229994528313
185,13691.1860308208000240971970372445902,13689.6,1.5860308208000240971970372445902
186,13839.5871215481563065032588607678317,13838.0,1.5871215481563065032588607678317
187,13988.7882065474695922652256529651947,13987.2,1.5882065474695922652256529651947
188,14138.7892858833454388160754762332974,14137.2,1.5892858833454388160754762332974
189,14289.5903596194845331301116981857709,14288.0,1.5903596194845331301116981857709
190,14441.1914278187073724188351006150459,14439.6,1.5914278187073724188351006150459
191,14593.5924905429785980591022279908477,14592.0,1.5924905429785980591022279908477
192,14746.7935478534310120590396460466608,14745.2,1.5935478534310120590396460466608
193,14900.7945998103893082455544237147328,14899.2,1.5945998103893082455544237147328
194,15055.5956464733935464318606152813143,15054.0,1.5956464733935464318606152813143
195,15211.1966879012224035411712983771935,15209.6,1.5966879012224035411712983771935
196,15367.5977241519162326454608185373559,15366.0,1.5977241519162326454608185373559
197,15524.7987552827999628913824754449340,15523.2,1.5987552827999628913824754449340
198,15682.7997813505058745186621008203651,15681.2,1.5997813505058745186621008203651
199,15841.6008024109962834234553055235024,15840.0,1.6008024109962834234553055235024
200,16001.2018185195861725419681049481452,15999.6,1.6018185195861725419681049481452
201,16161.6028297309658062382593371274587,16160.0,1.6028297309658062382593371274587
202,16322.8038360992233683238343583553636,16321.2,1.6038360992233683238343583553636
203,16484.8048376778676638484835654780292,16483.2,1.6048376778676638484835654780292
204,16647.6058345198509282046735204361612,16646.0,1.6058345198509282046735204361612
205,16811.2068266775917881119801342367075,16809.6,1.6068266775917881119801342367075
206,16975.6078142029984250314284729629878,16974.0,1.6078142029984250314284729629878
207,17140.8087971474919876250066506053001,17139.2,1.6087971474919876250066506053001
208,17306.8097755620303117546945214276167,17305.2,1.6097755620303117546945214276167
209,17473.6107494971320019144466729248957,17472.0,1.6107494971320019144466729248957
210,17641.2117190029009380076122063872116,17639.6,1.6117190029009380076122063872116
211,17809.6126841290512719444901497820347,17808.0,1.6126841290512719444901497820347
212,17978.8136449249329865835693759089948,17977.2,1.6136449249329865835693759089948
213,18148.8146014395580894096693971766655,18147.2,1.6146014395580894096693971766655
214,18319.6155537216275302595955560094916,18318.0,1.6155537216275302595955560094916
215,18491.2165018195589236286760410699209,18489.6,1.6165018195589236286760410699209
216,18663.6174457815151785850561138789160,18662.0,1.6174457815151785850561138789160
217,18836.8183856554341379135749460236358,18835.2,1.6183856554341379135749460236358
218,19010.8193214890593426638222242454766,19009.2,1.6193214890593426638222242454766
219,19185.6202533299720431848061421011431,19184.0,1.6202533299720431848061421011431
220,19361.2211812256245987740156935312904,19359.6,1.6211812256245987740156935312904
221,19537.6221052233754066302345980687221,19536.0,1.6221052233754066302345980687221
222,19714.8230253705255347959515237144443,19713.2,1.6230253705255347959515237144443
223,19892.8239417143572265758401284889626,19891.2,1.6239417143572265758401284889626
224,20071.6248543021744838216947987414350,20070.0,1.6248543021744838216947987414350
225,20251.2257631813459446115938919668892,20249.6,1.6257631813459446115938919668892
226,20431.6266683993502950149715293589406,20430.0,1.6266683993502950149715293589406
227,20612.8275700038244858194446628308356,20611.2,1.6275700038244858194446628308356
228,20794.8284680426150476490845054698704,20793.2,1.6284680426150476490845054698704
229,20977.6293625638328364144829704075903,20976.0,1.6293625638328364144829704075903
230,21161.2302536159115760723401544491196,21159.6,1.6302536159115760723401544491196
231,21345.6311412476706052545738450946579,21344.0,1.6311412476706052545738450946579
232,21530.8320255083822911521489287676883,21529.2,1.6320255083822911521489287676883
233,21716.8329064478446134213614280347813,21715.2,1.6329064478446134213614280347813
234,21903.6337841164595044742229908362647,21902.0,1.6337841164595044742229908362647
235,22091.2346585653175808048086472762820,22089.6,1.6346585653175808048086472762820
236,22279.6355298462899980467367442620054,22278.0,1.6355298462899980467367442620054
237,22468.8363980121282498198121263836610,22467.2,1.6363980121282498198121263836610
238,22658.8372631165728358841800196964664,22657.2,1.6372631165728358841800196964664
