Eigenstate,Energy,Kinetic Energy,Potential Energy
1,0.500000000067754818551434621573327837,0.0,0.500000000067754818551434621573327837
2,1.84623093809338332088464932299875004,1.2,0.64623093809338332088464932299875004
3,3.93633761100410663188898417688399870,3.2,0.73633761100410663188898417688399870
4,6.79966528052018725254391461412893498,6.0,0.79966528052018725254391461412893498
5,10.4480465799729576337933329458072774,9.6,0.8480465799729576337933329458072774
6,14.8870660041234224205884472197062351,14.0,0.8870660041234224205884472197062351
7,20.1197208344127334043763925423506329,19.2,0.9197208344127334043763925423506329
8,26.1477838572194231343226045077574171,25.2,0.9477838572194231343226045077574171
9,32.9723835715507100861000235578539701,32.0,0.9723835715507100861000235578539701
10,40.5942802315557770915519581302743563,39.6,0.9942802315557770915519581302743563
11,49.0140094073760960976231162339691935,48.0,1.0140094073760960976231162339691935
12,58.2319621943166289212836151279418845,57.2,1.0319621943166289212836151279418845
13,68.2484327224434566801105406812181377,67.2,1.0484327224434566801105406812181377
14,79.0636476894399629790956783400825631,78.0,1.0636476894399629790956783400825631
15,90.6777854764210318627368614922622491,89.6,1.0777854764210318627368614922622491
16,103.090988952803501156586704006915144,102.0,1.090988952803501156586704006915144
17,116.303374309767672287036218567483554,115.2,1.103374309767672287036218567483554
18,130.315037311263513511025178284738963,129.2,1.115037311263513511025178284738963
19,145.126057817114640197226757019142684,144.0,1.126057817114640197226757019142684
20,160.736503120652253194517549747666094,159.6,1.136503120652253194517549747666094
21,177.146430454796837428879929925045424,176.0,1.146430454796837428879929925045424
22,194.355888903216903098974036922241006,193.2,1.155888903216903098974036922241006
23,212.364920878265511139307505442655968,211.2,1.164920878265511139307505442655968
24,231.173563278380696002994762469123094,230.0,1.173563278380696002994762469123094
25,250.781848404881392541574948400071755,249.6,1.181848404881392541574948400071755
26,271.189804695775024143126010662248043,270.0,1.189804695775024143126010662248043
27,292.397457318720078879429188579469196,291.2,1.197457318720078879429188579469196
28,314.404828654385149597469437106960804,313.2,1.204828654385149597469437106960804
29,337.211938693650886064651005762472606,336.0,1.211938693650886064651005762472606
30,360.818805366451819704710505397538405,359.6,1.218805366451819704710505397538405
31,385.225444815909082959020393204124050,384.0,1.225444815909082959020393204124050
32,410.431871628327145721656991344179513,409.2,1.231871628327145721656991344179513
33,436.438099027318043491319162798786924,435.2,1.238099027318043491319162798786924
34,463.244139038566025616181871251219724,462.0,1.244139038566025616181871251219724
35,490.850002630406356941449871577788832,489.6,1.250002630406356941449871577788832
36,519.255699834358527290371481001526956,518.0,1.255699834358527290371481001526956
37,548.461239848950038660617992450171551,547.2,1.261239848950038660617992450171551
38,578.466631129536521274539825196865667,577.2,1.266631129536521274539825196865667
39,609.271881466326080972100645053797833,608.0,1.271881466326080972100645053797833
40,640.876998052419959651598593574850973,639.6,1.276998052419959651598593574850973
41,673.281987543364840189449228965428728,672.0,1.281987543364840189449228965428728
42,706.486856109457134668711310294124865,705.2,1.286856109457134668711310294124865
43,740.491609481833108401051273428759380,739.2,1.291609481833108401051273428759380
44,775.296252993210598211283891960515928,774.0,1.296252993210598211283891960515928
45,810.900791614010513884586973234411607,809.6,1.300791614010513884586973234411607
46,847.305229984473175393860661549677549,846.0,1.305229984473175393860661549677549
47,884.509572443291061912343409258596966,883.2,1.309572443291061912343409258596966
48,922.513823053201962252327100479770828,921.2,1.313823053201962252327100479770828
49,961.317985623921853826899731831164691,960.0,1.317985623921853826899731831164691
50,1000.92206373274271451797661119382723,999.6,1.32206373274271451797661119382723
51,1041.32606074307500487139697566482661,1040.0,1.32606074307500487139697566482661
52,1082.52997982117621282555379294993709,1081.2,1.32997982117621282555379294993709
53,1124.53382395127440306147054906639596,1123.2,1.33382395127440306147054906639596
54,1167.33759594926815193077610046493571,1166.0,1.33759594926815193077610046493571
55,1210.94129847516077342551116221029042,1209.6,1.34129847516077342551116221029042
56,1255.34493404436666708357024339346119,1254.0,1.34493404436666708357024339346119
57,1300.54850503801041975845975202047611,1299.2,1.34850503801041975845975202047611
58,1346.55201371232449599575903062551340,1345.2,1.35201371232449599575903062551340
59,1393.35546220723859781139265598573397,1392.0,1.35546220723859781139265598573397
60,1440.95885255424275015911808532117130,1439.6,1.35885255424275015911808532117130
61,1489.36218668359660414712584971578715,1488.0,1.36218668359660414712584971578715
62,1538.56546643094914905853446702810774,1537.2,1.36546643094914905853446702810774
63,1588.56869354342578234153996391779327,1587.2,1.36869354342578234153996391779327
64,1639.37186968523337425505663026616445,1638.0,1.37186968523337425505663026616445
65,1690.97499644282842901571177383620337,1689.6,1.37499644282842901571177383620337
66,1743.37807532968859695300198062346716,1742.0,1.37807532968859695300198062346716
67,1796.58110779072352988809185151769372,1795.2,1.38110779072352988809185151769372
68,1850.58409520635731579092688439041462,1849.2,1.38409520635731579092688439041462
69,1905.38703889631141609960481022405769,1904.0,1.38703889631141609960481022405769
70,1960.98994012311410081768475977146334,1959.6,1.38994012311410081768475977146334
71,2017.39280009535977780138261897807815,2016.0,1.39280009535977780138261897807815
72,2074.59561997073931440621991454936288,2073.2,1.39561997073931440621991454936288
73,2132.59840085886039665629038899246940,2131.2,1.39840085886039665629038899246940
74,2191.40114382387515225075478592256917,2190.0,1.40114382387515225075478592256917
75,2251.00384988693063262107139054208670,2249.6,1.40384988693063262107139054208670
76,2311.40652002845629969571405317885694,2310.0,1.40652002845629969571405317885694
77,2372.60915519030136063071134798550338,2371.2,1.40915519030136063071134798550338
78,2434.61175627773362796615994832298094,2433.2,1.41175627773362796615994832298094
79,2497.41432416131053584887291778090630,2496.0,1.41432416131053584887291778090630
80,2561.01685967863200483567885680454045,2559.6,1.41685967863200483567885680454045
81,2625.41936363598399845041134910098714,2624.0,1.41936363598399845041134910098714
82,2690.62183680988085321707432257676137,2689.2,1.42183680988085321707432257676137
83,2756.62427994851377515787908831034499,2755.2,1.42427994851377515787908831034499
84,2823.42669377311227145313283015607435,2822.0,1.42669377311227145313283015607435
85,2891.02907897922472668378435683173794,2889.6,1.42907897922472668378435683173794
86,2959.43143623792381721204349743404468,2958.0,1.43143623792381721204349743404468
87,3028.63376619694199978469087661707636,3027.2,1.43376619694199978469087661707636
88,3098.63606948174188706595870909675982,3097.2,1.43606948174188706595870909675982
89,3169.43834669652593930470189620357030,3168.0,1.43834669652593930470189620357030
90,3241.04059842518955812384938212725597,3239.6,1.44059842518955812384938212725597
91,3313.44282523222134696807508405702671,3312.0,1.44282523222134696807508405702671
92,3386.64502766355401444808833588552081,3385.2,1.44502766355401444808833588552081
93,3460.64720624736913456488847320126223,3459.2,1.44720624736913456488847320126223
94,3535.44936149485873486858982543125254,3534.0,1.44936149485873486858982543125254
95,3611.05149390094646245239454063102371,3609.6,1.45149390094646245239454063102371
96,3687.45360394497087586017412571511138,3686.0,1.45360394497087586017412571511138
97,3764.65569209133322664401122668655517,3763.2,1.45569209133322664401122668655517
98,3842.65775879011192143375812772825571,3841.2,1.45775879011192143375812772825571
99,3921.45980447764570190847982922016740,3920.0,1.45980447764570190847982922016740
100,4001.06182957708743371923315051964898,3999.6,1.46182957708743371923315051964898
101,4081.46383449893026610847899234502362,4080.0,1.46383449893026610847899234502362
102,4162.66581964150779839670394075829197,4161.2,1.46581964150779839670394075829197
103,4244.66778539146978159321433075823224,4243.2,1.46778539146978159321433075823224
104,4327.46973212423477612335612246898226,4326.0,1.46973212423477612335612246898226
105,4411.07166020442109359065617815052172,4409.6,1.47166020442109359065617815052172
106,4495.47356998625725972813775933412160,4494.0,1.47356998625725972813775933412160
107,4580.67546181397315761110710370324984,4579.2,1.47546181397315761110710370324984
108,4666.67733602217293096415405918732089,4665.2,1.47733602217293096415405918732089
109,4753.47919293619065880157536086768360,4752.0,1.47919293619065880157536086768360
110,4841.08103287242975022030431424056885,4839.6,1.48103287242975022030431424056885
111,4929.48285613868694230323212095960550,4928.0,1.48285613868694230323212095960550
112,5018.68466303446173465717274805086427,5017.2,1.48466303446173465717274805086427
113,5108.68645385125203857392924893621053,5107.2,1.48645385125203857392924893621053
114,5199.48822887283677004516310085839469,5198.0,1.48822887283677004516310085839469
115,5291.08998837554607541326580569408889,5289.6,1.48998837554607541326580569408889
116,5383.49173262851983010878368674705457,5382.0,1.49173262851983010878368674705457
117,5476.69346189395501921194033225062789,5475.2,1.49346189395501921194033225062789
118,5570.69517642734256754469541429930316,5569.2,1.49517642734256754469541429930316
119,5665.49687647769415328606264021025835,5664.0,1.49687647769415328606264021025835
120,5761.09856228775951326117471460590260,5759.6,1.49856228775951326117471460590260
121,5857.50023409423470978733883865326146,5856.0,1.50023409423470978733883865326146
122,5954.70189212796181004719379969136556,5953.2,1.50189212796181004719379969136556
123,6052.70353661412039676614772069345196,6051.2,1.50353661412039676614772069345196
124,6151.50516777241131129146697205750907,6150.0,1.50516777241131129146697205750907
125,6251.10678581723300060412388422902876,6249.6,1.50678581723300060412388422902876
126,6351.50839095785082459721328412091334,6350.0,1.50839095785082459721328412091334
127,6452.70998339855965937686156954506985,6451.2,1.50998339855965937686156954506985
128,6554.71156333884010975436263820789311,6553.2,1.51156333884010975436263820789311
129,6657.51313097350863202503638293942912,6656.0,1.51313097350863202503638293942912
130,6761.11468649286184974743889089989482,6759.6,1.51468649286184974743889089989482
131,6865.51623008281532983243499016502579,6864.0,1.51623008281532983243499016502579
132,6970.71776192503707127444401412502039,6969.2,1.51776192503707127444401412502039
133,7076.71928219707594707558431586195216,7075.2,1.51928219707594707558431586195216
134,7183.52079107248532863748506851167819,7182.0,1.52079107248532863748506851167819
135,7291.12228872094210378719031104214556,7289.6,1.52228872094210378719031104214556
136,7399.52377530836129591605024489444035,7398.0,1.52377530836129591605024489444035
137,7508.72525099700647840255171598273919,7507.2,1.52525099700647840255171598273919
138,7618.72671594559616487804884256641003,7617.2,1.52671594559616487804884256641003
139,7729.52817030940635378844972086007491,7728.0,1.52817030940635378844972086007491
140,7841.12961424036939025894652279545132,7839.6,1.52961424036939025894652279545132
141,7953.53104788716930371138689752867387,7952.0,1.53104788716930371138689752867387
142,8066.73247139533377161061755733391948,8065.2,1.53247139533377161061755733391948
143,8180.73388490732285106596149514229873,8179.2,1.53388490732285106596149514229873
144,8295.53528856261461283435406579591306,8294.0,1.53528856261461283435406579591306
145,8411.13668249778780808390327086736345,8409.6,1.53668249778780808390327086736345
146,8527.53806684660169040788985486008229,8526.0,1.53806684660169040788985486008229
147,8644.73944174007310737625629871822348,8643.2,1.53944174007310737625629871822348
148,8762.74080730655097695360054191789529,8761.2,1.54080730655097695360054191789529
149,8881.54216367178825058461696094135034,8880.0,1.54216367178825058461696094135034
150,9001.14351095901146658784870999662856,8999.6,1.54351095901146658784870999662856
151,9121.54484928898798977199371280858036,9120.0,1.54484928898798977199371280858036
152,9242.74617878009102757392014468703518,9241.2,1.54617878009102757392014468703518
153,9364.74749954836251166807247369991979,9363.2,1.54749954836251166807247369991979
154,9487.54881170757392894649596714055499,9486.0,1.54881170757392894649596714055499
155,9611.15011536928518010545894356512263,9609.6,1.55011536928518010545894356512263
156,9735.55141064290154370502179701412512,9734.0,1.55141064290154370502179701412512
157,9860.75269763572881674814138273106129,9859.2,1.55269763572881674814138273106129
158,9986.75397645302670359739817000814489,9985.2,1.55397645302670359739817000814489
159,10113.5552471980605169021648395514693,10112.0,1.5552471980605169021648395514693
160,10241.1565099721512568737398864919627,10239.6,1.5565099721512568737398864919627
161,10369.5577648747241274045511657647383,10368.0,1.5577648747241274045511657647383
162,10498.7590120033555484925148837821710,10497.2,1.5590120033555484925148837821710
163,10628.7602514538187198238333102337270,10627.2,1.5602514538187198238333102337270
164,10759.5614833201277901508112198551510,10758.0,1.5614833201277901508112198551510
165,10891.1627076945806810648932284658752,10889.6,1.5627076945806810648932284658752
166,11023.5639246678006156804952172918028,11022.0,1.5639246678006156804952172918028
167,11156.7651343287763994619347396007618,11155.2,1.5651343287763994619347396007618
168,11290.7663367649014958823593346038263,11289.2,1.5663367649014958823593346038263
169,11425.5675320620119419767481766179238,11424.0,1.5675320620119419767481766179238
170,11561.1687203044231435320891052945814,11559.6,1.5687203044231435320891052945814
171,11697.5699015749655901091771586440370,11696.0,1.5699015749655901091771586440370
172,11834.7710759550195277626788813612965,11833.2,1.5710759550195277626788813612965
173,11972.7722435245486248617791797821263,11971.2,1.5722435245486248617791797821263
174,12111.5734043621326668549114029613926,12110.0,1.5734043621326668549114029613926
175,12251.1745585449993139634901753451706,12249.6,1.5745585449993139634901753451706
176,12391.5757061490549515109867798587159,12390.0,1.5757061490549515109867798587159
177,12532.7768472489146661478714616815098,12531.2,1.5768472489146661478714616815098
178,12674.7779819179313771268063762214878,12673.2,1.5779819179313771268063762214878
179,12817.5791102282241490730222002041655,12816.0,1.5791102282241490730222002041655
180,12961.1802322507057171962653899324840,12959.6,1.5802322507057171962653899324840
181,13105.5813480551092475928899110312780,13104.0,1.5813480551092475928899110312780
182,13250.7824577100143603334670013397456,13249.2,1.5824577100143603334670013397456
183,13396.7835612828724383851752702782634,13395.2,1.5835612828724383851752702782634
184,13543.5846588400312466104957616975942,13542.0,1.5846588400312466104957616975942
185,13691.1857504467588826503241450805404,13689.6,1.5857504467588826503241450805404
186,13839.5868361672670806601077312785533,13838.0,1.5868361672670806601077312785533
187,13988.7879160647338916994945663096274,13987.2,1.5879160647338916994945663096274
188,14138.7889902013257562117975741423849,14137.2,1.5889902013257562117975741423849
189,14289.5900586382189923243512226533751,14288.0,1.5900586382189923243512226533751
190,14441.1911214356207156208245948108311,14439.6,1.5911214356207156208245948108311
191,14593.5921786527892096080293284867884,14592.0,1.5921786527892096080293284867884
192,14746.7932303480537632594114370988385,14745.2,1.5932303480537632594114370988385
193,14900.7942765788339939390603386085572,14899.2,1.5942765788339939390603386085572
194,15055.5953174016586690470034988844049,15054.0,1.5953174016586690470034988844049
195,15211.1963528721840443181303669510945,15209.6,1.5963528721840443181303669510945
196,15367.5973830452117324666301600463083,15366.0,1.5973830452117324666301600463083
197,15524.7984079747061165512496132957692,15523.2,1.5984079747061165512496132957692
198,15682.7994277138113222233338865505290,15681.2,1.5994277138113222233338865505290
199,15841.6004423148677616914898815840471,15840.0,1.6004423148677616914898815840471
200,16001.2014518294282633430555324484225,15999.6,1.6014518294282633430555324484225
201,16161.6024563082737979987779515496015,16160.0,1.6024563082737979987779515496015
202,16322.8034558014288151768359032518861,16321.2,1.6034558014288151768359032518861
203,16484.8044503581762000209123465237495,16483.2,1.6044503581762000209123465237495
204,16647.6054400270718625072038058608839,16646.0,1.6054400270718625072038058608839
205,16811.2064248559589688957031469656985,16809.6,1.6064248559589688957031469656985
206,16975.6074048919818284444782854785439,16974.0,1.6074048919818284444782854785439
207,17140.8083801815994412575979296222704,17139.2,1.6083801815994412575979296222704
208,17306.8093507705987214881351042522657,17305.2,1.6093507705987214881351042522657
209,17473.6103167041074016391023215915968,17472.0,1.6103167041074016391023215915968
210,17641.2112780266066294579445754785485,17639.6,1.6112780266066294579445754785485
211,17809.6122347819432647835729884986532,17808.0,1.6122347819432647835729884986532
212,17978.8131870133418865730899339212940,17977.2,1.6131870133418865730899339212940
213,18148.8141347634165144861203662653762,18147.2,1.6141347634165144861203662653762
214,18319.6150780741820600024620185095304,18318.0,1.6150780741820600024620185095304
215,18491.2160169870655062793073671900071,18489.6,1.6160169870655062793073671900071
216,18663.6169515429168307025175070526922,18662.0,1.6169515429168307025175070526922
217,18836.8178817820196740910126100911506,18835.2,1.6178817820196740910126100911506
218,19010.8188077441017655267515280828621,19009.2,1.6188077441017655267515280828621
219,19185.6197294683451060832607526392296,19184.0,1.6197294683451060832607526392296
220,19361.2206469933959239608633029002016,19359.6,1.6206469933959239608633029002016
221,19537.6215603573743989309216075511109,19536.0,1.6215603573743989309216075511109
222,19714.8224695978841732864844494229120,19713.2,1.6224695978841732864844494229120
223,19892.8233747520216428601932708051693,19891.2,1.6233747520216428601932708051693
224,20071.6242758563850431687717565935588,20070.0,1.6242758563850431687717565935588
225,20251.2251729470833332406660967517983,20249.6,1.6251729470833332406660967517983
226,20431.6260660597448806648029916783466,20430.0,1.6260660597448806648029916783466
227,20612.8269552295259565033373445144768,20611.2,1.6269552295259565033373445144768
228,20794.8278404911190418786166127112712,20793.2,1.6278404911190418786166127112712
229,20977.6287218787609533865313958276519,20976.0,1.6287218787609533865313958276519
230,21161.2295994262407920225164346946400,21159.6,1.6295994262407920225164346946400
231,21345.6304731669077174094928499765563,21344.0,1.6304731669077174094928499765563
232,21530.8313431336785577366922465573758,21529.2,1.6313431336785577366922465573758
233,21716.8322093590452503948886086782256,21715.2,1.6322093590452503948886086782256
234,21903.6330718750821294541248212781802,21902.0,1.6330718750821294541248212781802
235,22091.2339307134530531550552753430800,22089.6,1.6339307134530531550552753430800
236,22279.6347859054183811126952670935659,22278.0,1.6347859054183811126952670935659
237,22468.8356374818418048527262115080987,22467.2,1.6356374818418048527262115080987
238,22658.8364854731970334113906429776769,22657.2,1.6364854731970334113906429776769
