Eigenstate,Energy,Kinetic Energy,Potential Energy
1,0.500000000020292568217262133148016625,0.0,0.500000000020292568217262133148016625
2,1.84623093778357386379814295756660563,1.2,0.64623093778357386379814295756660563
3,3.93633761009406351677073179447682671,3.2,0.73633761009406351677073179447682671
4,6.79966527862466327041540158130118666,6.0,0.79966527862466327041540158130118666
5,10.4480465766895043554681497555533240,9.6,0.8480465766895043554681497555533240
6,14.8870659990425367797623512478316779,14.0,0.8870659990425367797623512478316779
7,20.1197208271215950350402561504552980,19.2,0.9197208271215950350402561504552980
8,26.1477838473034518818626818744210078,25.2,0.9477838473034518818626818744210078
9,32.9723835585942892287314766034452228,32.0,0.9723835585942892287314766034452228
10,40.5942802151426194646515014588821676,39.6,0.9942802151426194646515014588821676
11,49.0140093870894421117575995598243092,48.0,1.0140093870894421117575995598243092
12,58.2319621697393589145344106380132104,57.2,1.0319621697393589145344106380132104
13,68.2484326931581566323802686590572777,67.2,1.0484326931581566323802686590572777
14,79.0636476550289633848598375337748345,78.0,1.0636476550289633848598375337748345
15,90.6777854364664304094668280578803473,89.6,1.0777854364664304094668280578803473
16,103.090988906887175229335634748010205,102.0,1.090988906887175229335634748010205
17,116.303374257471284853682451612279371,115.2,1.103374257471284853682451612279371
18,130.315037252168514566996144562908785,129.2,1.115037252168514566996144562908785
19,145.126057750802265149892857936216211,144.0,1.126057750802265149892857936216211
20,160.736503046703519087248532761163840,159.6,1.136503046703519087248532761163840
21,177.146430372792537606907795561940262,176.0,1.146430372792537606907795561940262
22,194.355888812737600729268805439128518,193.2,1.155888812737600729268805439128518
23,212.364920778891531872500932688252735,211.2,1.164920778891531872500932688252735
24,231.173563169692119982372098283112484,230.0,1.173563169692119982372098283112484
25,250.781848286458045907518128119084508,249.6,1.181848286458045907518128119084508
26,271.189804567196470142032751770974777,270.0,1.189804567196470142032751770974777
27,292.397457179565608658316314856658983,291.2,1.197457179565608658316314856658983
28,314.404828504233772745504973224000003,313.2,1.204828504233772745504973224000003
29,337.211938532081320948326989752128053,336.0,1.211938532081320948326989752128053
30,360.818805193042483632650432716511393,359.6,1.218805193042483632650432716511393
31,385.225444630238082204414318986663062,384.0,1.225444630238082204414318986663062
32,410.431871429972265424277533600703162,409.2,1.231871429972265424277533600703162
33,436.438098815856737456464417468933931,435.2,1.238098815856737456464417468933931
34,463.244138813575406024342601526614194,462.0,1.244138813575406024342601526614194
35,490.850002391463183979739994154026544,489.6,1.250002391463183979739994154026544
36,519.255699581039198714598675709308388,518.0,1.255699581039198714598675709308388
37,548.461239580830579295162592929227666,547.2,1.261239580830579295162592929227666
38,578.466630846192572455849889209003542,577.2,1.266630846192572455849889209003542
39,609.271881167332889940520405592362546,608.0,1.271881167332889940520405592362546
40,640.876997737352368895367029965710232,639.6,1.276997737352368895367029965710232
41,673.281987211797276743990384281716682,672.0,1.281987211797276743990384281716682
42,706.486855760963599373753470060767635,705.2,1.286855760963599373753470060767635
43,740.491609115987165117631696090040258,739.2,1.291609115987165117631696090040258
44,775.296252609585363000298819465223744,774.0,1.296252609585363000298819465223744
45,810.900791212178644148216796240353146,809.6,1.300791212178644148216796240353146
46,847.305229564006858980924680812442513,846.0,1.305229564006858980924680812442513
47,884.509572003762006188407648955491931,883.2,1.309572003762006188407648955491931
48,922.513822594181383135193798565890485,921.2,1.313822594181383135193798565890485
49,961.317985144980464787942266410033526,960.0,1.317985144980464787942266410033526
50,1000.92206323345071554964340605114358,999.6,1.32206323345071554964340605114358
51,1041.32606022300207142108807386344617,1040.0,1.32606022300207142108807386344617
52,1082.52997927989148469597110971787366,1081.2,1.32997927989148469597110971787366
53,1124.53382338834647327745435955419397,1123.2,1.33382338834647327745435955419397
54,1167.33759536426505557256376221550108,1166.0,1.33759536426505557256376221550108
55,1210.94129786764997642828770431790309,1209.6,1.34129786764997642828770431790309
56,1255.34493341391505500312251862528831,1254.0,1.34493341391505500312251862528831
57,1300.54850438418428650269529588281510,1299.2,1.34850438418428650269529588281510
58,1346.55201303468953252180604127969810,1345.2,1.35201303468953252180604127969810
59,1393.35546150535988078795849353948639,1392.0,1.35546150535988078795849353948639
60,1440.95885182768473059374873790266672,1439.6,1.35885182768473059374873790266672
61,1489.36218593192309597797797048604050,1488.0,1.36218593192309597797797048604050
62,1538.56546565372331771024385905898888,1537.2,1.36546565372331771024385905898888
63,1588.56869274021013324474571595795447,1587.2,1.36869274021013324474571595795447
64,1639.37186885558974132911779185557722,1638.0,1.37186885558974132911779185557722
65,1690.97499558631796311413316008420752,1689.6,1.37499558631796311413316008420752
66,1743.37807444587175427106746982958875,1742.0,1.37807444587175427106746982958875
67,1796.58110687916006033218677388975326,1795.2,1.38110687916006033218677388975326
68,1850.58409426660625130901575951048621,1849.2,1.38409426660625130901575951048621
69,1905.38703792793105897231644312153294,1904.0,1.38703792793105897231644312153294
70,1960.98993912566201190944392976939135,1959.6,1.38993912566201190944392976939135
71,2017.39279906839276477101502990915118,2016.0,1.39279906839276477101502990915118
72,2074.59561891381341987644616118944566,2073.2,1.39561891381341987644616118944566
73,2132.59839977153088634151370734943374,2131.2,1.39839977153088634151370734943374
74,2191.40114270569650304253754123481961,2190.0,1.40114270569650304253754123481961
75,2251.00384873745652063068563192010769,2249.6,1.40384873745652063068563192010769
76,2311.40651884723958825314260093944969,2310.0,1.40651884723958825314260093944969
77,2372.60915397689408823946714292850841,2371.2,1.40915397689408823946714292850841
78,2434.61175503168699621328316848271344,2433.2,1.41175503168699621328316848271344
79,2497.41432288217489726945741528116723,2496.0,1.41432288217489726945741528116723
80,2561.01685836595685073127191348548585,2559.6,1.41685836595685073127191348548585
81,2625.41936228931794666062315660762357,2624.0,1.41936228931794666062315660762357
82,2690.62183542877163584372640199898770,2689.2,1.42183542877163584372640199898770
83,2756.62427853250822624101390271957088,2755.2,1.42427853250822624101390271957088
84,2823.42669232175631459819979278340468,2822.0,1.42669232175631459819979278340468
85,2891.02907749206336263931070241777874,2889.6,1.42907749206336263931070241777874
86,2959.43143471450111139709189524624669,2958.0,1.43143471450111139709189524624669
87,3028.63376463680106976539886876680432,3027.2,1.43376463680106976539886876680432
88,3098.63606788442488998044867715055215,3097.2,1.43606788442488998044867715055215
89,3169.43834506157405923564378136493993,3168.0,1.43834506157405923564378136493993
90,3241.04059675214299341795192423471035,3239.6,1.44059675214299341795192423471035
91,3313.44282352061929750177488697059555,3312.0,1.44282352061929750177488697059555
92,3386.64502591293466883869983625253713,3385.2,1.44502591293466883869983625253713
93,3460.64720445726965732647137254736258,3459.2,1.44720445726965732647137254736258
94,3535.44935966481525351178426879597257,3534.0,1.44935966481525351178426879597257
95,3611.05149203049405452746789630126073,3609.6,1.45149203049405452746789630126073
96,3687.45360203364355594251691316173009,3686.0,1.45360203364355594251691316173009
97,3764.65569013866393326131317857896624,3763.2,1.45569013866393326131317857896624
98,3842.65775679563250393408915833734759,3841.2,1.45775679563250393408915833734759
99,3921.45980244088690726849396391095176,3920.0,1.45980244088690726849396391095176
100,4001.06182749757889329170709145192213,3999.6,1.46182749757889329170709145192213
101,4081.46383237620048230839045444354501,4080.0,1.46383237620048230839045444354501
102,4162.66581747508413132504823292749458,4161.2,1.46581747508413132504823292749458
103,4244.66778318087843559775115864266043,4243.2,1.46778318087843559775115864266043
104,4327.46972986900078629547147719070854,4326.0,1.46972986900078629547147719070854
105,4411.07165790406831219751790099825554,4409.6,1.47165790406831219751790099825554
106,4495.47356764030834257931616308472175,4494.0,1.47356764030834257931616308472175
107,4580.67545942194955035882538718941417,4579.2,1.47545942194955035882538718941417
108,4666.67733358359485533632605876531457,4665.2,1.47733358359485533632605876531457
109,4753.47919045057709876678127790300376,4752.0,1.47919045057709876678127790300376
110,4841.08103033929843808384786438961617,4839.6,1.48103033929843808384786438961617
111,4929.48285355755434473341539286229159,4928.0,1.48285355755434473341539286229159
112,5018.68466040484303864091775319747249,5017.2,1.48466040484303864091775319747249
113,5108.68645117266113730086774881197019,5107.2,1.48645117266113730086774881197019
114,5199.48822614478624871930891854734689,5198.0,1.48822614478624871930891854734689
115,5291.08998559754719699137619026869773,5289.6,1.48998559754719699137619026869773
116,5383.49172980008252096450874964797898,5382.0,1.49172980008252096450874964797898
117,5476.69345901458785472485173621715826,5475.2,1.49345901458785472485173621715826
118,5570.69517349655275761327784557929781,5569.2,1.49517349655275761327784557929781
119,5665.49687349498752776374356135943237,5664.0,1.49687349498752776374356135943237
120,5761.09855925264050731445981288785073,5759.6,1.49855925264050731445981288785073
121,5857.50023100620634917511259040470383,5856.0,1.50023100620634917511259040470383
122,5954.70188898652569632023629089935045,5953.2,1.50188898652569632023629089935045
123,6052.70353341877669238591053913917357,6051.2,1.50353341877669238591053913917357
124,6151.50516452265872466714259350633076,6150.0,1.50516452265872466714259350633076
125,6251.10678251256877104703434007712630,6249.6,1.50678251256877104703434007712630
126,6351.50838759777070719153528895708123,6350.0,1.50838759777070719153528895708123
127,6452.70997998255790976569662927215488,6451.2,1.50997998255790976569662927215488
128,6554.71155986640946884015148555776376,6553.2,1.51155986640946884015148555776376
129,6657.51312744414031058330840900822330,6656.0,1.51312744414031058330840900822330
130,6761.11468290604551295287790110863774,6759.6,1.51468290604551295287790110863774
131,6865.51622643803908169623365312915853,6864.0,1.51622643803908169623365312915853
132,6970.71775822178743899190941179888817,6969.2,1.51775822178743899190941179888817
133,7076.71927843483786528294841984072992,7075.2,1.51927843483786528294841984072992
134,7183.52078725074212357686352408677430,7182.0,1.52078725074212357686352408677430
135,7291.12228483917547737862354928432673,7289.6,1.52228483917547737862354928432673
136,7399.52377136605130973555118908251756,7398.0,1.52377136605130973555118908251756
137,7508.72524699363153756507406320229175,7507.2,1.52524699363153756507406320229175
138,7618.72671188063300182427999182752285,7617.2,1.52671188063300182427999182752285
139,7729.52816618233001197432193828998476,7728.0,1.52816618233001197432193828998476
140,7841.12961005065320774674978748219765,7839.6,1.52961005065320774674978748219765
141,7953.53104363428489666135618243147674,7952.0,1.53104363428489666135618243147674
142,8066.73246707875101767185652933816759,8065.2,1.53246707875101767185652933816759
143,8180.73388052650987266555408245497919,8179.2,1.53388052650987266555408245497919
144,8295.53528411703776036350387034834082,8294.0,1.53528411703776036350387034834082
145,8411.13667798691164297993034599946333,8409.6,1.53667798691164297993034599946333
146,8527.53806226988896813090250390149486,8526.0,1.53806226988896813090250390149486
147,8644.73943709698476027930438867427311,8643.2,1.53943709698476027930438867427311
148,8762.74080259654609704510542166225174,8761.2,1.54080259654609704510542166225174
149,8881.54215889432407218186082320328903,8880.0,1.54215889432407218186082320328903
150,9001.14350611354334886029514569903945,8999.6,1.54350611354334886029514569903945
151,9121.54484437496939917319813141414575,9120.0,1.54484437496939917319813141414575
152,9242.74617379697352016077757551489975,9241.2,1.54617379697352016077757551489975
153,9364.74749449559571530613707386881566,9363.2,1.54749449559571530613707386881566
154,9487.54880658460552540009461053823278,9486.0,1.54880658460552540009461053823278
155,9611.15011017556088701130815555286118,9609.6,1.55011017556088701130815555286118
156,9735.55140537786509642804440425424563,9734.0,1.55140537786509642804440425424563
157,9860.75269229882195011816666165973357,9859.2,1.55269229882195011816666165973357
158,9986.75397104368913352541551117967705,9985.2,1.55397104368913352541551117967705
159,10113.5552417157299218747878346162553,10112.0,1.5552417157299218747878346162553
160,10241.1565044162632593245240740994535,10239.6,1.5565044162632593245240740994535
161,10369.5577592447122749607948367233320,10368.0,1.5577592447122749607948367233320
162,10498.7590062986512950961583982222521,10497.2,1.5590062986512950961583982222521
163,10628.7602456738514067250585546069708,10627.2,1.5602456738514067250585546069708
164,10759.5614774643246267729279773352907,10758.0,1.5614774643246267729279773352907
165,10891.1627017623667257390847950124313,10889.6,1.5627017623667257390847950124313
166,11023.5639186585987562489813481013496,11022.0,1.5639186585987562489813481013496
167,11156.7651282420073337480946389439287,11155.2,1.5651282420073337480946389439287
168,11290.7663305999837120263421014264450,11289.2,1.5663305999837120263421014264450
169,11425.5675258183616986350834397587099,11424.0,1.5675258183616986350834397587099
170,11561.1687139814544499397942983489316,11559.6,1.5687139814544499397942983489316
171,11697.5698951720901860028426490267864,11696.0,1.5698951720901860028426490267864
172,11834.7710694716468631629959128904099,11833.2,1.5710694716468631629959128904099
173,11972.7722369600858397139596049724479,11971.2,1.5722369600858397139596049724479
174,12111.5733977159845705254315559587221,12110.0,1.5733977159845705254315559587221
175,12251.1745518165683645915747539730140,12249.6,1.5745518165683645915747539730140
176,12391.5756993377412352132316151740701,12390.0,1.5756993377412352132316151740701
177,12532.7768403541158760743871519872902,12531.2,1.5768403541158760743871519872902
178,12674.7779749390427923672472088007319,12673.2,1.5779749390427923672472088007319
179,12817.5791031646386134108475023428083,12816.0,1.5791031646386134108475023428083
180,12961.1802251018136177095623172534069,12959.6,1.5802251018136177095623172534069
181,13105.5813408202984931000688641627657,13104.0,1.5813408202984931000688641627657
182,13250.7824503886703596821225505916649,13249.2,1.5824503886703596821225505916649
183,13396.7835538743780785823868877678506,13395.2,1.5835538743780785823868877678506
184,13543.5846513437668707928238427885468,13542.0,1.5846513437668707928238427885468
185,13691.1857428621022678917375988201128,13689.6,1.5857428621022678917375988201128
186,13839.5868284935934156160606680539201,13838.0,1.5868284935934156160606680539201
187,13988.7879083014157540853492275865131,13987.2,1.5879083014157540853492275865131
188,14138.7889823477330901137715030492888,14137.2,1.5889823477330901137715030492888
189,14289.5900506937190853411460303875751,14288.0,1.5900506937190853411460303875751
190,14441.1911133995781758340736835020848,14439.6,1.5911133995781758340736835020848
191,14593.5921705245659423796809643785833,14592.0,1.5921705245659423796809643785833
192,14746.7932221270089478541426022980057,14745.2,1.5932221270089478541426022980057
193,14900.7942682643240599697958695384100,14899.2,1.5942682643240599697958695384100
194,15055.5953089930372727415930348774858,15054.0,1.5953089930372727415930348774858
195,15211.1963443688020446052139754653729,15209.6,1.5963443688020446052139754653729
196,15367.5973744464171668787015166118564,15366.0,1.5973744464171668787015166118564
197,15524.7983992798441769429027042014312,15523.2,1.5983992798441769429027042014312
198,15682.7994189222243303026570837499240,15681.2,1.5994189222243303026570837499240
199,15841.6004334258951443625473487037219,15840.0,1.6004334258951443625473487037219
200,16001.2014428424065278573732951850538,15999.6,1.6014428424065278573732951850538
201,16161.6024472225365069137277968987163,16160.0,1.6024472225365069137277968987163
202,16322.8034466163065611187860119766705,16321.2,1.6034466163065611187860119766705
203,16484.8044410729965802509897624655774,16483.2,1.6044410729965802509897624655774
204,16647.6054306411594532874885079982483,16646.0,1.6054306411594532874885079982483
205,16811.2064153686352996536488169237992,16809.6,1.6064153686352996536488169237992
206,16975.6073953025653557333292367357250,16974.0,1.6073953025653557333292367357250
207,17140.8083704894055225105458091427772,17139.2,1.6083704894055225105458091427772
208,17306.8093409749395885639328864874316,17305.2,1.6093409749395885639328864874316
209,17473.6103068042921341568266825631772,17472.0,1.6103068042921341568266825631772
210,17641.2112680219411279185704727441400,17639.6,1.6112680219411279185704727441400
211,17809.6122246717302234759977666925904,17808.0,1.6122246717302234759977666925904
212,17978.8131767968807662622154393963490,17977.2,1.6131767968807662622154393963490
213,18148.8141244400035148805746292602387,18147.2,1.6141244400035148805746292602387
214,18319.6150676431100919995128143110826,18318.0,1.6150676431100919995128143110826
215,18491.2160064476241639844916791648936,18489.6,1.6160064476241639844916791648936
216,18663.6169408943923632214810979026608,18662.0,1.6169408943923632214810979026608
217,18836.8178710236949570910245413168781,18835.2,1.6178710236949570910245413168781
218,19010.8187968752562725653287072909196,19009.2,1.6187968752562725653287072909196
219,19185.6197184882548797013060682832358,19184.0,1.6197184882548797013060682832358
220,19361.2206359013335465376908152597189,19359.6,1.6206359013335465376908152597189
221,19537.6215491526089632985106185096353,19536.0,1.6215491526089632985106185096353
222,19714.8224582796812531002721277472655,19713.2,1.6224582796812531002721277472655
223,19892.8233633196432627236837304152455,19891.2,1.6233633196432627236837304152455
224,20071.6242643090896485092060719828640,20070.0,1.6242643090896485092060719828640
225,20251.2251612841257599329649659088914,20249.6,1.6251612841257599329649659088914
226,20431.6260542803763244009596282130936,20430.0,1.6260542803763244009596282130936
227,20612.8269433329939419044046052364670,20611.2,1.6269433329939419044046052364670
228,20794.8278284766673913463967483338083,20793.2,1.6278284766673913463967483338083
229,20977.6287097456297556920423072051016,20976.0,1.6287097456297556920423072051016
230,21161.2295871736663706282724367479494,21159.6,1.6295871736663706282724367479494
231,21345.6304607941225985226013985763826,21344.0,1.6304607941225985226013985763826
232,21530.8313306399114380897318596691238,21529.2,1.6313306399114380897318596691238
233,21716.8321967435209647514953032090087,21715.2,1.6321967435209647514953032090087
234,21903.6330591370216178361768744380472,21902.0,1.6330591370216178361768744380472
235,22091.2339178520733277883078992977800,22089.6,1.6339178520733277883078992977800
236,22279.6347729199324930876774414061748,22278.0,1.6347729199324930876774414061748
237,22468.8356243714588104976726296918707,22467.2,1.6356243714588104976726296918707
238,22658.8364722371219603739413855265221,22657.2,1.6364722371219603739413855265221
