Eigenstate,Energy,Kinetic Energy,Potential Energy
1,0.500000000080202827692031290042668027,0.0,0.500000000080202827692031290042668027
2,1.84623093817463784611842412451475089,1.2,0.64623093817463784611842412451475089
3,3.93633761124278710728758598926149015,3.2,0.73633761124278710728758598926149015
4,6.79966528101733674832243672412517916,6.0,0.79966528101733674832243672412517916
5,10.4480465808341340360061602534519916,9.6,0.8480465808341340360061602534519916
6,14.8870660054560384467686774323774548,14.0,0.8870660054560384467686774323774548
7,20.1197208363250775847369042039784504,19.2,0.9197208363250775847369042039784504
8,26.1477838598202525012167817265297839,25.2,0.9477838598202525012167817265297839
9,32.9723835749490616754475607311350464,32.0,0.9723835749490616754475607311350464
10,40.5942802358608731020893462944760935,39.6,0.9942802358608731020893462944760935
11,49.0140094126972931410617722360881554,48.0,1.0140094126972931410617722360881554
12,58.2319622007633897415977810589585740,57.2,1.0319622007633897415977810589585740
13,68.2484327301253341061805566122828612,67.2,1.0484327301253341061805566122828612
14,79.0636476984665909187543703806903857,78.0,1.0636476984665909187543703806903857
15,90.6777854869021205458633745570218312,89.6,1.0777854869021205458633745570218312
16,103.090988964848835048361174189215031,102.0,1.090988964848835048361174189215031
17,116.303374323487109739235089780213976,115.2,1.103374323487109739235089780213976
18,130.315037326766987580040455486798021,129.2,1.115037326766987580040455486798021
19,145.126057834512160266954254236611356,144.0,1.126057834512160266954254236611356
20,160.736503140053907168203404077589704,159.6,1.136503140053907168203404077589704
21,177.146430476312794332133575665275937,176.0,1.146430476312794332133575665275937
22,194.355888926957415985972508950630725,193.2,1.155888926957415985972508950630725
23,212.364920904340920226783708338512078,211.2,1.164920904340920226783708338512078
24,231.173563306901431978375844417287332,230.0,1.173563306901431978375844417287332
25,250.781848435957980006492027834647537,249.6,1.181848435957980006492027834647537
26,271.189804729518085163840073872924998,270.0,1.189804729518085163840073872924998
27,292.397457355240336623014124638660817,291.2,1.197457355240336623014124638660817
28,314.404828693793432037829878535342961,313.2,1.204828693793432037829878535342961
29,337.211938736058129746264833069145569,336.0,1.211938736058129746264833069145569
30,360.818805411969073554797628550312063,359.6,1.218805411969073554797628550312063
31,385.225444864647512140938522842310873,384.0,1.225444864647512140938522842310873
32,410.431871680398035523909891736340933,409.2,1.231871680398035523909891736340933
33,436.438099082832803247771907948954900,435.2,1.238099082832803247771907948954900
34,463.244139097636192654009075451976994,462.0,1.244139097636192654009075451976994
35,490.850002693143600554067004230587266,489.6,1.250002693143600554067004230587266
36,519.255699900874652733167203540002344,518.0,1.255699900874652733167203540002344
37,548.461239919356991167754343897866277,547.2,1.261239919356991167754343897866277
38,578.466631203946390095444601050287309,577.2,1.266631203946390095444601050287309
39,609.271881544851103426563165618871592,608.0,1.271881544851103426563165618871592
40,640.876998135172525202611778339058328,639.6,1.276998135172525202611778339058328
41,673.281987630457494533129270726941841,672.0,1.281987630457494533129270726941841
42,706.486856201002583840780384317593308,705.2,1.286856201002583840780384317593308
43,740.491609577944222899495587248850808,739.2,1.291609577944222899495587248850808
44,775.296253094000417134904376277383589,774.0,1.296253094000417134904376277383589
45,810.900791719592249087247328907480000,809.6,1.300791719592249087247328907480000
46,847.305230094960215654310655089618461,846.0,1.305230094960215654310655089618461
47,884.509572558796977119556834746970087,883.2,1.309572558796977119556834746970087
48,922.513823173840507606345894440457653,921.2,1.313823173840507606345894440457653
49,961.317985749806974055220003428767129,960.0,1.317985749806974055220003428767129
50,1000.92206386398854810755007252801653,999.6,1.32206386398854810755007252801653
51,1041.32606087979588831635382941485164,1040.0,1.32606087979588831635382941485164
52,1082.52997996348668489078107529591840,1081.2,1.32997996348668489078107529591840
53,1124.53382409928920906220423722999082,1123.2,1.33382409928920906220423722999082
54,1167.33759610310224802838651117061798,1166.0,1.33759610310224802838651117061798
55,1210.94129863492933093967970520775633,1209.6,1.34129863492933093967970520775633
56,1255.34493421018507682107196922874706,1254.0,1.34493421018507682107196922874706
57,1300.54850520999429635878059053708386,1299.2,1.34850520999429635878059053708386
58,1346.55201389058968229378959026241843,1345.2,1.35201389058968229378959026241843
59,1393.35546239190116921745191465947863,1392.0,1.35546239190116921745191465947863
60,1440.95885274541901905657076743212311,1439.6,1.35885274541901905657076743212311
61,1489.36218688140312430786669790630949,1488.0,1.36218688140312430786669790630949
62,1538.56546663550272007662118573288210,1537.2,1.36546663550272007662118573288210
63,1588.56869375484345408526450017211369,1587.2,1.36869375484345408526450017211369
64,1639.37186990363245133775165107737352,1638.0,1.37186990363245133775165107737352
65,1690.97499666832647528559598930082129,1689.6,1.37499666832647528559598930082129
66,1743.37807556240344000237416104708059,1742.0,1.37807556240344000237416104708059
67,1796.58110803077326558218929244524730,1795.2,1.38110803077326558218929244524730
68,1850.58409545386031281676958729061923,1849.2,1.38409545386031281676958729061923
69,1905.38703915138632053515193766709863,1904.0,1.38703915138632053515193766709863
70,1960.98994038587984072163484072379187,1959.6,1.38994038587984072163484072379187
71,2017.39280036593556782395387771595211,2016.0,1.39280036593556782395387771595211
72,2074.59562024924466042125159214292264,2073.2,1.39562024924466042125159214292264
73,2132.59840114541510041501048363973397,2131.2,1.39840114541510041501048363973397
74,2191.40114411859931605756388558717205,2190.0,1.40114411859931605756388558717205
75,2251.00385018994466403169657046291409,2249.6,1.40385018994466403169657046291409
76,2311.40652033988091623809084217852850,2310.0,1.40652033988091623809084217852850
77,2372.60915551025759454895589535269382,2371.2,1.40915551025759454895589535269382
78,2434.61175660634283098799749600358621,2433.2,1.41175660634283098799749600358621
79,2497.41432449869438397689262649695073,2496.0,1.41432449869438397689262649695073
80,2561.01686002491250316278892641733205,2559.6,1.41686002491250316278892641733205
81,2625.41936399128348599987230254584858,2624.0,1.41936399128348599987230254584858
82,2690.62183717432200780749212707206785,2689.2,1.42183717432200780749212707206785
83,2756.62428032221961829354371297810748,2755.2,1.42428032221961829354371297810748
84,2823.42669415620617324009161041176792,2822.0,1.42669415620617324009161041176792
85,2891.02907937183041077204348387815387,2889.6,1.42907937183041077204348387815387
86,2959.43143664016536576429473407652141,2958.0,1.43143664016536576429473407652141
87,3028.63376660894385847196454528444791,3027.2,1.43376660894385847196454528444791
88,3098.63606990362887009060787243933864,3097.2,1.43606990362887009060787243933864
89,3169.43834712842323445112657614913339,3168.0,1.43834712842323445112657614913339
90,3241.04059886722273183737359467316186,3239.6,1.44059886722273183737359467316186
91,3313.44282568451634946239353170796524,3312.0,1.44282568451634946239353170796524
92,3386.64502812623718484170348798276635,3385.2,1.44502812623718484170348798276635
93,3460.64720672056720604696297101565995,3459.2,1.44720672056720604696297101565995
94,3535.44936197869883989464314442594030,3534.0,1.44936197869883989464314442594030
95,3611.05149439555613797027700235889226,3609.6,1.45149439555613797027700235889226
96,3687.45360445047806856675557140007915,3686.0,1.45360445047806856675557140007915
97,3764.65569260786629827302593038770811,3763.2,1.45569260786629827302593038770811
98,3842.65775931779965407525166447067637,3841.2,1.45775931779965407525166447067637
99,3921.45980501661730336030819815818712,3920.0,1.45980501661730336030819815818712
100,4001.06183012747254287106857509530645,3999.6,1.46183012747254287106857509530645
101,4081.46383506085895835878152086152480,4080.0,1.46383506085895835878152086152480
102,4162.66582021511059110312235364911584,4161.2,1.46582021511059110312235364911584
103,4244.66778597687763955688440468566346,4243.2,1.46778597687763955688440468566346
104,4327.46973272157911710756905747766957,4326.0,1.46973272157911710756905747766957
105,4411.07166081383379387437457677792755,4409.6,1.47166081383379387437457677792755
106,4495.47357060787065969484134678400602,4494.0,1.47357060787065969484134678400602
107,4580.67546244792006737345528314911588,4579.2,1.47546244792006737345528314911588
108,4666.67733666858663602495716976744011,4665.2,1.47733666858663602495716976744011
109,4753.47919359520492575157162485293455,4752.0,1.47919359520492575157162485293455
110,4841.08103354417883247324434702690670,4839.6,1.48103354417883247324434702690670
111,4929.48285682330558586877805720509118,4928.0,1.48285682330558586877805720509118
112,5018.68466373208518395212431746879657,5017.2,1.48466373208518395212431746879657
113,5108.68645456201604227229424918496095,5107.2,1.48645456201604227229424918496095
114,5199.48822959687758696759518483364250,5198.0,1.48822959687758696759518483364250
115,5291.08998911300048045639782393619333,5289.6,1.48998911300048045639782393619333
116,5383.49173337952512021499041889113786,5382.0,1.49173337952512021499041889113786
117,5476.69346265864901938006992348551227,5475.2,1.49346265864901938006992348551227
118,5570.69517720586363688231463223106590,5569.2,1.49517720586363688231463223106590
119,5665.49687727018119110376664956356612,5664.0,1.49687727018119110376664956356612
120,5761.09856309435196520951816181069881,5759.6,1.49856309435196520951816181069881
121,5857.50023491507257403695064278693756,5856.0,1.50023491507257403695064278693756
122,5954.70189296318564351264428514269823,5953.2,1.50189296318564351264428514269823
123,6052.70353746387132137414280535945386,6051.2,1.50353746387132137414280535945386
124,6151.50516863683102029395025431102190,6150.0,1.50516863683102029395025431102190
125,6251.10678669646376493687377091299482,6249.6,1.50678669646376493687377091299482
126,6351.50839185203549928452876500275076,6350.0,1.50839185203549928452876500275076
127,6452.70998430784168998293669095757856,6451.2,1.50998430784168998293669095757856
128,6554.71156426336353888195617264639740,6553.2,1.51156426336353888195617264639740
129,6657.51313191341810586205014642100135,6656.0,1.51313191341810586205014642100135
130,6761.11468744830262466202461624227290,6759.6,1.51468744830262466202461624227290
131,6865.51623105393327901725682552352542,6864.0,1.51623105393327901725682552352542
132,6970.71776291197869144073059218207005,6969.2,1.51776291197869144073059218207005
133,7076.71928319998836519761131386474759,7075.2,1.51928319998836519761131386474759
134,7183.52079209151630874813663531097535,7182.0,1.52079209151630874813663531097535
135,7291.12228975624005382525480487252659,7289.6,1.52228975624005382525480487252659
136,7399.52377636007527462591330025875801,7398.0,1.52377636007527462591330025875801
137,7508.72525206528620228695704535075023,7507.2,1.52525206528620228695704535075023
138,7618.72671703059201520460501674956153,7617.2,1.52671703059201520460501674956153
139,7729.52817141126938365056874925900247,7728.0,1.52817141126938365056874925900247
140,7841.12961535925133169190816297427886,7839.6,1.52961535925133169190816297427886
141,7953.53104902322257486423023259644624,7952.0,1.53104902322257486423023259644624
142,8066.73247254871148397456996478269002,8065.2,1.53247254871148397456996478269002
143,8180.73388607817881676012310614069689,8179.2,1.53388607817881676012310614069689
144,8295.53528975110335194936409643396571,8294.0,1.53528975110335194936409643396571
145,8411.13668370406455608432346045199397,8409.6,1.53668370406455608432346045199397
146,8527.53806807082240559404850035760587,8526.0,1.53806807082240559404850035760587
147,8644.73944298239447840630535711374520,8643.2,1.53944298239447840630535711374520
148,8762.74080856713043042654712809268523,8761.2,1.54080856713043042654712809268523
149,8881.54216495078395868509949444700936,8880.0,1.54216495078395868509949444700936
150,9001.14351225658235479343723365189362,8999.6,1.54351225658235479343723365189362
151,9121.54485060529374462380320075914922,9120.0,1.54485060529374462380320075914922
152,9242.74618011529210451133505893555936,9241.2,1.54618011529210451133505893555936
153,9364.74750090262014292839039454713010,9363.2,1.54750090262014292839039454713010
154,9487.54881308105013153030784170981558,9486.0,1.54881308105013153030784170981558
155,9611.15011676214276380859342653944807,9609.6,1.55011676214276380859342653944807
156,9735.55141205530411921789130711006768,9734.0,1.55141205530411921789130711006768
157,9860.75269906784080382333737221963777,9859.2,1.55269906784080382333737221963777
158,9986.75397790501333928639386199533354,9985.2,1.55397790501333928639386199533354
159,10113.5552486700878638619938399892937,10112.0,1.5552486700878638619938399892937
160,10241.1565114643862117445299898901622,10239.6,1.5565114643862117445299898901622
161,10369.5577663873344292588033852809508,10368.0,1.5577663873344292588033852809508
162,10498.7590135365097873570287756446372,10497.2,1.5590135365097873570287756446372
163,10628.7602530076863452751907979703741,10627.2,1.5602530076863452751907979703741
164,10759.5614848948791199853425657617134,10758.0,1.5614848948791199853425657617134
165,10891.1627092903869100440601224296897,10889.6,1.5627092903869100440601224296897
166,11023.5639262848338243526379122727978,11022.0,1.5639262848338243526379122727978
167,11156.7651359672095630613417813830947,11155.2,1.5651359672095630613417813830947
168,11290.7663384249084933066307199906680,11289.2,1.5663384249084933066307199906680
169,11425.5675337437675648434346574764954,11424.0,1.5675337437675648434346574764954
170,11561.1687220081031053156034446710108,11559.6,1.5687220081031053156034446710108
171,11697.5699033007465353589849028468195,11696.0,1.5699033007465353589849028468195
172,11834.7710777030790414037898746359490,11833.2,1.5710777030790414037898746359490
173,11972.7722452950652415785734887258433,11971.2,1.5722452950652415785734887258433
174,12111.5734061552858805593467461237394,12110.0,1.5734061552858805593467461237394
175,12251.1745603609695873487514829362050,12249.6,1.5745603609695873487514829362050
176,12391.5757079880237256916519408259232,12390.0,1.5757079880237256916519408259232
177,12532.7768491110643703876813638349070,12531.2,1.5768491110643703876813638349070
178,12674.7779838034454386551411764904564,12673.2,1.5779838034454386551411764904564
179,12817.5791121372870029912003682185789,12816.0,1.5791121372870029912003682185789
180,12961.1802341835028164747964397037528,12959.6,1.5802341835028164747964397037528
181,13105.5813500118270731608261453376645,13104.0,1.5813500118270731608261453376645
182,13250.7824596908404312610150424022478,13249.2,1.5824596908404312610150424022478
183,13396.7835632879953221607432948843611,13395.2,1.5835632879953221607432948843611
184,13543.5846608696405695133672624438887,13542.0,1.5846608696405695133672624438887
185,13691.1857525010453402201658908688865,13689.6,1.5857525010453402201658908688865
186,13839.5868382464224482645338489793849,13838.0,1.5868382464224482645338489793849
187,13988.7879181689510352009264923165742,13987.2,1.5879181689510352009264923165742
188,14138.7889923307986427348750888135403,14137.2,1.5889923307986427348750888135403
189,14289.5900607931427011251666823879060,14288.0,1.5900607931427011251666823879060
190,14441.1911236161914490592694709308508,14439.6,1.5911236161914490592694709308508
191,14593.5921808592043042245597962447538,14592.0,1.5921808592043042245597962447538
192,14746.7932325805117009575564404262144,14745.2,1.5932325805117009575564404262144
193,14900.7942788375344132750141291820281,14899.2,1.5942788375344132750141291820281
194,15055.5953196868023766276620065056113,15054.0,1.5953196868023766276620065056113
195,15211.1963551839730263089499294287507,15209.6,1.5963551839730263089499294287507
196,15367.5973853838491662107050714103434,15366.0,1.5973853838491662107050714103434
197,15524.7984103403963823010241858423228,15523.2,1.5984103403963823010241858423228
198,15682.7994301067600149863839960271819,15681.2,1.5994301067600149863839960271819
199,15841.6004447352817031918286492393548,15840.0,1.6004447352817031918286492393548
200,16001.2014542775155140994373506613681,15999.6,1.6014542775155140994373506613681
201,16161.6024587842436695214950404981124,16160.0,1.6024587842436695214950404981124
202,16322.8034583054918822845233514182196,16321.2,1.6034583054918822845233514182196
203,16484.8044528905443132788966139418210,16483.2,1.6044528905443132788966139418210
204,16647.6054425879581607889523932908530,16646.0,1.6054425879581607889523932908530
205,16811.2064274455778920689537038606158,16809.6,1.6064274455778920689537038606158
206,16975.6074075105491301836478845878634,16974.0,1.6074075105491301836478845878634
207,17140.8083828293322019840952181574092,17139.2,1.6083828293322019840952181574092
208,17306.8093534477153614402201903891259,17305.2,1.6093534477153614402201903891259
209,17473.6103194108276940729634771573831,17472.0,1.6103194108276940729634771573831
210,17641.2112807631517139816826184098280,17639.6,1.6112807631517139816826184098280
211,17809.6122375485356608258090816697828,17808.0,1.6122375485356608258090816697828
212,17978.8131898102055069879357631650913,17977.2,1.6131898102055069879357631650913
213,18148.8141375907766792962750885128301,18147.2,1.6141375907766792962750885128301
214,18319.6150809322655102822243978490971,18318.0,1.6150809322655102822243978490971
215,18491.2160198761004181793174095358996,18489.6,1.6160198761004181793174095358996
216,18663.6169544631328296180672714616412,18662.0,1.6169544631328296180672714616412
217,18836.8178847336478489757920072413594,18835.2,1.6178847336478489757920072413594
218,19010.8188107273746833539220161602783,19009.2,1.6188107273746833539220161602783
219,19185.6197324834968264557760670635968,19184.0,1.6197324834968264557760670635968
220,19361.2206500406620138729842444369355,19359.6,1.6206500406620138729842444369355
221,19537.6215634369919476829000138728463,19536.0,1.6215634369919476829000138728463
222,19714.8224727100918075544193527301503,19713.2,1.6224727100918075544193527301503
223,19892.8233778970595419230915774591936,19891.2,1.6233778970595419230915774591936
224,20071.6242790344949542948746272671442,20070.0,1.6242790344949542948746272671442
225,20251.2251761585085872351325223485052,20249.6,1.6251761585085872351325223485052
226,20431.6260693047304075808719954394220,20430.0,1.6260693047304075808719954394220
227,20612.8269585083183015191213322422179,20611.2,1.6269585083183015191213322422179
228,20794.8278438039663813417093139557725,20793.2,1.6278438039663813417093139557725
229,20977.6287252259131110286463327151423,20976.0,1.6287252259131110286463327151423
230,21161.2296028079492553464038463546868,21159.6,1.6296028079492553464038463546868
231,21345.6304765834256542504155308487911,21344.0,1.6304765834256542504155308487911
232,21530.8313465852608330007756969495999,21529.2,1.6313465852608330007756969495999
233,21716.8322128459484429766930188160405,21715.2,1.6322128459484429766930188160405
234,21903.6330753975645493358226980155378,21902.0,1.6330753975645493358226980155378
235,22091.2339342717747586896329505331135,22089.6,1.6339342717747586896329505331135
236,22279.6347894998411964936322262134100,22278.0,1.6347894998411964936322262134100
237,22468.8356411126293377726435928881854,22467.2,1.6356411126293377726435928881854
238,22658.8364891406146929121958052308492,22657.2,1.6364891406146929121958052308492
