Eigenstate,Energy,Kinetic Energy,Potential Energy
1,0.500000000043395900370432560334697810,0.0,0.500000000043395900370432560334697810
2,1.84623093793438047761698345726616175,1.2,0.64623093793438047761698345726616175
3,3.93633761053704623935977204510410409,3.2,0.73633761053704623935977204510410409
4,6.79966527954734702158395805682992353,6.0,0.79966527954734702158395805682992353
5,10.4480465782877843446745853556655560,9.6,0.8480465782877843446745853556655560
6,14.8870660015157384626441475683918673,14.0,0.8870660015157384626441475683918673
7,20.1197208306706539154050218679415515,19.2,0.9197208306706539154050218679415515
8,26.1477838521301543928259089053192788,25.2,0.9477838521301543928259089053192788
9,32.9723835649009197223832348556514361,32.0,0.9723835649009197223832348556514361
10,40.5942802231317810259058353625337856,39.6,0.9942802231317810259058353625337856
11,49.0140093969639592007932670396210944,48.0,1.0140093969639592007932670396210944
12,58.2319621817022217079490811879038359,57.2,1.0319621817022217079490811879038359
13,68.2484327074124880653880904813878181,67.2,1.0484327074124880653880904813878181
14,79.0636476717779992580869239403628182,78.0,1.0636476717779992580869239403628182
15,90.6777854559135073774902180370889420,89.6,1.0777854559135073774902180370889420
16,103.090988929235723740274274559185117,102.0,1.090988929235723740274274559185117
17,116.303374282924825309524941964222448,115.2,1.103374282924825309524941964222448
18,130.315037280930655643986587621112859,129.2,1.115037280930655643986587621112859
19,145.126057783076703607047070147120417,144.0,1.126057783076703607047070147120417
20,160.736503082694040624818044264465418,159.6,1.136503082694040624818044264465418
21,177.146430412703018481592320263653297,176.0,1.146430412703018481592320263653297
22,194.355888856772009925433335607037913,193.2,1.155888856772009925433335607037913
23,212.364920827253933689095939827147942,211.2,1.164920827253933689095939827147942
24,231.173563222586676935664034400680926,230.0,1.173563222586676935664034400680926
25,250.781848344089021877305987604840082,249.6,1.181848344089021877305987604840082
26,271.189804629768233708184739537931155,270.0,1.189804629768233708184739537931155
27,292.397457247282636588000278853399445,291.2,1.197457247282636588000278853399445
28,314.404828577300653601203602751159325,313.2,1.204828577300653601203602751159325
29,337.211938610702758793802379447249160,336.0,1.211938610702758793802379447249160
30,360.818805277423301819239412136768377,359.6,1.218805277423301819239412136768377
31,385.225444720583227223930117481741075,384.0,1.225444720583227223930117481741075
32,410.431871526486810817732914847918215,409.2,1.231871526486810817732914847918215
33,436.438098918745887770073663738040145,435.2,1.238098918745887770073663738040145
34,463.244138923044500805986669376655393,462.0,1.244138923044500805986669376655393
35,490.850002507717701810421416026698482,489.6,1.250002507717701810421416026698482
36,519.255699704284761270464825716381156,518.0,1.255699704284761270464825716381156
37,548.461239711272955436507228491124375,547.2,1.261239711272955436507228491124375
38,578.466630984037682340164550569413265,577.2,1.266630984037682340164550569413265
39,609.271881312786809157197708330789383,608.0,1.271881312786809157197708330789383
40,640.876997890621332620086000169418947,639.6,1.276997890621332620086000169418947
41,673.281987373087683911161585759049689,672.0,1.281987373087683911161585759049689
42,706.486855930482016865685708074342347,705.2,1.286855930482016865685708074342347
43,740.491609293940331969315423215132542,739.2,1.291609293940331969315423215132542
44,775.296252796180194618894081332579991,774.0,1.296252796180194618894081332579991
45,810.900791407622236546493584788222963,809.6,1.300791407622236546493584788222963
46,847.305229768506493024037082927520003,846.0,1.305229768506493024037082927520003
47,884.509572217525151853495071263129490,883.2,1.309572217525151853495071263129490
48,922.513822817415703783396802553936555,921.2,1.313822817415703783396802553936555
49,961.317985377893821448500220970265906,960.0,1.317985377893821448500220970265906
50,1000.92206347625117121580881273560705,999.6,1.32206347625117121580881273560705
51,1041.32606047589789535765016463380676,1040.0,1.32606047589789535765016463380676
52,1082.52997954309115675823065171593918,1081.2,1.32997954309115675823065171593918
53,1124.53382366205868824153403358594994,1123.2,1.33382366205868824153403358594994
54,1167.33759564869872747697508612706990,1166.0,1.33759564869872747697508612706990
55,1210.94129816301424292670710833651693,1209.6,1.34129816301424292670710833651693
56,1255.34493372041928172835670266610877,1254.0,1.34493372041928172835670266610877
57,1300.54850470203807144183990447071165,1299.2,1.34850470203807144183990447071165
58,1346.55201336410271040262274466937221,1345.2,1.35201336410271040262274466937221
59,1393.35546184654252747651384544869849,1392.0,1.35546184654252747651384544869849
60,1440.95885218084716750337442814956533,1439.6,1.35885218084716750337442814956533
61,1489.36218629727589448962635513002650,1488.0,1.36218629727589448962635513002650
62,1538.56546603147730360432537449909100,1537.2,1.36546603147730360432537449909100
63,1588.56869313057639114454600866864218,1587.2,1.36869313057639114454600866864218
64,1639.37186925877961915590242678902265,1638.0,1.37186925877961915590242678902265
65,1690.97499600254307655405685583411512,1689.6,1.37499600254307655405685583411512
66,1743.37807487534399125401282552865764,1742.0,1.37807487534399125401282552865764
67,1796.58110732209158552266476923902323,1795.2,1.38110732209158552266476923902323
68,1850.58409472320951060926688954593955,1849.2,1.38409472320951060926688954593955
69,1905.38703839841878403775741800273026,1904.0,1.38703839841878403775741800273026
70,1960.98993961024722467661015108969686,1959.6,1.38993961024722467661015108969686
71,2017.39279956728878199815428760255095,2016.0,1.39279956728878199815428760255095
72,2074.59561942723385769692332451429296,2073.2,1.39561942723385769692332451429296
73,2132.59840029968966483019061867960936,2131.2,1.39840029968966483019061867960936
74,2191.40114324880785079529608040947711,2190.0,1.40114324880785079529608040947711
75,2251.00384929573497935726564793481650,2249.6,1.40384929573497935726564793481650
76,2311.40651942090001738346967617311426,2310.0,1.40651942090001738346967617311426
77,2372.60915456615166954364840472681685,2371.2,1.40915456615166954364840472681685
78,2434.61175563675723843545230934497912,2433.2,1.41175563675723843545230934497912
79,2497.41432350327364077565288161850390,2496.0,1.41432350327364077565288161850390
80,2561.01685900330027217153481322404529,2559.6,1.41685900330027217153481322404529
81,2625.41936294312256364550405227746103,2624.0,1.41936294312256364550405227746103
82,2690.62183609925431163539248273055558,2689.2,1.42183609925431163539248273055558
83,2756.62427921988617445915033356695175,2755.2,1.42427921988617445915033356695175
84,2823.42669302624710394090125596994223,2822.0,1.42669302624710394090125596994223
85,2891.02907821388492161916127173669947,2889.6,1.42907821388492161916127173669947
86,2959.43143545387173309263338438718718,2958.0,1.43143545387173309263338438718718
87,3028.63376539393941658818985978706268,3027.2,1.43376539393941658818985978706268
88,3098.63606865954999845791833203123729,3097.2,1.43606865954999845791833203123729
89,3169.43834585490534480994638122532124,3168.0,1.43834585490534480994638122532124
90,3241.04059756390025526102998014619235,3239.6,1.44059756390025526102998014619235
91,3313.44282435102272334684048003866511,3312.0,1.44282435102272334684048003866511
92,3386.64502676220483982834556146971161,3385.2,1.44502676220483982834556146971161
93,3460.64720532562755287762406588442266,3459.2,1.44720532562755287762406588442266
94,3535.44936055248225619771637957889752,3534.0,1.44936055248225619771637957889752
95,3611.05149293769195497708313901812536,3609.6,1.45149293769195497708313901812536
96,3687.45360296059455775712840818244264,3686.0,1.45360296059455775712840818244264
97,3764.65569108559065794913413296174425,3763.2,1.45569108559065794913413296174425
98,3842.65775776275799586265763525272644,3841.2,1.45775776275799586265763525272644
99,3921.45980342843463863525509835738879,3920.0,1.45980342843463863525509835738879
100,4001.06182850577276911297765959923489,3999.6,1.46182850577276911297765959923489
101,4081.46383340526484542693243660991610,4080.0,1.46383340526484542693243660991610
102,4162.66581852524376743647962332413099,4161.2,1.46581852524376743647962332413099
103,4244.66778425235857829602387463468463,4243.2,1.46778425235857829602387463468463
104,4327.46973096202712213764806146848313,4326.0,1.46973096202712213764806146848313
105,4411.07165901886698578808014419132182,4409.6,1.47165901886698578808014419132182
106,4495.47356877710596167424060378604529,4494.0,1.47356877710596167424060378604529
107,4580.67546058097319098966225116359608,4579.2,1.47546058097319098966225116359608
108,4666.67733476507206695451986446897050,4665.2,1.47733476507206695451986446897050
109,4753.47919165473590940847311670372669,4752.0,1.47919165473590940847311670372669
110,4841.08103156636735955540094443701514,4839.6,1.48103156636735955540094443701514
111,4929.48285480776237781790723342864632,4928.0,1.48285480776237781790723342864632
112,5018.68466167841967832584413003306727,5017.2,1.48466167841967832584413003306727
113,5108.68645246983637802730516072770177,5107.2,1.48645246983637802730516072770177
114,5199.48822746579058965278421159547865,5198.0,1.48822746579058965278421159547865
115,5291.08998694261164731469361332924232,5289.6,1.48998694261164731469361332924232
116,5383.49173116943860519278658712438221,5382.0,1.49173116943860519278658712438221
117,5476.69346040846761804302244543358397,5475.2,1.49346040846761804302244543358397
118,5570.69517491518877123630735982095562,5569.2,1.49517491518877123630735982095562
119,5665.49687493861289431982734234515526,5664.0,1.49687493861289431982734234515526
120,5761.09856072148886625145509068761502,5759.6,1.49856072148886625145509068761502
121,5857.50023250051188219046799451770182,5856.0,1.50023250051188219046799451770182
122,5954.70189050652313281468203640931235,5953.2,1.50189050652313281468203640931235
123,6052.70353496470131494117421493786476,6051.2,1.50353496470131494117421493786476
124,6151.50516609474637454795750304165849,6150.0,1.50516609474637454795750304165849
125,6251.10678411105585372770930967505527,6249.6,1.50678411105585372770930967505527
126,6351.50838922289419790735682308655345,6350.0,1.50838922289419790735682308655345
127,6452.70998163455535908943626620662927,6451.2,1.50998163455535908943626620662927
128,6554.71156154551900828395319890729412,6553.2,1.51156154551900828395319890729412
129,6657.51312915060065822623296764699588,6656.0,1.51312915060065822623296764699588
130,6761.11468464009597909438308946289566,6759.6,1.51468464009597909438308946289566
131,6865.51622819991957453587131386524781,6864.0,1.51622819991957453587131386524781
132,6970.71776001173847033552259570352366,6969.2,1.51776001173847033552259570352366
133,7076.71928025310055627565360284049255,7075.2,1.51928025310055627565360284049255
134,7183.52078909755821046310540548292525,7182.0,1.52078909755821046310540548292525
135,7291.12228671478731728959200069217868,7289.6,1.52228671478731728959200069217868
136,7399.52377327070188650425191151879761,7398.0,1.52377327070188650425191151879761
137,7508.72524892756446756934701991836885,7507.2,1.52524892756446756934701991836885
138,7618.72671384409253985806170431755491,7617.2,1.52671384409253985806170431755491
139,7729.52816817556105714745015112182246,7728.0,1.52816817556105714745015112182246
140,7841.12961207390130941361121885918142,7839.6,1.52961207390130941361121885918142
141,7953.53104568779626037868036650838507,7952.0,1.53104568779626037868036650838507
142,8066.73246916277251118596121457681722,8065.2,1.53246916277251118596121457681722
143,8180.73388264128903192934986005188302,8179.2,1.53388264128903192934986005188302
144,8295.53528626282279558356838149585771,8294.0,1.53528626282279558356838149585771
145,8411.13668016395144469396446582539373,8409.6,1.53668016395144469396446582539373
146,8527.53806447843311331588372439834450,8526.0,1.53806447843311331588372439834450
147,8644.73943933728351849065482967297424,8643.2,1.53943933728351849065482967297424
148,8762.74080486885043658719461881753373,8761.2,1.54080486885043658719461881753373
149,8881.54216119888566631016587273989060,8880.0,1.54216119888566631016587273989060
150,9001.14350845061458201554328983169998,8999.6,1.54350845061458201554328983169998
151,9121.54484674480337324781974599424807,9120.0,1.54484674480337324781974599424807
152,9242.74617619982406079799983134830609,9241.2,1.54617619982406079799983134830609
153,9364.74749693171737823205145858048717,9363.2,1.54749693171737823205145858048717
154,9487.54880905425360278903398943807364,9486.0,1.54880905425360278903398943807364
155,9611.15011267899141388487190502265055,9609.6,1.55011267899141388487190502265055
156,9735.55140791533485708811301745373910,9734.0,1.55140791533485708811301745373910
157,9860.75269487058848461424973466140172,9859.2,1.55269487058848461424973466140172
158,9986.75397365001074415668002947728443,9985.2,1.55397365001074415668002947728443
159,10113.5552443568656797271165717612268,10112.0,1.5552443568656797271165717612268
160,10241.1565070924730108429566678940680,10239.6,1.5565070924730108429566678940680
161,10369.5577619562566485577071672678004,10368.0,1.5577619562566485577071672678004
162,10498.7590090457917077955388276520257,10497.2,1.5590090457917077955388276520257
163,10628.7602484568500708432424061639048,10627.2,1.5602484568500708432424061639048
164,10759.5614802834445566361549299887567,10758.0,1.5614802834445566361549299887567
165,10891.1627046178717444382468689377637,10889.6,1.5627046178717444382468689377637
166,11023.5639215507535024319320583528365,11022.0,1.5639215507535024319320583528365
167,11156.7651311710772684498932711249500,11155.2,1.5651311710772684498932711249500
168,11290.7663335662351255378101538471781,11289.2,1.5663335662351255378101538471781
169,11425.5675288220617174100534040082819,11424.0,1.5675288220617174100534040082819
170,11561.1687170228710435414344392820671,11559.6,1.5687170228710435414344392820671
171,11697.5698982514921740894444613532909,11696.0,1.5698982514921740894444613532909
172,11834.7710725893039225136144239655584,11833.2,1.5710725893039225136144239655584
173,11972.7722401162685112942999682129158,11971.2,1.5722401162685112942999682129158
174,12111.5734009109642665943789144346976,12110.0,1.5734009109642665943789144346976
175,12251.1745550506173758487676574868088,12249.6,1.5745550506173758487676574868088
176,12391.5757026111327379880829079518749,12390.0,1.5757026111327379880829079518749
177,12532.7768436671239395569595976249626,12531.2,1.5768436671239395569595976249626
178,12674.7779782919423858813948853469715,12673.2,1.5779782919423858813948853469715
179,12817.5791065577056137300374083077447,12816.0,1.5791065577056137300374083077447
180,12961.1802285353248164157945496055287,12959.6,1.5802285353248164157945496055287
181,13105.5813442945316039863171451889272,13104.0,1.5813442945316039863171451889272
182,13250.7824539039040261987208014206151,13249.2,1.5824539039040261987208014206151
183,13396.7835574308918813277913024633814,13395.2,1.5835574308918813277913024633814
184,13543.5846549418413350491836576801486,13542.0,1.5846549418413350491836576801486
185,13691.1857465020188712057118750684692,13689.6,1.5857465020188712057118750684692
186,13839.5868321756345954253219086502732,13838.0,1.5868321756345954253219086502732
187,13988.7879120258649153912190794185787,13987.2,1.5879120258649153912190794185787
188,14138.7889861148746132004374706566968,14137.2,1.5889861148746132004374706566968
189,14289.5900545038383335419123622295750,14288.0,1.5900545038383335419123622295750
190,14441.1911172529615033451036982676621,14439.6,1.5911172529615033451036982676621
191,14593.5921744215007021216920891133296,14592.0,1.5921744215007021216920891133296
192,14746.7932260677834993825198415976482,14745.2,1.5932260677834993825198415976482
193,14900.7942722492277774335934891735238,14899.2,1.5942722492277774335934891735238
194,15055.5953130223605528918986875749600,15054.0,1.5953130223605528918986875749600
195,15211.1963484428363148533537054839735,15209.6,1.5963484428363148533537054839735
196,15367.5973785654548934047686268854150,15366.0,1.5973785654548934047686268854150
197,15524.7984034441788728550979940316069,15523.2,1.5984034441788728550979940316069
198,15682.7994231321505638479321190785231,15681.2,1.5994231321505638479321190785231
199,15841.6004376817085471890475219040975,15840.0,1.6004376817085471890475219040975
200,16001.2014471444038033291816884046565,15999.6,1.6014471444038033291816884046565
201,16161.6024515710154384784155555492576,16160.0,1.6024515710154384784155555492576
202,16322.8034510115660207282799509215944,16321.2,1.6034510115660207282799509215944
203,16484.8044455153365368362723752639640,16483.2,1.6044455153365368362723752639640
204,16647.6054351308809812876506285984415,16646.0,1.6054351308809812876506285984415
205,16811.2064199060405875998200101481254,16809.6,1.6064199060405875998200101481254
206,16975.6073998879577148880159211457840,16974.0,1.6073998879577148880159211457840
207,17140.8083751230893955629122393545065,17139.2,1.6083751230893955629122393545065
208,17306.8093456572205583815651386298427,17305.2,1.6093456572205583815651386298427
209,17473.6103115354769325945249501832988,17472.0,1.6103115354769325945249501832988
210,17641.2112728023376446847202238326977,17639.6,1.6112728023376446847202238326977
211,17809.6122295016475150570754372509263,17808.0,1.6122295016475150570754372509263
212,17978.8131816766290649059898149341192,17977.2,1.6131816766290649059898149341192
213,18148.8141293698942376385705399176178,18147.2,1.6141293698942376385705399176178
214,18319.6150726234558498293089659358133,18318.0,1.6150726234558498293089659358133
215,18491.2160114787387709124301792961407,18489.6,1.6160114787387709124301792961407
216,18663.6169459765908455663717880597343,18662.0,1.6169459765908455663717880597343
217,18836.8178761572935627494328784217202,18835.2,1.6178761572935627494328784217202
218,19010.8188020605724803590415212094349,19009.2,1.6188020605724803590415212094349
219,19185.6197237256074087875757876182827,19184.0,1.6197237256074087875757876182827
220,19361.2206411910423658828639142143162,19359.6,1.6206411910423658828639142143162
221,19537.6215544949953012156527755981885,19536.0,1.6215544949953012156527755981885
222,19714.8224636750676068514077976028728,19713.2,1.6224636750676068514077976028728
223,19892.8233687683534081872745822425755,19891.2,1.6233687683534081872745822425755
224,20071.6242698114486499134983511979102,20070.0,1.6242698114486499134983511979102
225,20251.2251668404599796558425746128925,20249.6,1.6251668404599796558425746128925
226,20431.6260598910134328369457276405773,20430.0,1.6260598910134328369457276405773
227,20612.8269489982629273994608014603479,20611.2,1.6269489982629273994608014603479
228,20794.8278341968985702011757187623449,20793.2,1.6278341968985702011757187623449
229,20977.6287155211547822342561092603017,20976.0,1.6287155211547822342561092603017
230,21161.2295930048182473548451404303778,21159.6,1.6295930048182473548451404303778
231,21345.6304666812356863122818725159626,21344.0,1.6304666812356863122818725159626
232,21530.8313365833214664868487974190292,21529.2,1.6313365833214664868487974190292
233,21716.8322027435650423215436595431446,21715.2,1.6322027435650423215436595431446
234,21903.6330651940382425939320978245420,21902.0,1.6330651940382425939320978245420
235,22091.2339239664023976991707674901650,22089.6,1.6339239664023976991707674901650
236,22279.6347790919153166429599651784458,22278.0,1.6347790919153166429599651784458
237,22468.8356306014381173645423751564431,22467.2,1.6356306014381173645423751564431
238,22658.8364785254419121207490459522897,22657.2,1.6364785254419121207490459522897
