Eigenstate,Energy,Kinetic Energy,Potential Energy
1,0.500000000020614029709976717294714615,0.0,0.500000000020614029709976717294714615
2,1.84623093778567219528976189576386492,1.2,0.64623093778567219528976189576386492
3,3.93633761010022718888311916995004938,3.2,0.73633761010022718888311916995004938
4,6.79966527863750147471860690585115188,6.0,0.79966527863750147471860690585115188
5,10.4480465767117427063315455916586172,9.6,0.8480465767117427063315455916586172
6,14.8870659990769485637469509789398218,14.0,0.8870659990769485637469509789398218
7,20.1197208271709758700413323948131306,19.2,0.9197208271709758700413323948131306
8,26.1477838473706091401738965662528921,25.2,0.9477838473706091401738965662528921
9,32.9723835586820371107208862817553080,32.0,0.9723835586820371107208862817553080
10,40.5942802152537764910281966273353613,39.6,0.9942802152537764910281966273353613
11,49.0140093872268297543955937832689253,48.0,1.0140093872268297543955937832689253
12,58.2319621699058008074834618885096581,57.2,1.0319621699058008074834618885096581
13,68.2484326933564780987281767378917937,67.2,1.0484326933564780987281767378917937
14,79.0636476552619911453633629062749349,78.0,1.0636476552619911453633629062749349
15,90.6777854367369924008358533431931294,89.6,1.0777854367369924008358533431931294
16,103.090988907198100491391869976262963,102.0,1.090988907198100491391869976262963
17,116.303374257825403461316049154518534,115.2,1.103374257825403461316049154518534
18,130.315037252568657592160920951377516,129.2,1.115037252568657592160920951377516
19,145.126057751251264644289897754055091,144.0,1.126057751251264644289897754055091
20,160.736503047204208079600274240689462,159.6,1.136503047204208079600274240689462
21,177.146430373347750110741987612471156,176.0,1.146430373347750110741987612471156
22,194.355888813350171758418144379223951,193.2,1.155888813350171758418144379223951
23,212.364920779564297462365173681229468,211.2,1.164920779564297462365173681229468
24,231.173563170427917215551678371508140,230.0,1.173563170427917215551678371508140
25,250.781848287259712942811920075568844,249.6,1.181848287259712942811920075568844
26,271.189804568066846246059131387336604,270.0,1.189804568066846246059131387336604
27,292.397457180507534239205109201781076,291.2,1.197457180507534239205109201781076
28,314.404828505250089388243060721692238,313.2,1.204828505250089388243060721692238
29,337.211938533174871451438739106613981,336.0,1.211938533174871451438739106613981
30,360.818805194216112045966751730308385,359.6,1.218805194216112045966751730308385
31,385.225444631494633867738262010632376,384.0,1.225444631494633867738262010632376
32,410.431871431314587006795314769488145,409.2,1.231871431314587006795314769488145
33,436.438098817287676996781871490826185,435.2,1.238098817287676996781871490826185
34,463.244138815097812971051156579092797,462.0,1.244138815097812971051156579092797
35,490.850002393079909232434897144733890,489.6,1.250002393079909232434897144733890
36,519.255699582753094665286840297251483,518.0,1.255699582753094665286840297251483
37,548.461239582644499870009007766625090,547.2,1.261239582644499870009007766625090
38,578.466630848109373157220721821578666,577.2,1.266630848109373157220721821578666
39,609.271881169355427889288317764315492,608.0,1.271881169355427889288317764315492
40,640.876997739483502873450171820054537,639.6,1.276997739483502873450171820054537
41,673.281987214039867237101364761830808,672.0,1.281987214039867237101364761830808
42,706.486855763320508614338553516633524,705.2,1.286855763320508614338553516633524
43,740.491609118461257127983712194842487,739.2,1.291609118461257127983712194842487
44,775.296252612179503635829955106971913,774.0,1.296252612179503635829955106971913
45,810.900791214895701140879657280781398,809.6,1.300791214895701140879657280781398
46,847.305229566849701982771865801384320,846.0,1.305229566849701982771865801384320
47,884.509572006733506815281629354170674,883.2,1.309572006733506815281629354170674
48,922.513822597284415010540205835308215,921.2,1.313822597284415010540205835308215
49,961.317985148217903586740793237398067,960.0,1.317985148217903586740793237398067
50,1000.92206323682543904245145783335731,999.6,1.32206323682543904245145783335731
51,1041.32606022651695951819311532821579,1040.0,1.32606022651695951819311532821579
52,1082.52997928354941949164832266104379,1081.2,1.32997928354941949164832266104379
53,1124.53382339215033909432682103240467,1123.2,1.33382339215033909432682103240467
54,1167.33759536821773900606285139057154,1166.0,1.33759536821773900606285139057154
55,1210.94129787175436639121188037903223,1209.6,1.34129787175436639121188037903223
56,1255.34493341817404277029299631944899,1254.0,1.34493341817404277029299631944899
57,1300.54850438860076575570746225715451,1299.2,1.34850438860076575570746225715451
58,1346.55201303926639939387575314984962,1345.2,1.35201303926639939387575314984962
59,1393.35546151010003390886263681706506,1392.0,1.35546151010003390886263681706506
60,1440.95885183259107113485965486318387,1439.6,1.35885183259107113485965486318387
61,1489.36218593699852769739155061137776,1488.0,1.36218593699852769739155061137776
62,1538.56546565897074699800126167664481,1537.2,1.36546565897074699800126167664481
63,1588.56869274563246916814883883599053,1587.2,1.36869274563246916814883883599053
64,1639.37186886118989567813873936226541,1638.0,1.37186886118989567813873936226541
65,1690.97499559209885044691807576149736,1689.6,1.37499559209885044691807576149736
66,1743.37807445183629195953521310607596,1742.0,1.37807445183629195953521310607596
67,1796.58110688531116860772300722011196,1795.2,1.38110688531116860772300722011196
68,1850.58409427294685330826309760491537,1849.2,1.38409427294685330826309760491537
69,1905.38703793446408078306139980970791,1904.0,1.38703793446408078306139980970791
70,1960.98993913239038261660145460247942,1959.6,1.38993913239038261660145460247942
71,2017.39279907531941650271150405406743,2016.0,1.39279907531941650271150405406743
72,2074.59561892094128785020175937442679,2073.2,1.39561892094128785020175937442679
73,2132.59839977886290891052509796676371,2131.2,1.39839977886290891052509796676371
74,2191.40114271323562174206194395254991,2190.0,1.40114271323562174206194395254991
75,2251.00384874520568022452728178391369,2249.6,1.40384874520568022452728178391369
76,2311.40651885520173678024271700037775,2310.0,1.40651885520173678024271700037775
77,2372.60915398507217706059853415353272,2371.2,1.40915398507217706059853415353272
78,2434.61175504008398005785064106404057,2433.2,1.41175504008398005785064106404057
79,2497.41432289079373428240517535301849,2496.0,1.41432289079373428240517535301849
80,2561.01685837480050252009918696194751,2559.6,1.41685837480050252009918696194751
81,2625.41936229838937834250927827446647,2624.0,1.41936229838937834250927827446647
82,2690.62183543807381609276664228589846,2689.2,1.42183543807381609276664228589846
83,2756.62427854204412733556733415880604,2755.2,1.42427854204412733556733415880604
84,2823.42669233152891246835051147039820,2822.0,1.42669233152891246835051147039820
85,2891.02907750207563691444373900407866,2889.6,1.42907750207563691444373900407866
86,2959.43143472475604545358517410293826,2958.0,1.43143472475604545358517410293826
87,3028.63376464730165077443259154030641,3027.2,1.43376464730165077443259154030641
88,3098.63606789517410895593352708587588,3097.2,1.43606789517410895593352708587588
89,3169.43834507257491108226934129158119,3168.0,1.43834507257491108226934129158119
90,3241.04059676339847697935674548180722,3239.6,1.44059676339847697935674548180722
91,3313.44282353213241560883964332644096,3312.0,1.44282353213241560883964332644096
92,3386.64502592470842835796501344117530,3385.2,1.44502592470842835796501344117530
93,3460.64720446930706920868096191676768,3459.2,1.44720446930706920868096191676768
94,3535.44935967711933284055694125529556,3534.0,1.44935967711933284055694125529556
95,3611.05149204306782056809715404376376,3609.6,1.45149204306782056809715404376376
96,3687.45360204649003219090171681699679,3686.0,1.45360204649003219090171681699679
97,3764.65569015178614749302057384507301,3763.2,1.45569015178614749302057384507301
98,3842.65775680903348825355042501232108,3841.2,1.45775680903348825355042501232108
99,3921.45980245456969815833582963222373,3920.0,1.45980245456969815833582963222373
100,4001.06182751154653166221955860271869,3999.6,1.46182751154653166221955860271869
101,4081.46383239045601354713281167619948,4080.0,1.46383239045601354713281167619948
102,4162.66581748963060534659481213519352,4161.2,1.46581748963060534659481213519352
103,4244.66778319571890689357842618906347,4243.2,1.46778319571890689357842618906347
104,4327.46972988413831398398806018092689,4326.0,1.46972988413831398398806018092689
105,4411.07165791950596007423914312239847,4409.6,1.47165791950596007423914312239847
106,4495.47356765604917916718483554378367,4494.0,1.47356765604917916718483554378367
107,4580.67545943799664895868016836058828,4579.2,1.47545943799664895868016836058828
108,4666.67733359995129407751943061117568,4665.2,1.47733359995129407751943061117568
109,4753.47919046724596065794848003002575,4752.0,1.47919046724596065794848003002575
110,4841.08103035628281106382856113509969,4839.6,1.48103035628281106382856113509969
111,4929.48285357485732172232971716055947,4928.0,1.48285357485732172232971716055947
112,5018.68466042246771759139841080600063,5017.2,1.48466042246771759139841080600063
113,5108.68645119061062124944986172233320,5107.2,1.48645119061062124944986172233320
114,5199.48822616306364583797931123453789,5198.0,1.48822616306364583797931123453789
115,5291.08998561615562063928381422793535,5289.6,1.48998561615562063928381422793535
116,5383.49172981902508973983797258798032,5382.0,1.49172981902508973983797258798032
117,5476.69345903386769251686022041434271,5475.2,1.49345903386769251686022041434271
118,5570.69517351617299365450074526295169,5569.2,1.49517351617299365450074526295169
119,5665.49687351495129668236579401589809,5664.0,1.49687351495129668236579401589809
120,5761.09855927295094918685815145194398,5759.6,1.49855927295094918685815145194398
121,5857.50023102686660957856935846744448,5856.0,1.50023102686660957856935846744448
122,5954.70188900753892638582642033229975,5953.2,1.50188900753892638582642033229975
123,6052.70353344014604885156378787689850,6051.2,1.50353344014604885156378787689850
124,6151.50516454438736993088272009638832,6150.0,1.50516454438736993088272009638832
125,6251.10678253465987322039703836875327,6249.6,1.50678253465987322039703836875327
126,6351.50838762022744015316670904120739,6350.0,1.50838762022744015316670904120739
127,6452.70998000538345321513430364033713,6451.2,1.50998000538345321513430364033713
128,6554.71155988960700835178950897875904,6553.2,1.51155988960700835178950897875904
129,6657.51312746771303766054871918953850,6656.0,1.51312746771303766054871918953850
130,6761.11468292999662508246951707859025,6759.6,1.51468292999662508246951707859025
131,6865.51622646237178240280175264679497,6864.0,1.51622646237178240280175264679497
132,6970.71775824650493789267611917115747,6969.2,1.51775824650493789267611917115747
133,7076.71927845994337814264720692911386,7075.2,1.51927845994337814264720692911386
134,7183.52078727623887236284912134037929,7182.0,1.52078727623887236284912134037929
135,7291.12228486506669031617929274980369,7289.6,1.52228486506669031617929274980369
136,7399.52377139234022136339571878171095,7398.0,1.52377139234022136339571878171095
137,7508.72524702032138879106931872950725,7507.2,1.52524702032138879106931872950725
138,7618.72671190772703998134245715100141,7617.2,1.52671190772703998134245715100141
139,7729.52816620983149087653909039849460,7728.0,1.52816620983149087653909039849460
140,7841.12961007856538774570372945981080,7839.6,1.52961007856538774570372945981080
141,7953.53104366261104470265643824801407,7952.0,1.53104366261104470265643824801407
142,8066.73246710749440735188400535208484,8065.2,1.53246710749440735188400535208484
143,8180.73388055567378428841819576267216,8179.2,1.53388055567378428841819576267216
144,8295.53528414662548099821487806693162,8294.0,1.53528414662548099821487806693162
145,8411.13667801692646651778889037097815,8409.6,1.53667801692646651778889037097815
146,8527.53806230033419534310843573162462,8526.0,1.53806230033419534310843573162462
147,8644.73943712786369887478691484609173,8643.2,1.53943712786369887478691484609173
148,8762.74080262786206172857666187191792,8761.2,1.54080262786206172857666187191792
149,8881.54215892608038471209483340155379,8880.0,1.54215892608038471209483340155379
150,9001.14350614574333810863453678404759,8999.6,1.54350614574333810863453678404759
151,9121.54484440761640118229036970319576,9120.0,1.54484440761640118229036970319576
152,9242.74617383007087820354309034012331,9241.2,1.54617383007087820354309034012331
153,9364.74749452914677994497131397347988,9363.2,1.54749452914677994497131397347988
154,9487.54880661861365454630619342943446,9486.0,1.54880661861365454630619342943446
155,9611.15011021002944598479527931711548,9609.6,1.55011021002944598479527931711548
156,9735.55140541279745801721167803377441,9734.0,1.55140541279745801721167803377441
157,9860.75269233422149464008456015116707,9859.2,1.55269233422149464008456015116707
158,9986.75397107955924888622466822461579,9985.2,1.55397107955924888622466822461579
159,10113.5552417520740036303503501036386,10112.0,1.5552417520740036303503501036386
160,10241.1565044530847107413241087158990,10239.6,1.5565044530847107413241087158990
161,10369.5577592820145070770907294408858,10368.0,1.5577592820145070770907294408858
162,10498.7590063364377267833885436223264,10497.2,1.5590063364377267833885436223264
163,10628.7602457121254647495033483231027,10627.2,1.5602457121254647495033483231027
164,10759.5614775030897458576300813495640,10758.0,1.5614775030897458576300813495640
165,10891.1627018016263486260300694071093,10889.6,1.5627018016263486260300694071093
166,11023.5639186983563337615427328682193,11022.0,1.5639186983563337615427328682193
167,11156.7651282822663248537413245034284,11155.2,1.5651282822663248537413245034284
168,11290.7663306407475838996163636254218,11289.2,1.5663306407475838996163636254218
169,11425.5675258596339267208474658943570,11424.0,1.5675258596339267208474658943570
170,11561.1687140232385180167494137527305,11559.6,1.5687140232385180167494137527305
171,11697.5698952143895862473233301058902,11696.0,1.5698952143895862473233301058902
172,11834.7710695144650962130409903160853,11833.2,1.5710695144650962130409903160853
173,11972.7722370034264147336630979353732,11971.2,1.5722370034264147336630979353732
174,12111.5733977598510052695755751505750,12110.0,1.5733977598510052695755751505750
175,12251.1745518609641854705469287315629,12249.6,1.5745518609641854705469287315629
176,12391.5756993826699773582295326760833,12390.0,1.5756993826699773582295326760833
177,12532.7768403995810834029122910541539,12531.2,1.5768403995810834029122910541539
178,12674.7779749850480176488908894676566,12673.2,1.5779749850480176488908894676566
179,12817.5791032111874183333713696202013,12816.0,1.5791032111874183333713696202013
180,12961.1802251489095729452759005048545,12959.6,1.5802251489095729452759005048545
181,13105.5813408679451783725067888273600,13104.0,1.5813408679451783725067888273600
182,13250.7824504368713638330239692289768,13249.2,1.5824504368713638330239692289768
183,13396.7835539231369996389797316447776,13395.2,1.5835539231369996389797316447776
184,13543.5846513930873160354165066429450,13542.0,1.5846513930873160354165066429450
185,13691.1857429119878539216206931818726,13689.6,1.5857429119878539216206931818726
186,13839.5868285440477684237214942230617,13838.0,1.5868285440477684237214942230617
187,13988.7879083524425091190016525328545,13987.2,1.5879083524425091190016525328545
188,14138.7889823993358923482038807159193,14137.2,1.5889823993358923482038807159193
189,14289.5900507459015893468899389123576,14288.0,1.5900507459015893468899389123576
190,14441.1911134523440458468961576940070,14439.6,1.5911134523440458468961576940070
191,14593.5921705779188523704029776130519,14592.0,1.5921705779188523704029776130519
192,14746.7932221809525815987865907745548,14745.2,1.5932221809525815987865907745548
193,14900.7942683188621111200650329657989,14899.2,1.5942683188621111200650329657989
194,15055.5953090481734448956852622774195,15054.0,1.5953090481734448956852622774195
195,15211.1963444245400513789731959683220,15209.6,1.5963444245400513789731959683220
196,15367.5973745027607319771093245565234,15366.0,1.5973745027607319771093245565234
197,15524.7983993367970342319131409089609,15523.2,1.5983993367970342319131409089609
198,15682.7994189797902238813774127746976,15681.2,1.5994189797902238813774127746976
199,15841.6004334840778286357677720663072,15840.0,1.6004334840778286357677720663072
200,16001.2014429012097676084485599004927,15999.6,1.6014429012097676084485599004927
201,16161.6024472819640773778135556832666,16160.0,1.6024472819640773778135556832666
202,16322.8034466763622480564329806382067,16321.2,1.6034466763622480564329806382067
203,16484.8044411336841800220986310804689,16483.2,1.6044411336841800220986310804689
204,16647.6054307024827729256286322015171,16646.0,1.6054307024827729256286322015171
205,16811.2064154305981569407437271699953,16809.6,1.6064154305981569407437271699953
206,16975.6073953651715792747119816803662,16974.0,1.6073953651715792747119816803662
207,17140.8083705526589518103872782922946,17139.2,1.6083705526589518103872782922946
208,17306.8093410388440741010461556005530,17305.2,1.6093410388440741010461556005530
209,17473.6103068688515374608505387115878,17472.0,1.6103068688515374608505387115878
210,17641.2112680871593216465352606334326,17639.6,1.6112680871593216465352606334326
211,17809.6122247376110914892767102140734,17808.0,1.6122247376110914892767102140734
212,17978.8131768634282037038646580216651,17977.2,1.6131768634282037038646580216651
213,18148.8141245072214282530650420725383,18147.2,1.6141245072214282530650420725383
214,18319.6150677110023992428571964292477,18318.0,1.6150677110023992428571964292477
215,18491.2160065161947945547701238939647,18489.6,1.6160065161947945547701238939647
216,18663.6169409636452581697681794660051,18662.0,1.6169409636452581697681794660051
217,18836.8178710936340691427214870578720,18835.2,1.6178710936340691427214870578720
218,19010.8187969458855661999039304822359,19009.2,1.6187969458855661999039304822359
219,19185.6197185595783312324474140879020,19184.0,1.6197185595783312324474140879020
220,19361.2206359733551441938729476977087,19359.6,1.6206359733551441938729476977087
221,19537.6215492253327073039808958360690,19536.0,1.6215492253327073039808958360690
222,19714.8224583531111557564584799847838,19713.2,1.6224583531111557564584799847838
223,19892.8233633937833484910279817289188,19891.2,1.6233633937833484910279817289188
224,20071.6242643839439540894261726326606,20070.0,1.6242643839439540894261726326606
225,20251.2251613596983343517497285875347,20249.6,1.6251613596983343517497285875347
226,20431.6260543566712290910994323584641,20430.0,1.6260543566712290910994323584641
227,20612.8269434100152507893617264368684,20611.2,1.6269434100152507893617264368684
228,20794.8278285544191909243188393145464,20793.2,1.6278285544191909243188393145464
229,20977.6287098241161451202227344048594,20976.0,1.6287098241161451202227344048594
230,21161.2295872528914618080611144277731,21159.6,1.6295872528914618080611144277731
231,21345.6304608740905161847697477086291,21344.0,1.6304608740905161847697477086291
232,21530.8313307206263198802957076299913,21529.2,1.6313307206263198802957076299913
233,21716.8321968249869613179993936766835,21715.2,1.6321968249869613179993936766835
234,21903.6330592192428929144448112714547,21902.0,1.6330592192428929144448112714547
235,22091.2339179350540582896613014009185,22089.6,1.6339179350540582896613014009185
236,22279.6347730036768691866281413804593,22278.0,1.6347730036768691866281413804593
237,22468.8356244559710357200918139534904,22467.2,1.6356244559710357200918139534904
238,22658.8364723224062516857095413853658,22657.2,1.6364723224062516857095413853658
