Eigenstate,Potential Energy
1,0.500000000023447519219616362483750798
2,0.64623093780416772800751165363851506
3,0.73633761015455627748419640644943842
4,0.79966527875066263050905418592924271
5,0.8480465769077606932134814134549919
6,0.8870659993802684221877085916276771
7,0.9197208276062395718712062799842153
8,0.9477838479625623784791353882850921
9,0.9723835594554858964935546548347218
10,0.9942802162335650682506998963877710
11,1.0140093884378285508358487261722776
12,1.0319621713728994995025889299323242
13,1.0484326951045814601432030096924444
14,1.0636476573160164985059184605600516
15,1.0777854391218680341539959891774319
16,1.090988909938764684156251480222041
17,1.103374260946803903210358817102297
18,1.115037256095751067663262424109399
19,1.126057755209016899429564668386608
20,1.136503051617593817341699881438775
21,1.146430378241753079028864643670952
22,1.155888818749784906249730718998426
23,1.164920785494523146689616604662692
24,1.173563176913767446717010581268691
25,1.181848294326209659696448087584705
26,1.189804575739021614352536559488110
27,1.197457188810430967972091707556535
28,1.204828514208761061093089380249232
29,1.211938542814382869492970708262512
30,1.218805204561539580452954612933594
31,1.225444642571065820522144842263180
32,1.231871443147123977517148341792625
33,1.238098829901432255542255535255877
34,1.244138828517912835801556159530984
35,1.250002407331493450393156110780922
36,1.255699597861316797826880259111452
37,1.261239598634527680575836829373684
38,1.266630865006389001903003702126115
39,1.271881187184629109745770118230447
40,1.276997758270102191945538354511414
41,1.281987233809093153429306439804995
42,1.286855784097605804478601620840237
43,1.291609140271486844333013682654163
44,1.296252635048144108895137616475853
45,1.300791238848047982326738300648749
46,1.305229591911068589749462703910963
47,1.309572032929224775946418205228124
48,1.313822624639834510725097743406202
49,1.317985176758393817716027722621178
50,1.32206326657638860973707655931465
51,1.32606025750377685138831285855415
52,1.32997931579753325524918962629768
53,1.33382342568519859950914806399264
54,1.33759540306481462341111930236423
55,1.34129790793914996437938937423583
56,1.34493345572204803058142457782855
57,1.34850442753752873755702628628129
58,1.35201307961747885125968492886159
59,1.35546155189101173258187597382408
60,1.35885187584755277073561395957261
61,1.36218598174614256535650071975434
62,1.36546570523514891208739907830852
63,1.36869279343933675737842184502689
64,1.37186891056493280831885887665841
65,1.37499564306778664334469303281282
66,1.37807450442488283061201187205781
67,1.38110693954519626950146898575988
68,1.38409432885212680991094321085001
69,1.38703799206643653326724065341425
70,1.38993919171568481092407607216925
71,1.39279913639355755188279729950048
72,1.39561898379018880939278128193684
73,1.39839984351251990958522312033586
74,1.40114277971192241674147208235950
75,1.40384881353468014869426027601206
76,1.40651892540947589910507573235671
77,1.40915405718472612494295430182715
78,1.41175511412744105930988599325566
79,1.41432296679424088976588171211407
80,1.41685845278422051666236371073041
81,1.41936237838250606451600851198623
82,1.42183552010258486890171284109264
83,1.42427862613480192755370390771155
84,1.42669241770779151264774788790139
85,1.42907759036905336506373637683763
86,1.43143481519036702603862500801143
87,1.43376473990328039081987380463859
88,1.43606798996948519119380754838364
89,1.43834516959050861160186858856263
90,1.44059686266080702682842766408545
91,1.44282363366802639719316897543949
92,1.44502602854390555964189496149542
93,1.44720457546903639807401132050968
94,1.44935978563445194750682062951931
95,1.45149215396279233264776664522138
96,1.45360215979159661932931174080964
97,1.45569026752108431515157411306112
98,1.45775692722861738138308123478861
99,1.45980257525188014598093014912763
100,1.46182763474266816717553409033038
101,1.46383251619304779291066302842433
102,1.46581761793552258670843094691012
103,1.46778332661873487691594908934488
104,1.46973001766012342158002579633900
105,1.47165805567686510743930985035278
106,1.47356779489633783727962784977042
107,1.47545957954726367794282770466247
108,1.47733374423261210172502695859512
109,1.47919061428527456036606739622379
110,1.48103050610745921070684780040780
111,1.48285372749468874989272164501652
112,1.48466057794523488436768238740508
113,1.48645134895576742110993981975298
114,1.48822632430394721180319427990159
115,1.48998578031865173213532524853032
116,1.49172998613847374676799665333290
117,1.49345920395910179751389449953276
118,1.49517368927015022115278466553618
119,1.49687369108197268960124205101589
120,1.49855945214296742291594083599445
121,1.50023120914784395836617269358274
122,1.50188919293730244567845832423796
123,1.50353362868954424562413410042113
124,1.50516473610401492931211730475673
125,1.50678272957775120928599000893114
126,1.50838781837468813622692106742134
127,1.50998020678826231717759495059872
128,1.51156009429762432401243398939135
129,1.51312767571776138764124294581059
130,1.51468314134381309156619672239719
131,1.51622667708984737429400039948021
132,1.51775846462234917290422419453479
133,1.51927868148866225849089578510062
134,1.52078750124061353823558195789284
135,1.52228509355353099052768023913544
136,1.52377162434086271201726875550799
137,1.52524725586459124754233261657864
138,1.52671214684162376188152498101409
139,1.52816645254633650637807518435684
140,1.52961032490943658751207570396708
141,1.53104391261329948700856451394335
142,1.53246736118393270980165634565968
143,1.53388081307970728600566954321637
144,1.53528440777699167340734651508675
145,1.53667828185281841923393435606538
146,1.53806256906470607120120386552998
147,1.53943740042775062487941357567222
148,1.54080290428910183638175064562613
149,1.54215920639992620130572099232142
150,1.54350642998496024078060963014906
151,1.54484469580975000885041356385073
152,1.54617412224566712033705050611267
153,1.54749482533279024885186726386208
154,1.54880691884073599417155769595531
155,1.55011051432751735494483924116371
156,1.55140572119650767306613881775881
157,1.55269264675158109629245630474028
158,1.55397139625050137717723885106805
159,1.5552420729566226811269247063506
160,1.5565047781889687410902598089222
161,1.5577596113707488549716447990742
162,1.5590066700763701868402207953615
163,1.5602460500770012252042858853565
164,1.5614778453847410349164165315716
165,1.5627021482954429028971714432496
166,1.5639190494302428932364369437253
167,1.5651286377758405439621878362175
168,1.5663310007235743943604466840609
169,1.5675262241073374049072889663524
170,1.5687143922403720128989623294211
171,1.5698955879509850182110672472689
172,1.5710698926172201658150938815151
173,1.5722373862005238273531856113648
174,1.5733981472784396252554803528507
175,1.5745522530763659843031609362872
176,1.5756997794984063169602649071711
177,1.5768408011573451029819334233364
178,1.5779753914037790176653947054732
179,1.5791036223544295536596535030783
180,1.5802255649196680827029412029068
181,1.5813412888302760058441344640346
182,1.5824508626634676875035640554346
183,1.5835543538681992226171423498027
184,1.5846518287897872783698816272239
185,1.5857433526938598186118814966694
186,1.5868289897896596795460145413849
187,1.5879088032527247971543727588627
188,1.5889828552469605226474648770550
189,1.5900512069461277569932794686626
190,1.5911139185547625555702943326125
191,1.5921710493285464254621069662317
192,1.5932226575941436975620330804447
193,1.5942688007685242773002270020193
194,1.5953095353777851147400503163767
195,1.5963449170754883263658332092079
196,1.5973750006605296604249442000997
197,1.5983998400945516811075469173277
198,1.5994194885189158335053056276708
199,1.6004339982712462231647723610603
200,1.6014434209015590503965292005448
201,1.6024478071879886757190097103412
202,1.6034472071521236925486231312547
203,1.6044416700739636618181563460371
204,1.6054312445065081233853160359053
205,1.6064159782899878495434599951879
206,1.6073959185657513593316391806330
207,1.6083711117898125642696042120527
208,1.6093416037460737669225614094804
209,1.6103074395592297551233961843531
210,1.6112686637073644874516065935150
211,1.6122253200342477289254938070730
212,1.6131774517613418640298152046052
213,1.6141251014995232649671077715256
214,1.6150683112605331908163002975544
215,1.6160071224681574238234275713490
216,1.6169415759691485972752212361058
217,1.6178717120438951739910669178074
218,1.6187975704168460478763991026201
219,1.6197191902666940414665803238142
220,1.6206366102363308075820019922746
221,1.6215498684425710373771498334912
222,1.6224590024856631721418181724502
223,1.6233640494585801796783372124181
224,1.6242650459561054545455901686329
225,1.6251620280837163987047942627689
226,1.6260550314662692205002411811247
227,1.6269440912564935948137351780195
228,1.6278292421432989945843502080065
229,1.6287105183598998458289706425789
230,1.6295879536917641923921806732381
231,1.6304615814843876596800859634080
232,1.6313314346509031262828799754873
233,1.6321975456795210889744747755158
234,1.6330599466408168671388519991097
235,1.6339186691948578177066739350940
236,1.6347737445981802593539202519710
237,1.6356252037106197260726890510552
238,1.6364730770019962811079408672996
239,1.6373173945586603268227084965113
240,1.6381581860899010638905425039625
241,1.6389954809342218811452360590184
242,1.6398293080654855320189626908269
243,1.6406596960989331283225775639637
244,1.6414866732970786395842780352608
245,1.6423102675754832710374058128489
246,1.6431305065084122388045152214204
247,1.6439474173343753240425615870444
248,1.6447610269615587865826319223163
249,1.6455713619731436065586728098051
250,1.6463784486325204381248716759075
251,1.6471823128883991746674806931140
252,1.6479829803798159234047275895394
253,1.6487804764410424609718218223886
254,1.6495748261063978262418275618869
255,1.6503660541149659298055190380132
256,1.6511541849152192648706902498887
257,1.6519392426695551103190053589434
258,1.6527212512587406699727427510683
259,1.6535002342862739509155415924677
260,1.6542762150826607665652247194284
261,1.6550492167096081775493929408076
262,1.6558192619641390951094280171290
263,1.6565863733826268969132050519208
264,1.6573505732447555054280242141662
265,1.6581118835774034533795152068033
266,1.6588703261584541033272647954615
267,1.6596259225205352338872410524274
268,1.6603786939546880255983766202669
269,1.6611286615139697156304655501615
270,1.6618758460169856447556108984863
271,1.6626202680513599798177434500821
272,1.6633619479771390905420358189962
273,1.6641009059301350230763930714113
274,1.6648371618252062785601904269797
275,1.6655707353594797715770295899440
276,1.6663016460155122461215275981097
277,1.6670299130643986323709381329530
278,1.6677555555688190981869265297816
279,1.6684785923860362977926371458059
280,1.6691990421708349104722390901015
281,1.6699169233784113580969773826701
282,1.6706322542672111977269366065034
283,1.6713450529017174017159764409201
284,1.6720553371551866818355825996394
285,1.6727631247123406646599254747134
286,1.6734684330720079429374194532577
287,1.6741712795497220622215198366164
288,1.6748716812802718445172659332596
289,1.6755696552202086969889158439562
290,1.6762652181503116382366213692107
291,1.6769583866780078830633938022212
292,1.6776491772397518706198350746690
293,1.6783376061033666416818453856447
294,1.6790236893703426019569446773504
295,1.6797074429780957585448663769874
296,1.6803888827021930150929356799157
297,1.6810680241585344573522331919212
298,1.6817448828055019458662978395602
299,1.6824194739460708186284653512134
300,1.6830918127298864542918275270207
301,1.6837619141553061073476552767028
302,1.6844297930714081081831538765447
303,1.6850954641799656011252894233889
304,1.6857589420373883979784910263726
305,1.6864202410566343755601696846974
306,1.6870793755090896804322717781828
307,1.6877363595264149227800278197343
308,1.6883912071023648378642953429148
309,1.6890439320945775043111317943594
310,1.6896945482263334543827996643902
311,1.6903430690882882711307779586546
312,1.6909895081401761855617569567680
313,1.6916338787124860665628709054791
314,1.6922761940081116078578947758161
315,1.6929164671039750316356964190013
316,1.6935547109526256844905055709150
317,1.6941909383838110642773888873712
318,1.6948251621060256291256565181232
319,1.6954573947080345301705303205047
320,1.6960876486603722692589736816282
321,1.6967159363168202005624537410954
322,1.6973422699158589905255040321342
323,1.6979666615820995501871201747814
324,1.6985891233276914170132358434418
325,1.6992096670537103482185898579163
326,1.6998283045515233628032546310429
327,1.7004450475041340530568733829834
328,1.7010599074875053547238289798516
329,1.7016728959718647506853609051070
330,1.7022840243229883398231986030670
331,1.7028933038034652096386537193035
332,1.7035007455739431738491970238851
333,1.7041063606943562534983291011528
334,1.7047101601251320855818789283503
335,1.7053121547283835741038480229128
336,1.7059123552690808415931247703665
337,1.7065107724162063533071011273590
338,1.7071074167438942729544151521178
339,1.7077022987325501144234806542293
340,1.7082954287699567808371376820212
341,1.7088868171523627044911442032457
342,1.7094764740855545848056523907019
343,1.7100644096859143620588148951678
344,1.7106506339814604205896394700484
345,1.7112351569128748407838876479336
346,1.7118179883345141746181206844117
347,1.7123991380154073101001361949375
348,1.7129786156402372363099479109455
349,1.7135564308103102539457803566169
350,1.7141325930445101736954006450427
351,1.7147071117802395900170865589743
352,1.7152799963743479126752613989098
353,1.7158512561040454403897149630699
354,1.7164209001678048910548781865334
355,1.7169889376862507537944247724698
356,1.7175553777030346726201885629982
357,1.7181202291857001007215775185257
358,1.7186835010265354693738808895903
359,1.7192452020434116165922344935130
360,1.7198053409806124134381747680460
361,1.7203639265096503328362608681247
362,1.7209209672300734424892244682640
363,1.7214764716702584174937757415293
364,1.7220304482881945966400076648263
365,1.7225829054722573187510545356489
366,1.7231338515419694167224183188809
367,1.7236832947487537612614318107567
368,1.7242312432766736430462625643587
369,1.7247777052431656258404074007990
370,1.7253226886997605837293586240825
371,1.7258662016327957757793329488310
372,1.7264082519641169145892249399353
373,1.7269488475517701954426581322881
374,1.7274879961906885945317789299039
375,1.7280257056133631278144497339689
376,1.7285619834905105267123751276175
377,1.7290968374317291198532707556140
378,1.7296302749861460882601967638793
379,1.7301623036430579337825205362710
380,1.7306929308325609175252038460925
381,1.7312221639261743437044597544423
382,1.7317500102374538070919880459207
383,1.7322764770225990787015119808589
384,1.7328015714810515934103426088598
385,1.7333253007560851607626833705058
386,1.7338476719353905575984831869903
387,1.7343686920516497518355856153894
388,1.7348883680831036941934386231456
389,1.7354067069541143525339708824786
390,1.7359237155357181779145364349209
391,1.7364394006461713192818499258950
392,1.7369537690514901951718108081687
393,1.7374668274659848958891334324270
394,1.7379785825527839972503801177551
395,1.7384890409243536427499826875381
396,1.7389982091430105450030157076854
397,1.7395060937214285363589222125693
398,1.7400127011231386768063822903145
399,1.7405180377630214849462019097194
400,1.7410221100077955919758296127403
401,1.7415249241764988675899859767322
402,1.7420264865409627629998369589848
403,1.7425268033262826917952201937868
404,1.7430258807112823417254026078949
405,1.7435237248289693828278969453259
406,1.7440203417669886809258088408572
407,1.7445157375680701331978875327035
408,1.7450099182304686290010198926649
409,1.7455028897083989970063146930337
410,1.7459946579124684531125757920287
411,1.7464852287101008091394924469868
412,1.7469746079259560248749669591258
413,1.7474628013423461825208384516517
414,1.7479498146996443073670210018651
415,1.7484356536966903186419050192312
416,1.7489203239911905401562512867107
417,1.7494038312001136192126742840794
418,1.7498861809000800170013638387930
419,1.7503673786277493489790390180720
420,1.7508474298802005571376490923676
421,1.7513263401153088663310841002533
422,1.7518041147521188062478764216905
423,1.7522807591712111351537557652504
424,1.7527562787150672791143933730669
425,1.7532306786884276660416428368241
426,1.7537039643586475613884034014772
427,1.7541761409560478901050830148432
428,1.7546472136742610585298929812701
429,1.7551171876705756885831793921062
430,1.7555860680662731263550106148067
431,1.7560538599469632287228349716073
432,1.7565205683629165774957405251441
433,1.7569861983293884589646752736057
434,1.7574507548269457067770946636918
435,1.7579142428017842317920205151968
436,1.7583766671660451398862333736071
437,1.7588380327981275990624726879356
438,1.7592983445429974379032577366637
439,1.7597576072124921566553247541224
440,1.7602158255856234221367435325528
441,1.7606730044088742062992470926098
442,1.7611291483964941320702786109964
443,1.7615842622307926741485617755103
444,1.7620383505624248341017911178219
445,1.7624914180106786204028795683722
446,1.7629434691637553577307057578455
447,1.7633945085790499946805987104145
448,1.7638445407834246280622536986749
449,1.7642935702734830842654045545069
450,1.7647416015158387101098518616755
451,1.7651886389473828762488892615691
452,1.7656346869755470344490888104256
453,1.7660797499785640717924037417499
454,1.7665238323057253507231885315327
455,1.7669669382776370587860617203229
456,1.7674090721864711650264506638159
457,1.7678502382962156787334931754209
458,1.7682904408429206063944757869482
459,1.7687296840349421207569565705299
460,1.7691679720531845843136544418049
461,1.7696053090513382769059116585636
462,1.7700416991561160404668557861469
463,1.7704771464674874446463274742889
464,1.7709116550589086341930224425050
465,1.7713452289775518267995845662936
466,1.7717778722445315920771904345192
467,1.7722095888551271921448946573483
468,1.7726403827790059994435293938686
469,1.7730702579604404684394308590665
470,1.7734992183185261857275359734649
471,1.7739272677473952656074827283245
472,1.7743544101164293887131513075781
473,1.7747806492704678345642800996051
474,1.7752059890300180120008156332005
475,1.7756304331914574102216537568137
476,1.7760539855272394841981244441439
477,1.7764766497860938074244468645273
478,1.7768984296932251679582311305681
479,1.7773193289505104970991427370100
480,1.7777393512366940252502060656469
481,1.7781585002075792157995858865955
482,1.7785767794962210457715610606059
483,1.7789941927131140132056885626404
484,1.7794107434463786909788055014248
485,1.7798264352619483039065962116701
486,1.7802412717037499138759706893811
487,1.7806552562938870617497747036330
488,1.7810683925328184624866036981553
489,1.7814806838995359815323445578684
490,1.7818921338517397554834951240587
491,1.7823027458260125911772124292285
492,1.7827125232379922312650996440378
493,1.7831214694825414611477121225286
494,1.7835295879339171511753583771821
495,1.7839368819459364264743603791053
496,1.7843433548521432086811916916712
497,1.7847490099659708149642312626715
498,1.7851538505809045594423365293972
499,1.7855578799706418541760339325600
500,1.785961101389251940054175621182
501,1.786363518071330993436167652543
502,1.786765133232160063548188240869
503,1.787165950067857308573705642020
504,1.787565971755532374086816134069
505,1.787965201453435761099641768345
506,1.788363642301108913615215884185
507,1.788761297419532873511501344057
508,1.789158169911275142511029030494
509,1.789554262860632981918209472884
510,1.789949579333779203148333552303
511,1.790344122378903679911236556844
512,1.790737895026354482028489189363
513,1.791130900288777246403731699077
514,1.791523141161253461392309958508
515,1.791914620621438038650093339815
516,1.792305341629694382634168394236
517,1.792695307129228032327846773873
518,1.793084520046220660412186524164
519,1.793472983289961211662585220036
520,1.793860699752977037410711273565
521,1.794247672311161821136011203441
522,1.794633903823904571224919895264
523,1.795019397134216117890845185493
