Eigenstate,Potential Energy
1,0.500000000047262609287740044203898363
2,0.64623093795962039451692740936974719
3,0.73633761061118671484491034996272319
4,0.79966527970177389746685653027857166
5,0.8480465785552849088577527945316862
6,0.8870660019296748423213602319979513
7,0.9197208312646586260420722350935990
8,0.9477838529380034757438258682270159
9,0.9723835659564738512227019691680489
10,0.9942802244689557055006651747040032
11,1.0140093986167086615329707203517572
12,1.0319621837045297792645808594284449
13,1.0484327097983628488079940846767111
14,1.0636476745814699870634678175152284
15,1.0777854591686225965746410073556669
16,1.090988932976550313157671802080594
17,1.103374287185447966363416181322022
18,1.115037285745176890504372390031827
19,1.126057788479243882975346843513921
20,1.136503088718738638348443618830507
21,1.146430419384031670789590022091778
22,1.155888864143515013025737269549977
23,1.164920835350127307178077040959139
24,1.173563231441776303609987044719841
25,1.181848353737265520804776747494853
26,1.189804640243882210516691149001967
27,1.197457258619973366939015332994651
28,1.204828589533985706554825322882242
29,1.211938623866417721774565944635880
30,1.218805291551644340714737278579497
31,1.225444735710636224355735244721630
32,1.231871542647696146844792065245939
33,1.238098935974687100040500945839699
34,1.244138941375680496850547474047078
35,1.250002527185757781936523828313710
36,1.255699724924219879611771796226059
37,1.261239733118374360099643068475677
38,1.266631007123651462075494791862274
39,1.271881337147951459822267764411197
40,1.276997916292305079728157953173808
41,1.281987400103178397091729961470137
42,1.286855958876761042662745895893713
43,1.291609323749090203406598481924371
44,1.296252827437768886457939599121378
45,1.300791440363467346218382042834375
46,1.305229802766260291949390048362613
47,1.309572253338375880872105999167471
48,1.313822854817346137531920785209330
49,1.317985416918885896284398360162674
50,1.32206351693470465010238134586779
51,1.32606051827498872642880733445312
52,1.32997958719694599649804052355581
53,1.33382370792835520600067429323902
54,1.33759569636750088350916933481975
55,1.34129821251739929056857246755326
56,1.34493377179214630723040444268227
57,1.34850475531601918168793602051477
58,1.35201341932116688637954101334778
59,1.35546190373696987565091058599068
60,1.35885224005312553236433841374633
61,1.36218635852895136333821765465965
62,1.36546609481309699838614180950281
63,1.36869319603061415870407870862300
64,1.37186932638802128043174320089176
65,1.37499607234146463924137418186367
66,1.37807494736823048275269548848653
67,1.38110739637760038624691659717101
68,1.38409479979328588634394108901060
69,1.38703847733636577658003834383123
70,1.38993969153472118055892619337915
71,1.39279965098236481461824836725095
72,1.39561951336976260957313927392270
73,1.39840038830419285469531381121973
74,1.40114333993736917853296967175966
75,1.40384938941592258007389924230165
76,1.40651951716888816699867978968946
77,1.40915466504503985935276970577514
78,1.41175573831175051878599183659829
79,1.41432360752600814351558848131354
80,1.41685911028728064352440021823802
81,1.41936305288107236902926500862028
82,1.42183621182125411470094241070570
83,1.42427933529855958832721686425895
84,1.42669314454201704089469798957956
85,1.42907833509952547889102676779866
86,1.43143557804326901423981706934336
87,1.43376552110520543648086996896446
88,1.43606878974744171407230432199352
89,1.43834598817192562952978762732977
90,1.44059770027353953638875119043285
91,1.44282449054036077392475588057850
92,1.44502690490456497802795740795353
93,1.44720547154718627157206048959533
94,1.44936070165970538887995700651628
95,1.45149309016521563485928461119330
96,1.45360311640171475726457489793274
97,1.45569124476988646843331351233161
98,1.45775792534756247854811350593238
99,1.45980359447290243028854027284861
100,1.46182867529818278431965292040839
101,1.46383357831595640091010918229764
102,1.46581870185921898825150570380416
103,1.46778443257711067443765458144787
104,1.46973114588757369535243229765998
105,1.47165920640829411695745484313207
106,1.47356896836716474622754459414021
107,1.47546077599342830302636532839029
108,1.47733496389058068566019112584013
109,1.47919185739204556931383010223645
110,1.48103177290056915644741002454298
111,1.48285501821221803703444162319754
112,1.48466189282581368288803179581620
113,1.48645268823858156452802660629597
114,1.48822768822874412128568019257922
115,1.48998716912574636683966859347583
116,1.49173140006875458072935138726078
117,1.49346064325403682338418928588185
118,1.49517515417179298110278649148829
119,1.49687518183296833369881096223102
120,1.49856096898655879529602067203038
121,1.50023275232787771151038584861587
122,1.50189076269823518312455890539028
123,1.50353522527644869342813092491253
124,1.50516635976258613658814505314980
125,1.50678438055431277815164854917308
126,1.50838949691619848148419452941843
127,1.50998191314232095606208988042086
128,1.51156182871247819634620037221901
129,1.51312943844231120672704156159041
130,1.51468493262761972616365191912221
131,1.51622849718313826202077931796073
132,1.51776031377602476540823002658972
133,1.51928055995430249874175139516632
134,1.52078940927048437028691026376277
135,1.52228703140059090210423402639348
136,1.52377359225876931028368273163957
137,1.52524925410770786841340835906374
138,1.52671417566502611323654000587833
139,1.52816851220581934554474514001161
140,1.52961241566152043338866091104271
141,1.53104603471523736719554560690136
142,1.53246951489371694311759535341111
143,1.53388299865607630076469357540773
144,1.53528662547943686183906529604184
145,1.53668053194159102842946470072012
146,1.53806485180082413097240608730055
147,1.53943971607300591292139694513197
148,1.54080525310606688113214916126266
149,1.54216158865196132289751872587980
150,1.54350884593622063048835440182292
151,1.54484714572519284743355855857370
152,1.54617660639105873568697269772863
153,1.54749734397471331335301272592655
154,1.54880947224659676219035246420201
155,1.55011310276555294086376686802206
156,1.55140834493579337028389579340684
157,1.55269530606203773761460881509332
158,1.55397409140290273702557907050658
159,1.5552448042226029199993954573997
160,1.5565075458410298927071162437769
161,1.5577624156822683565472744773444
162,1.5590095113216084529239083489365
163,1.5602489285311092655370498129673
164,1.5614807613237681167550232940099
165,1.5627051019963442582606053120795
166,1.5639220411708874715337226477656
167,1.5651316678350188104648857941735
168,1.5663340693810061749872603512111
169,1.5675293316436797777921575174156
170,1.5687175389372272472186121049642
171,1.5698987740909085607519188383211
172,1.5710731184837286757640837011363
173,1.5722406520781032598011481987644
174,1.5734014534525533639064227315350
175,1.5745555998334630238871735726256
176,1.5757031671259294958524203112063
177,1.5768442299437393865339306378006
178,1.5779788616384998327617044857641
179,1.5791071343279511750142895631292
180,1.5802291189234920714181453506136
181,1.5813448851569397007567192928720
182,1.5824545016065527498498168492485
183,1.5835580357223402345520460279296
184,1.5846555538506803958814337745141
185,1.5857471212582714793765379924738
186,1.5868328021554353662759686667259
187,1.5879126597187978569931892932751
188,1.5889867561133610431753972697198
189,1.5900551525139914994091737324089
190,1.5911179091263399456222445655975
191,1.5921750852072116027045732283851
192,1.5932267390844036235226723532021
193,1.5942729281760279031451210804503
194,1.5953137090093326090320519982191
195,1.5963491372390403635159619598559
196,1.5973792676652167704430936759263
197,1.5984041542506836612642807712546
198,1.5994238501379912225226083289266
199,1.6004384076659618385597058753951
200,1.6014478783858195896076720540797
201,1.6024523130769163816518524033949
202,1.6034517617620680841824042682894
203,1.6044462737225113305227409677117
204,1.6054358975124925956033576805031
205,1.6064206809734995164992705483705
206,1.6074006712481474744351812686252
207,1.6083759147937273088901984872865
208,1.6093464573954283852139675335240
209,1.6103123441792427585886410277559
210,1.6112736196245619299427452874340
211,1.6122303275764735527805149740985
212,1.6131825112577683180559437183494
213,1.6141302132806613949870828883198
214,1.6150734756582434035011634893665
215,1.6160123398156601245429415190249
216,1.6169468466010349027042980650807
217,1.6178770362961377002180740733495
218,1.6188029486268097747669847221701
219,1.6197246227731472540444595217032
220,1.6206420973794561151953830138099
221,1.6215554105639764714281822807688
222,1.6224645999283933631636383257690
223,1.6233697025671276145530210446265
224,1.6242707550764218146641261257281
225,1.6251677935632239798786405851843
226,1.6260608536538724354426191274048
227,1.6269499705025905590167532742675
228,1.6278351787997931964274529797995
229,1.6287165127802119017622379444501
230,1.6295940062308436880471747770516
231,1.6304676924987250777699155985938
232,1.6313376044985418621621009145464
233,1.6322037747200695547385918674990
234,1.6330662352354606851526716298448
235,1.6339250177063721044598997511141
236,1.6347801533909420005521421100498
237,1.6356316731506202438814194438096
238,1.6364796074568537944772284977062
239,1.6373239863976326058295194998486
240,1.6381648396838981790466213129804
241,1.6390021966558190486277249951635
242,1.6398360862889360557916831564796
243,1.6406665372001814401263188113420
244,1.6414935776537734377846243298713
245,1.6423172355669907593297555832385
246,1.6431375385158294657865160673319
247,1.6439545137405436246752193188466
248,1.6447681881510773265723546418338
249,1.6455785883323830307037874892065
250,1.6463857405496366236816572635043
251,1.6471896707533470908021716718974
252,1.6479904045843635978096015289359
253,1.6487879673787850547352897424609
254,1.6495823841727718180746826793887
255,1.6503736797072634107372072434359
256,1.6511618784326023445422994836667
257,1.6519470045130704360116867534493
258,1.6527290818313340595228444601322
259,1.6535081339928051406811136791503
260,1.6542841843299182756207331111073
261,1.6550572559063242892991774165184
262,1.6558273715210049575235168249196
263,1.6565945537123077426026017505594
264,1.6573588247619059927900020380456
265,1.6581202066986831300577285315043
266,1.6588787213025429932450078926937
267,1.6596343901081495491266730264935
268,1.6603872344085960044128435368315
269,1.6611372752590075878916942784536
270,1.6618845334800737261519428300626
271,1.6626290296615188961349227914323
272,1.6633707841655061333732855422680
273,1.6641098171299806383232676953133
274,1.6648461484719506891020555967652
275,1.6655797978907097355019996952994
276,1.6663107848709979519283539757573
277,1.6670391286861107325670206779705
278,1.6677648484009458827241202195866
279,1.6684879628750010087995858532816
280,1.6692084907653131997581097623716
281,1.6699264505293488889191720775030
282,1.6706418604278413923321986282087
283,1.6713547385275793361820805023569
284,1.6720651027041431297584095624634
285,1.6727729706445962912492294239550
286,1.6734783598501276511019382745360
287,1.6741812876386494922434354677405
288,1.6748817711473480289345617224776
289,1.6755798273351908723225242645382
290,1.6762754729853922152195835956152
291,1.6769687247078335770480381835570
292,1.6776595989414429938591600127390
293,1.6783481119565365592008962404295
294,1.6790342798571173527511036978215
295,1.6797181185831338438613954824986
296,1.6803996439127053555744934059240
297,1.6810788714643045208410136878675
298,1.6817558166989060476896147691006
299,1.6824304949220985962080919325328
300,1.6831029212861615179416133549077
301,1.6837731107921068691464062622543
302,1.6844410782916887908320860949131
303,1.6851068384893774287230432046951
304,1.6857704059443009706691072579747
305,1.6864317950721572300340004788367
306,1.6870910201470940382832529926810
307,1.6877480953035556287469078382901
308,1.6884030345381024900089627952654
309,1.6890558517112007782109308063422
310,1.6897065605489816234401584199677
311,1.6903551746449739251284438608251
312,1.6910017074618081496188579807841
313,1.6916461723328925226722413405320
314,1.6922885824640634212130529932739
315,1.6929289509352092839825563506270
316,1.6935672907018694167665268424182
317,1.6942036145968052308286430729613
318,1.6948379353315492658213965656407
319,1.6954702654979291387625718305306
320,1.6961006175695664203634014842182
321,1.6967290039033543576697590142623
322,1.6973554367409105574764211397950
323,1.6979799282100081445808325380479
324,1.6986024903259843720460706814102
325,1.6992231349931284454828143131693
326,1.6998418740060467986068509864128
327,1.7004587190510086408578875988114
328,1.7010736817072689663051706649532
329,1.7016867734483739987298599701402
330,1.7022980056434455045812677172869
331,1.7029073895584454124161695224133
332,1.7035149363574218000773416676726
333,1.7041206571037366281821974857568
334,1.7047245627612734039607849696013
335,1.7053266641956290903917068552683
336,1.7059269721752863187051156697450
337,1.7065254973727687765151995179147
338,1.7071222503657808304523164427674
339,1.7077172416383274478202390336837
340,1.7083104815818205086372140625781
341,1.7089019804961672216587197581062
342,1.7094917485908431415506774804562
343,1.7100797959859494250231739420251
344,1.7106661327132543196528727726789
345,1.7112507687172207047502834823290
346,1.7118337138560171590891221414169
347,1.7124149779025161208793979766835
348,1.7129945705452759517322297381658
349,1.7135725013895104495647871325429
350,1.7141487799580433528121890517320
351,1.7147234156922499235748594764114
352,1.7152964179529852920939052172051
353,1.7158677960214988469602287561033
354,1.7164375591003360855626771473310
355,1.7170057163142282900873988986368
356,1.7175722767109682388885796637158
357,1.7181372492622751923059938183464
358,1.7187006428646483969689081623724
359,1.7192624663402048537644939255266
360,1.7198227284375102874310225458413
361,1.7203814378323950626854377116780
362,1.7209386031287615285289519501473
363,1.7214942328593773863870718936237
364,1.7220483354866601061227900744072
365,1.7226009194034506263370158451525
366,1.7231519929337752166722132778338
367,1.7237015643335983941786665241374
368,1.7242496417915636825219108452307
369,1.7247962334297268466280455311672
370,1.7253413473042773159940358380530
371,1.7258849914062506500251546864247
372,1.7264271736622310019348236124933
373,1.7269679019350435479765111717603
374,1.7275071840244411905454007497106
375,1.7280450276677762267770935618020
376,1.7285814405406684389179209277005
377,1.7291164302576613957396190910532
378,1.7296500043728701324686558163756
379,1.7301821703806220490966515691933
380,1.7307129357160877838996232256331
381,1.7312423077559049376671960417534
382,1.7317702938187917668767566594518
383,1.7322969011661555205426807320111
384,1.7328221370026903845085093524662
385,1.7333460084769686545069764397100
386,1.7338685226820257967097736826549
387,1.7343896866559351451751553202007
388,1.7349095073823761730629899731896
389,1.7354279917911970123748578328277
390,1.7359451467589684113987688061291
391,1.7364609791095294468718238977006
392,1.7369754956145285993132814850802
393,1.7374887029939576650893350505198
394,1.7380006079166770863829637578294
395,1.7385112170009355560192428922150
396,1.7390205368148835480927132665132
397,1.7395285738770804043845642680115
398,1.7400353346569949847853189125707
399,1.7405408255754984475976594002710
400,1.7410450530053534597607671948155
401,1.7415480232716958860015257293078
402,1.7420497426525097022171863437237
403,1.7425502173790979539178012239973
404,1.7430494536365476529070556375573
405,1.7435474575641860777430622432500
406,1.7440442352560345871036135678434
407,1.7445397927612570628730854419536
408,1.7450341360846004862441473238235
409,1.7455272711868305080079212190040
410,1.7460192039851645276151884160910
411,1.7465099403536965411269972890890
412,1.7469994861238173407520718557871
413,1.7474878470846311451352062186616
414,1.7479750289833650843541045473100
415,1.7484610375257758236965989483741
416,1.7489458783765497559660950498397
417,1.7494295571596996109175704861359
418,1.7499120794589546451781579143844
419,1.7503934508181486912856550424418
420,1.7508736767416010478889584445333
421,1.7513527626944941634186341516744
422,1.7518307141032473949588915081295
423,1.7523075363558846785906041311135
424,1.7527832348023997250618910464026
425,1.7532578147551151202815620086821
426,1.7537312814890389376124007621400
427,1.7542036402422163467338358282375
428,1.7546748962160762329038751372843
429,1.7551450545757767391521640302635
430,1.7556141204505425936572980116854
431,1.7560820989340017261104540749958
432,1.7565489950845183227355037461639
433,1.7570148139255176580138294255810
434,1.7574795604458138012105121252875
435,1.7579432395999280215364249463422
436,1.7584058563084057930987141360402
437,1.7588674154581305611764620805246
438,1.7593279219026332520548688801481
439,1.7597873804623982078918395998941
440,1.7602457959251666180097186537325
441,1.7607031730462346066392204012663
442,1.7611595165487495409465351459585
443,1.7616148311240042072205356848300
444,1.7620691214317234747814774654686
445,1.7625223921003527784611738805206
446,1.7629746477273394441968517779177
447,1.7634258928794140271080548840088
448,1.7638761320928648804590016498450
449,1.7643253698738137962176097798882
450,1.7647736106984848698605336778775
451,1.7652208590134740927344113239166
452,1.7656671192360125135374523858957
453,1.7661123957542287122161057353480
454,1.7665566929274069754504689172665
455,1.7670000150862447978324515679202
456,1.7674423665331050059693981349397
457,1.7678837515422672014598183894762
458,1.7683241743601749188817676256033
459,1.7687636392056810129672642584096
460,1.7692021502702909175589152302116
461,1.7696397117184016263319701073952
462,1.7700763276875396085968541032493
463,1.7705120022885962642202735973253
464,1.7709467396060590788454696143180
465,1.7713805436982424484281110088642
466,1.7718134185975153040672371388826
467,1.7722453683105248179404282224282
468,1.7726763968184212062796072907344
469,1.7731065080770761063885083457450
470,1.7735357060173020525483834655209
471,1.7739639945450673182371655272185
472,1.7743913775417104225936672510014
473,1.7748178588641496523555985532172
474,1.7752434423450951036024094386334
475,1.7756681317932521663974546992254
476,1.7760919309935289664826523458756
477,1.7765148437072380973780027611397
478,1.7769368736722973192366011645904
479,1.7773580246034281142073263290836
480,1.7777783001923524932638577949212
481,1.7781977041079866057599100565572
482,1.7786162399966347208882303478108
483,1.7790339114821789614409709566047
484,1.7794507221662676100341525479967
485,1.7798666756285034650871504370152
486,1.7802817754266268317749692648925
487,1.7806960250966999971706311558942
488,1.7811094281532877865016343934691
489,1.7815219880896374290731917023662
490,1.7819337083778555973625954954062
491,1.7823445924690847539512908881102
492,1.7827546437936773948796069377452
493,1.7831638657613681648349015372672
494,1.7835722617614449386240291772502
495,1.7839798351629170618485974008646
496,1.7843865893146839956342073818176
497,1.7847925275457000513732796596090
498,1.7851976531651391611842901538020
499,1.7856019694625571818678729127855
500,1.786005479708053863299553790188
501,1.786408187152430227753214417857
502,1.786810095027348815790957219222
503,1.787211206545488267325110594309
504,1.787611524900700082163420294827
505,1.788011053268160408000970494544
506,1.788409794804522586446218857820
507,1.788807752648068305620553393322
508,1.789204929918856999819134910921
509,1.789601329718871727655229496545
510,1.789996955132167582478791282278
511,1.790391809225015866704218467535
512,1.790785895046047930823949839046
513,1.791179215626397293436941475359
514,1.791571773979840719368021872010
515,1.791963573102938630802590660923
516,1.792354615975173062476709873533
517,1.792744905559084236376670602937
518,1.793134444800407542074699158584
519,1.793523236628207705402335066226
520,1.793911283955013003243847372060
521,1.794298589676946320477971159783
522,1.794685156673857326091051201597
523,1.795070987809452206463553451242
