Eigenstate,Potential Energy
1,0.500000000019822789862430187547513120
2,0.64623093778050739803527586495989304
3,0.73633761008505603251090194377743409
4,0.79966527860590174198416197543708900
5,0.8480465766570056212548012360214217
6,0.8870659989922480140009688136964526
7,0.9197208270494307813210534253655921
8,0.9477838472053095109004126643980054
9,0.9723835584660561384264436120521906
10,0.9942802149801767456639702517266008
11,1.0140093868886665492146015984557183
12,1.0319621694961241418618151776411560
13,1.0484326928683338235554745364296990
14,1.0636476546884216810315112609133498
15,1.0777854360710371853299065649090286
16,1.090988906432796258854925202619812
17,1.103374256953784410350050709268222
18,1.115037251583755480191712941525330
19,1.126057750146108831011052294899106
20,1.136503045971825534505007583672967
21,1.146430371981165394787154901742699
22,1.155888811842406986697935563262225
23,1.164920777908372252602141778293601
24,1.173563168616848625828841473062959
25,1.181848285286515401025534121866961
26,1.189804565924531472915617303894784
27,1.197457178189111166121930340244316
28,1.204828502748564071180560371547569
29,1.211938530483246981447707303593641
30,1.218805191327388457057834694410020
31,1.225444628401808042545974253478015
32,1.231871428010652580408748816254805
33,1.238098813765624259037419503135870
34,1.244138811350628767523423456596521
35,1.250002389100576864316026158155631
36,1.255699578534593788308450818969944
37,1.261239578179806392532486592402536
38,1.266630843391459137598956108245714
39,1.271881164377261432583803953061436
40,1.276997734238048027579780414644684
41,1.281987208520083888466149867383638
42,1.286855757519352382987274921699062
43,1.291609112371679262350759980673204
44,1.296252605794450907081779407557550
45,1.300791208208115736898331940907182
46,1.305229559852521401799854004098240
47,1.309571999419663759248006535870129
48,1.313822589646837278085365862856591
49,1.317985140249513965953957223904855
50,1.32206322851915520333300109606629
51,1.32606021786569390485175415187954
52,1.32997927454607921424153672491653
53,1.33382338278782582075143679442935
54,1.33759535848894885340148079130758
55,1.34129786165218981693983622107902
56,1.34493340769136446324937182799984
57,1.34850437773046452683326772068293
58,1.35201302800134806672128740221013
59,1.35546149843309920986566571123369
60,1.35885182051511358339542383725017
61,1.36218592450640149559518954178731
62,1.36546564605529992036271507580862
63,1.36869273228654245088009128161562
64,1.37186884740632390831277495687542
65,1.37499557787046145137871816679479
66,1.37807443715590669357673370857871
67,1.38110687017160104353815680003726
68,1.38409425734091032315801031119161
69,1.38703791838456204743562594553165
70,1.38993911583008048169121531775510
71,1.39279905827111588809410367952239
72,1.39561890339776613105896108440734
73,1.39839976081693580466313658751731
74,1.40114269467995919668573255111170
75,1.40384872613308230276627651411086
76,1.40651883560494954742579717753701
77,1.40915396494393847027517291784667
78,1.41175501941701983755556001349645
79,1.41432286958077381916360167954084
80,1.41685835303425474566976432870888
81,1.41936227606254761836161427034098
82,1.42183541517909809479042575179507
83,1.42427851857420893850988202005297
84,1.42669230747647162997956956140117
85,1.42907747743334255943230474759612
86,1.43143469951655735711506727767666
87,1.43376462145761944551344376136935
88,1.43606786871817552043382845646507
89,1.43834504549970716565615016666856
90,1.44059673569662458914061079239086
91,1.44282350379652701672126595376543
92,1.44502589573110598168014073328878
93,1.44720443968090549353996308950840
94,1.44935964683691014067549271939467
95,1.45149201212171102731442228576930
96,1.45360201487279762338240754066568
97,1.45569011949033926353716763867536
98,1.45775677605164715744192026952698
99,1.45980242089435430113925484937399
100,1.46182747717020433897051222085795
101,1.46383235537121112133123877007320
102,1.46581745382982512883222731219889
103,1.46778315919463501982274983483157
104,1.46972984688302529352220194826871
105,1.47165788151211798724946083902552
106,1.47356761730923556199556094546248
107,1.47545939850304404862986492855585
108,1.47733355969645628747553432280457
109,1.47919042622230650045593332173662
110,1.48103031448274501488854135426043
111,1.48285353227323609680443417427129
112,1.48466037909199241803790836955998
113,1.48645114643562414553675590687324
114,1.48822611808173188358735969314950
115,1.48998557035913225114618958750949
116,1.49172977240635654482109588238747
117,1.49345898641903122503897258917476
118,1.49517346788670793183086146482289
119,1.49687346581967702294922101483873
120,1.49855922296627278479711615836764
121,1.50023097602114019940487770932206
122,1.50188895582491423755695529182707
123,1.50353338755573045523972386794612
124,1.50516449091296799077232467547623
125,1.50678248029359649371952856188201
126,1.50838756496148331938802304366906
127,1.50997994920999674482117179484096
128,1.51155983251821837501736052211231
129,1.51312740970106583485896570509947
130,1.51468287105360846037170372316535
131,1.51622640248984329881605989992347
132,1.51775818567618374991166142833562
133,1.51927839815990139891155060239755
134,1.52078721349275031628442463684722
135,1.52228480134998499042042351433909
136,1.52377132764497937224571179131040
137,1.52524695463964120268747114113860
138,1.52671184105080218194035521184594
139,1.52816614215276243357982891293896
140,1.52961000987615227059955411864750
141,1.53104359290326971296001515021588
142,1.53246703676004413296849189987609
143,1.53388048390476775464126107297762
144,1.53528407381372955356178263103303
145,1.53667794306388191598971750108027
146,1.53806222541266254722454433662051
147,1.53943705187508591626161873546854
148,1.54080255079821956574515769681749
149,1.54215884793314708814832064196212
150,1.54350606650452140903348713653661
151,1.54484432727780429162183721972135
152,1.54617374862428236181694461518540
153,1.54749444658394860335024301215933
154,1.54880653492633322226427501833788
155,1.55011012520936211669990878906901
156,1.55140532683632081832359376956645
157,1.55269224711099495197068219253003
158,1.55397099129105903157842429335846
159,1.5552416626397772652141568794156
160,1.5565043624760827067085897020332
161,1.5577591902230932499852624028932
162,1.5590062434551239271576893784640
163,1.5602456179432503636636584160845
164,1.5614774076994780270017536861105
165,1.5627017050195658692579144435855
166,1.5639186005245548789808241013532
167,1.5651281832010487746957149400410
168,1.5663305404402895289401900321060
169,1.5675257580760727848827452643023
170,1.5687139204215429086097703117241
171,1.5698951103049078715118843566990
172,1.5710694091041118293975797264973
173,1.5722368967805008006349835595428
174,1.5733976519115172868057007569244
175,1.5745517517224578207738461805962
176,1.5756992721173231484929866108742
177,1.5768402877087943050584399586701
178,1.5779748718473637393711195310692
179,1.5791030966496479323286046752589
180,1.5802250330259124549122543261495
181,1.5813407507068321147263943545821
182,1.5824503182695138863447511497178
183,1.5835538031628056747078666635195
184,1.5846512717319151530772483875683
185,1.5857427892423604836392198299648
186,1.5868284199032738893473852945091
187,1.5879082268900818774705402068121
188,1.5889822723665775511298202615865
189,1.5900506175064087398819416875029
190,1.5911133225139976003923177377869
191,1.5921704466449109097155870185789
192,1.5932220482256974333515449840661
193,1.5942681846732106718888510943352
194,1.5953089125134303269829456720481
195,1.5963442873998004189900924179325
196,1.5973743641310977481201681795904
197,1.5983991966688450743913608114940
198,1.5994188381542831783277393416914
199,1.6004333409249146362151624170923
200,1.6014427565306332500763444332704
201,1.6024471357494501087437463785034
202,1.6034465286028296561415657462605
203,1.6044409843706464214586270648828
204,1.6054305516057740260736723227620
205,1.6064152781483164325448439800202
206,1.6073952111394944543602160925507
207,1.6083703970351933970747200972855
208,1.6093408816191860522379224197899
209,1.6103067100160367869401424801308
210,1.6112679267036982245758240555761
211,1.6122245755258078757803668196709
212,1.6131766997036949466624342213356
213,1.6141243418481017022194755933005
214,1.6150675439706343606198757083795
215,1.6160063474949427245762894016493
216,1.6169407932676425042604296642302
217,1.6178709215689842907946423254029
218,1.6187967721232781527629727158646
219,1.6197183841090771286704184147709
220,1.6206357961691321234707987156749
221,1.6215490464201161114456235634891
222,1.6224581724621348427918492890287
223,1.6233632113880176147420194097339
224,1.6242641997924031665072328088254
225,1.6251611737806232545775557268683
226,1.6260541689773874463127072913759
227,1.6269432205352777746614923056815
228,1.6278283631430550642011100098884
229,1.6287096310337840806315299998161
230,1.6295870579927821899531285585331
231,1.6304606773653933165817822995297
232,1.6313305220645976093058475819896
233,1.6321966245784518005730037091267
234,1.6330590169773764051561830187867
235,1.6339177309212829292818529953724
236,1.6347727976665507889718653458125
237,1.6356242480728575577087625158085
238,1.6364721126098642744178746354598
239,1.6373164213637612473282495858568
240,1.6381572040436765071109584534070
241,1.6389944899879511906242281199693
242,1.6398283081702847111962814850863
243,1.6406586872057537461990443287584
244,1.6414856553567067301286988744593
245,1.6423092405385382262832852629329
246,1.6431294703253456955840434300749
247,1.6439463719554700443050884734666
248,1.6447599723369275312441708352243
249,1.6455702980527280028287299591419
250,1.6463773753660898402563214278774
251,1.6471812302255495180748032297178
252,1.6479818882699685720954766538708
253,1.6487793748334430482357621940058
254,1.6495737149501150885415789866525
255,1.6503649333588905338122605594115
256,1.6511530545080626275878648807381
257,1.6519381025598482122365525315058
258,1.6527201013948328611938514329163
259,1.6534990746163317501974980672837
260,1.6542750455546666532153608397045
261,1.6550480372713593761166646015339
262,1.6558180725632463528116968243438
263,1.6565851739665132537397112967483
264,1.6573493637606550568560417731024
265,1.6581106639723601056437365365218
266,1.6588690963793203211797708518855
267,1.6596246825139707807856004790190
268,1.6603774436671586962586939053350
269,1.6611274008917460608816955079767
270,1.6618745750061416886310422074052
271,1.6626189865977719288187701549346
272,1.6633606560264840350089702176246
273,1.6640996034278896306004199849826
274,1.6648358487166454793700059192427
275,1.6655694115896754358331887989269
276,1.6663003115293318530507266930780
277,1.6670285678065039311723074421819
278,1.6677541994836647606411210199435
279,1.6684772254178685625047204161217
280,1.6691976642636902186781536388923
281,1.6699155344761149809629908218102
282,1.6706308543133758550708121886683
283,1.6713436418397418720778973388592
284,1.6720539149282544038267216829942
285,1.6727616912634183295148915325059
286,1.6734669883438440781972694079759
287,1.6741698234848456064726976044356
288,1.6748702138209907131113599057936
289,1.6755681763086083386674435670679
290,1.6762637277282535825844318607185
291,1.6769568846871282787135203138007
292,1.6776476636214600141318695067219
293,1.6783360807988434970154979929874
294,1.6790221523205393104614462247101
295,1.6797058941237321393841813496638
296,1.6803873219837560560263788227170
297,1.6810664515162767957888018412530
298,1.6817432981794403401107552614520
299,1.6824178772759846092363524843738
300,1.6830902039553160154496604899560
301,1.6837602932155512881939407424457
302,1.6844281599055266639852210423434
303,1.6850938187267716142259056661144
304,1.6857572842354506884254983678199
305,1.6864185708442749013318251121596
306,1.6870776928243819271698451986238
307,1.6877346643071822829386073054534
308,1.6883894992861789791920085191696
309,1.6890422116187567275657576806673
310,1.6896928150279410401944548143016
311,1.6903413231041308159182386657428
312,1.6909877493068019264089352623685
313,1.6916321069661831949614582400004
314,1.6922744092849065722212848714791
315,1.6929146693396308284879866483102
316,1.6935529000826401382341423885473
317,1.6941891143434150954415320008008
318,1.6948233248301815109968191960589
319,1.6954555441314341337058773092039
320,1.6960857847174352961819417085439
321,1.6967140589416924045393610320501
322,1.6973403790424103863206327081659
323,1.6979647571439226106932352687839
324,1.6985872052580992580530542040982
325,1.6992077352857349010121188563248
326,1.6998263590179135339947441813823
327,1.7004430881373538721941593591417
328,1.7010579342197321090818043256583
329,1.7016709087349871073243737501492
330,1.7022820230486044547719365322035
331,1.7028912884228808240903033518487
332,1.7034987160181696972584812343804
333,1.7041043168941088334658034698534
334,1.7047081020108276644111566622490
335,1.7053100822301389319158887147931
336,1.7059102683167106258808728859199
337,1.7065086709392210948127949684871
338,1.7071053006714983877502577698099
339,1.7077001679936398920757569388207
340,1.7082932832931183585323913548753
341,1.7088846568658700270019839937269
342,1.7094742989173673501724711644595
343,1.7100622195636759528626693018811
344,1.7106484288324958206900163676745
345,1.7112329366641885373943740498429
346,1.7118157529127880455913561011889
347,1.7123968873469984962921856630297
348,1.7129763496511759988932740527483
349,1.7135541494262978165382189956053
350,1.7141302961909165491719021370761
351,1.7147047993821013918690670510863
352,1.7152776683563661507815076442710
353,1.7158489123905833010611023767951
354,1.7164185406828855012142808464464
355,1.7169865623535549291513338608139
356,1.7175529864458986496984111137673
357,1.7181178219271132525970376241060
358,1.7186810776891380049781705936817
359,1.7192427625494922634357119673861
360,1.7198028852521060836056685667273
361,1.7203614544681357721063101332890
362,1.7209184787967708624267117418520
363,1.7214739667660271103641871786063
364,1.7220279268335305329920272657204
365,1.7225803673872907275127406420525
366,1.7231312967464623476544789498148
367,1.7236807231620976296099423361169
368,1.7242286548178867562350049687495
369,1.7247750998308906920421465866794
370,1.7253200662522622021529975193504
371,1.7258635620679579085087428535079
372,1.7264055951994403398077548622882
373,1.7269461735043699418757405842814
374,1.7274853047772913569380228477601
375,1.7280229967503046633543156085188
376,1.7285592570937330320217355952618
377,1.7290940934167785886469050989945
378,1.7296275132681696492893882309670
379,1.7301595241368011689681962721871
380,1.7306901334523651600868303377099
381,1.7312193485859739561029662287774
382,1.7317471768507734386030316516516
383,1.7322736255025509024335103649310
384,1.7327987017403325225798951805781
385,1.7333224127069740440380213089943
386,1.7338447654897453533196928933116
387,1.7343657671209046809183647093397
388,1.7348854245782663715210268803170
389,1.7354037447857628966401187754695
390,1.7359207346139982987580372528900
391,1.7364364008807933839114645969986
392,1.7369507503517262710780048484154
393,1.7374637897406657718370646427969
394,1.7379755257102961813864900170064
395,1.7384859648726363377722910259376
396,1.7389951137895526001830751182082
397,1.7395029789732653762010361516109
398,1.7400095668868492061277550129470
399,1.7405148839447249701593283369872
400,1.7410189365131485183516009914377
401,1.7415217309106917722786922488246
402,1.7420232734087170435839103991427
403,1.7425235702318473901458018974401
404,1.7430226275584309029320465734933
405,1.7435204515209963889687409130432
406,1.7440170482067065594423695467008
407,1.7445124236578058396370766856112
408,1.7450065838720603038834007476462
409,1.7454995348031925965779888182913
410,1.7459912823613143537349183654466
411,1.7464818324133503850686735984647
412,1.7469711907834581991804124430309
413,1.7474593632534439508888328297861
414,1.7479463555631712345336832506942
415,1.7484321734109670071960562045973
416,1.7489168224540210714509240687272
417,1.7494003083087819661200898960509
418,1.7498826365513464282445746337802
419,1.7503638127178467047695163481937
420,1.7508438423048306958455907070903
421,1.7513227307696388819125814070325
422,1.7518004835307773161494066525766
423,1.7522771059682845184121530795257
424,1.7527526034240958843666849515036
425,1.7532269812024019891566430214138
426,1.7537002445700043924283849552314
427,1.7541723987566664293232101899869
428,1.7546434489554590011049760291506
429,1.7551134003231052777909706118287
430,1.7555822579803171748715429521000
431,1.7560500270121311077518938927736
432,1.7565167124682401734093547637527
433,1.7569823193633180971420649825692
434,1.7574468526773460423239771729149
435,1.7579103173559301068186624270939
436,1.7583727183106174070192310630589
437,1.7588340604192089108612608246360
438,1.7592943485260680018494472214794
439,1.7597535874424254553782332768677
440,1.7602117819466818985359082391982
441,1.7606689367847049132198438186825
442,1.7611250566701243461843036675403
443,1.7615801462846254736904666010277
444,1.7620342102782346401032765107329
445,1.7624872532696067010677065401513
446,1.7629392798463052955862261348974
447,1.7633902945650831161388540165735
448,1.7638403019521553950190879007620
449,1.7642893065034744473618795770924
450,1.7647373126849974232762873692958
451,1.7651843249329547721472314640068
452,1.7656303476541122604252534303508
453,1.7660753852260322859455901107508
454,1.7665194419973308776948128975175
455,1.7669625222879340048663459749150
456,1.7674046303893284921722929495498
457,1.7678457705648122370866391620839
458,1.7682859470497401248839243200231
459,1.7687251640517681553653079331737
460,1.7691634257510954235819359603095
461,1.7696007363007018042466263867637
462,1.7700370998265845528500644734453
463,1.7704725204279924272185754419124
464,1.7709070021776554903838467335785
465,1.7713405491220145634652937396851
466,1.7717731652814474592260492903434
467,1.7722048546504912767831983953852
468,1.7726356211980657730758145107211
469,1.7730654688676902877518676263986
470,1.7734944015777017459765203369710
471,1.7739224232214680062316071634365
472,1.7743495376676008506795035001744
473,1.7747757487601639689554749944216
474,1.7752010603188834393428475440935
475,1.7756254761393496300467204450008
476,1.7760489999932230343311323960323
477,1.7764716356284343724751975093285
478,1.7768933867693836364959460560823
479,1.7773142571171369669790778093466
480,1.7777342503496217565565359568477
481,1.7781533701218185308617038200724
482,1.7785716200659531757051915029820
483,1.7789890037916848904232102684468
484,1.7794055248862926871066522963064
485,1.7798211869148619125411674514387
486,1.7802359934204653776024513196672
487,1.7806499479243459428414478245273
488,1.7810630539260951566953217905670
489,1.7814753149038311743738583106296
490,1.7818867343143738204137656967467
491,1.7822973155934189290491083830109
492,1.7827070621557105504473091628747
493,1.7831159773952109976800516821956
494,1.7835240646852698283275145310632
495,1.7839313273787899530669491770693
496,1.7843377688083941155208564477200
497,1.7847433922865874287357606800422
498,1.7851482011059199133940506381746
499,1.7855521985391465349251633087211
500,1.785955387839386869832160090191
501,1.786357772240280147084217873356
502,1.786759354956143119566032857983
503,1.787160139182122233515243605284
504,1.787560128094347939588015328365
505,1.787959324850083992815394007301
506,1.788357732587877471332515657511
507,1.788755354427707361697570456547
508,1.789152193471131350545918246913
509,1.789548252801429053251758309631
510,1.789943535483747732612772789840
511,1.790338044565243738410082212724
512,1.790731783075223567813171989120
513,1.791124754025283162140218532316
514,1.791516960409446116208703989528
515,1.791908405204301174347506209509
516,1.792299091369137223231598339375
517,1.792689021846076856102713904856
518,1.793078199560210293586422233229
519,1.793466627419726442874694782030
520,1.793854308316043952101991124414
521,1.794241245123939054969526683278
522,1.794627440701674481643452681512
523,1.795012897891125872910477621083
