Eigenstate,Potential Energy
1,0.500000000019467383360353377483441483
2,0.64623093777818749164532109106322175
3,0.73633761007824150398723522413490977
4,0.79966527859170788372545302735489276
5,0.8480465766324190127539062878765515
6,0.8870659989542025334941045042627868
7,0.9197208269948356237969210662228939
8,0.9477838471310608831795750596993033
9,0.9723835583690427069484793311482264
10,0.9942802148572824102917106301869359
11,1.0140093867367719582550551106897093
12,1.0319621693121075656357013041746713
13,1.0484326926490716787635797382540326
14,1.0636476544307888541593561967159835
15,1.0777854357719072348212378323349320
16,1.090988906089041541138848271742446
17,1.103374256562276156340891581327969
18,1.115037251141363838579497109112292
19,1.126057749649702888680237170040327
20,1.136503045418273320823350672209441
21,1.146430371367333874276293609126415
22,1.155888811165162043174997030925665
23,1.164920777164578666951909646560404
24,1.173563167803370048944396070552087
25,1.181848284400214323031195551175315
26,1.189804564962269189491309737187005
27,1.197457177147747742539809142168930
28,1.204828501624958304515264315681664
29,1.211938529274256361312788325171439
30,1.218805190029869125140671616105492
31,1.225444627012614751153576474311853
32,1.231871426526638650191640092085243
33,1.238098812183641536024304598398344
34,1.244138809667527579572778315366648
35,1.250002387313205977070108069709339
36,1.255699576639800360719047773487314
37,1.261239576174435932014938523436481
38,1.266630841272355454860809659770805
39,1.271881162141266596166305047471469
40,1.276997731882002318143829796739062
41,1.281987206040825752849001055927318
42,1.286855754913718388051893962722326
43,1.291609109636504048646177889871657
44,1.296252602926567142329811835814854
45,1.300791205204354069319580273640183
46,1.305229556709710413289859515673372
47,1.309571996134629918412704937305435
48,1.313822586216404893143554125972767
49,1.317985136670505137513258621016024
50,1.32206322478838977704477925605827
51,1.32606021397998942394955009899452
52,1.32997927050225087196684422323665
53,1.33382337858268641266998598638602
54,1.33759535411930872961264769132684
55,1.34129785711485683418130604671353
56,1.34493340298314393689877861903180
57,1.34850437284815918280816253355291
58,1.35201302294175799327847516749696
59,1.35546149319302180930067462078502
60,1.35885181509134352364262852685105
61,1.36218591889573066172889708135248
62,1.36546564025451736599933706803433
63,1.36869272629243434948135270470394
64,1.37186884121567350438977354793152
65,1.37499557148004901159650940069735
66,1.37807443056250945775900154898970
67,1.38110686337199317557142952138202
68,1.38409425033186286179478341842965
69,1.38703791116284285699567206194604
70,1.38993910839245420266028805614325
71,1.39279905061434388761916904961657
72,1.39561889551860645333903111677231
73,1.39839975271214312123472594004137
74,1.40114268634628475660190514603904
75,1.40384871756727388266820074778408
76,1.40651882680375140150569494400257
77,1.40915395590409128012949371928368
78,1.41175501013526066192718922520487
79,1.41432286005383604357187417973935
80,1.41685834325886803192701992272850
81,1.41936226603543785397500913825270
82,1.42183540489698734224768261534339
83,1.42427850803381538444764157763361
84,1.42669229667450953423297957391709
85,1.42907746636652220396446196081517
86,1.43143468818158499482490600916517
87,1.43376460985119724892064859570140
88,1.43606785683700153023932768413419
89,1.43834503334047523917673101285086
90,1.44059672325602434861617656306745
91,1.44282349107124379749324719144319
92,1.44502588271782078023954734621287
93,1.44720442637629491544356160809953
94,1.44935963323764634832856629144451
95,1.45149199822446168761856734131949
96,1.45360200067422585524680205199126
97,1.45569010498710358525173943439984
98,1.45775676124040143391081883713907
99,1.45980240577174769097303540465422
100,1.46182746173288124143541419594135
101,1.46383233961581112315393968752842
102,1.46581743775298295085843162859563
103,1.46778314279298046352796918582532
104,1.46972983015318318737306846074917
105,1.47165786445070813291390803189946
106,1.47356759991287268040019144492264
107,1.47545938076833772586281479661881
108,1.47733354162001092053312983588532
109,1.47919040780072124283143826651410
110,1.48103029571261372200126987658685
111,1.48285351315114727126749155363442
112,1.48466035961452915476282790290008
113,1.48645112659936407667327258005248
114,1.48822609788324712329655861231338
115,1.48998554979498934020526265319787
116,1.49172975147311639505791092117592
117,1.49345896511324906359467569294686
118,1.49517344620493324524869995276193
119,1.49687344375845350108777541578440
120,1.49855920052213826456611566693240
121,1.50023095319062660832176551485874
122,1.50188893260454753712235380130213
123,1.50353336394203058412995601311069
124,1.50516446690244880784710863472662
125,1.50678245588276572084297792123854
126,1.50838754014684248406106648603348
127,1.50997992398804112262348609817548
128,1.51155980688543693185691324066450
129,1.51312738365394116902724683541313
130,1.51468284458861674440271359890067
131,1.51622637560345422114711102607911
132,1.51775815836486045634404345208641
133,1.51927837042010043386908819611487
134,1.52078718532092156386796162077136
135,1.52228477274257161525623681574604
136,1.52377129859841776012586313285138
137,1.52524692515036090100007802203987
138,1.52671181111522583988777439690098
139,1.52816611176730574218270215403675
140,1.52960997903722390248467905530162
141,1.53104356160727126192998286985987
142,1.53246700500337005335102290670554
143,1.53388045168380530041615533223056
144,1.53528404112485871726339499073484
145,1.53667790990347536738284299969787
146,1.53806219177708557175159752125868
147,1.53943701776069635325898584580279
148,1.54080251620136774642655606369651
149,1.54215881285017577335304164812875
150,1.54350603093176572673731103732355
151,1.54484429121159167420847207047841
152,1.54617371206093248310777175480128
153,1.54749440951977331539017369780569
154,1.54880649735763649186147443372488
155,1.55011008713243996171717995061011
156,1.55140528824746124371913702580307
157,1.55269220800647788558600082300644
158,1.55397095166715625967105863541453
159,1.5552416224927523677329963134689
160,1.5565043218021909923094223291870
161,1.5577591490185816907842550905710
162,1.5590062017162310932204642438003
163,1.5602455756662063572276076319778
164,1.5614773648805044164292385193777
165,1.5627016616548756227179515500325
166,1.5639185566103522978568735650831
167,1.5651281387335294267171574773302
168,1.5663304954156401810350747658783
169,1.5675257124904713357493512964021
170,1.5687138742711583210045336497242
171,1.5698950635859001042512060438009
172,1.5710693618126317690710547321887
173,1.5722368489126901930274961417621
174,1.5733976034635086680259250426568
175,1.5745517026903744480865536081010
176,1.5756992224972789308526335488759
177,1.5768402374968937333414763046671
178,1.5779748210397018163044023918341
179,1.5791030452423101021113154834164
180,1.5802249810149745325287267357865
181,1.5813406980883602149471520087289
182,1.5824502650395643524131545969050
183,1.5835537493174250067096699006192
184,1.5846512172671399359903529231826
185,1.5857427341542173150609398306474
186,1.5868283641877793068964805916940
187,1.5879081705432422858612647242744
188,1.5889822153843891489152229433553
189,1.5900505598848574458636236810060
190,1.5911132642490589796938533783713
191,1.5921703877325500995167639593475
192,1.5932219886618690682805922090510
193,1.5942681244538588090697831551969
194,1.5953088516344883707351301855638
195,1.5963442258571910451771528624846
196,1.5973743019207328281452929482888
197,1.5983991337866255988360427589189
198,1.5994187745960991802310274197446
199,1.6004332766866451139903955761167
200,1.6014426916081460900623787773802
201,1.6024470701386020073876515406984
202,1.6034464622994660418097134959474
203,1.6044409173706013758731286353488
204,1.6054304839048702053710450430375
205,1.6064152097423649879538018620829
206,1.6073951420242949524954520388468
207,1.6083703272065337398434892104014
208,1.6093408110728423963562694665760
209,1.6103066387477734630555708836006
210,1.6112678547092676559931241138726
211,1.6122245028009504967874165857411
212,1.6131766262441391204526425771661
213,1.6141242676495636384075784330690
214,1.6150674690288180323478003641967
215,1.6160062718055397852056471983824
216,1.6169407168263322036483387688119
217,1.6178708443714333911494645258967
218,1.6187966941651408440765092502056
219,1.6197183053859949437231447144833
220,1.6206357166767338524066537579859
221,1.6215489661540177159128185247820
222,1.6224580914179393696462368791500
223,1.6233631295613151093094068163456
224,1.6242641171787705854010646719416
225,1.6251610903756243780683829428148
226,1.6260540847765727902457989708789
227,1.6269431355341845019189035264071
228,1.6278282773372068957045561226934
229,1.6287095444186912058823175439906
230,1.6295869705639411771053865174507
231,1.6304605891182870220452594716227
232,1.6313304329946950868744477464736
233,1.6321965346812082100752048840740
234,1.6330589262482329206235267535662
235,1.6339176393556666466315477683564
236,1.6347727052598746331996478667907
237,1.6356241548205201895880147198423
238,1.6364720185072499967010449011201
239,1.6373163264062399104465499322069
240,1.6381571082266034143682840438358
241,1.6389943933066670028812332685562
242,1.6398282106201153510405225620474
243,1.6406585887820103015970120866111
244,1.6414855560546853575555998822316
245,1.6423091403535200533263261599768
246,1.6431293692525967230150425145608
247,1.6439462699902410476180762181213
248,1.6447598694744539616537314042061
249,1.6455701942882298877247072771031
250,1.6463772706947716831105162682036
251,1.6471811246426001977952739406662
252,1.6479817817705612418240252643108
253,1.6487792674127350335840128060183
254,1.6495736066032477852612999004487
255,1.6503648240809893048952375845410
256,1.6511529442942366997908208346129
257,1.6519379914051905720264493548893
258,1.6527199892944201501089480479555
259,1.6534989615652241596194216551091
260,1.6542749315479078185475121618521
261,1.6550479223039762703641275664803
262,1.6558179566302491795578800049605
263,1.6565850570628953395148398794088
264,1.6573492458813927428926526140208
265,1.6581105451124126390141731553429
266,1.6588689765336297453107883992836
267,1.6596245616774618253450185127795
268,1.6603773218347386664090355251027
269,1.6611272780583047258957679434887
270,1.6618744511665511698642852325724
271,1.6626188617468865870331919482752
272,1.6633605301591403570434938168324
273,1.6640994765389061153823112413866
274,1.6648357208008225232621167311800
275,1.6655692826417952173116896927897
276,1.6663001815441582167078634107568
277,1.6670284367787822710387796867869
278,1.6677540674081219028226298606321
279,1.6684770922892126471270936374456
280,1.6691975300766105811354979098758
281,1.6699153992252820324632563540497
282,1.6706307179934409624730882209086
283,1.6713435044453372370157277573642
284,1.6720537764539929411116729285042
285,1.6727615517038935448145130166471
286,1.6734668476936299449816787826529
287,1.6741696817384964422237769623811
288,1.6748700709730410547886598453433
289,1.6755680323535728174247559412899
290,1.6762635826606267977309750170032
291,1.6769567385013846709136242744146
292,1.6776475163120537378369935506197
293,1.6783359323602082921223487523435
294,1.6790220027470883731899052117859
295,1.6797057434098579923687626975768
296,1.6803871701238304176147827247611
297,1.6810662985046504485411664745783
298,1.6817431440104429984930982473065
299,1.6824177219439247865016161961322
300,1.6830900474544808896998187361132
301,1.6837601355402065676165357856948
302,1.6844280010499164512574416908442
303,1.6850936586851182700796427552251
304,1.6857571230019546943663891366431
305,1.6864184084131147215054472885865
306,1.6870775291897138693681578909696
307,1.6877344994631403587394992395821
308,1.6883893332268747632249178418245
309,1.6890420443382792158963757950555
310,1.6896926465203565078210304520860
311,1.6903411533634826733724669893610
312,1.6909875783271105754539964348647
313,1.6916319347414458833798151594900
314,1.6922742358090972476847655179531
315,1.6929144946066999915027081024853
316,1.6935527240865146941525463296218
317,1.6941889370779982055340791397988
318,1.6948231462893524425754075213553
319,1.6954553643090481092912802491097
320,1.6960856036073233417074144823908
321,1.6967138765376611965824876927829
322,1.6973401953382420983553617651947
323,1.6979645721333747583541311300224
324,1.6985870189349045434033967057861
325,1.6992075476436010558079302269022
326,1.6998261700505231619362321574924
327,1.7004428978383642901562992443623
328,1.7010577425827751873155425901740
329,1.7016707157536691086199940443795
330,1.7022818287165058725760116748374
331,1.7028910927335562195675473264394
332,1.7034985189651475352896137456061
333,1.7041041184708913175728495363881
334,1.7047079022108905706010128725323
335,1.7053098810469314414333588252067
336,1.7059100657436551568620352583376
337,1.7065084669697131328294229821783
338,1.7071050952989063152362372420970
339,1.7076999612113048166260843967753
340,1.7082930750943539400653930670536
341,1.7088844472439623037751425871479
342,1.7094740878655745636423961413988
343,1.7100620070752283713794752143285
344,1.7106482149005955620164528138636
345,1.7112327212820093900397032990038
346,1.7118155360734752889500978382675
347,1.7123966690436687195777322180102
348,1.7129761298769169188562213869887
349,1.7135539281741680939592476835791
350,1.7141300734539456041188011870336
351,1.7147045751532892177075017576037
352,1.7152774426286831269290751678421
353,1.7158486851569700044741153778455
354,1.7164183119362525165964433740209
355,1.7169863320867826578735731461465
356,1.7175527546518371174189956554211
357,1.7181175885985819155709320287521
358,1.7186808428189255550444613325556
359,1.7192425261303564316720788174212
360,1.7198026472767734426383607265976
361,1.7203612149293015370642340759792
362,1.7209182376870986905283730011570
363,1.7214737240781488991254233628166
364,1.7220276825600462170430145073336
365,1.7225801215207680740124589872022
366,1.7231310492794367502905205328817
367,1.7236804740870719011715748711146
368,1.7242284041273309197474940181495
369,1.7247748475172417704496797114697
370,1.7253198123079240065379931257530
371,1.7258633064853008248350491490250
372,1.7264053379708011141748239252095
373,1.7269459146220514642710420586203
374,1.7274850442335624434750903925732
375,1.7280227345373998369828727133005
376,1.7285589932038523016970312405243
377,1.7290938278420872269450390805009
378,1.7296272460007979684548347099966
379,1.7301592551688442953803978432146
380,1.7306898627758828071319525728367
381,1.7312190761929901954368528176703
382,1.7317469027332764697916889049721
383,1.7322733496524928209569271636405
384,1.7327984241496290861848469732261
385,1.7333221333675044374256904965099
386,1.7338444843933519511535032488356
387,1.7343654842593928091372158943060
388,1.7348851399434040669435136293362
389,1.7354034583692806648444456571212
390,1.7359204464075888702227844520728
391,1.7364361108761114684017668821319
392,1.7369504585403883102619978253992
393,1.7374634961142496901167602290042
394,1.7379752302603411349277986283424
395,1.7384856675906424617179454365129
396,1.7389948146669807540327370123686
397,1.7395026780015368873423104020018
398,1.7400092640573456115018324091769
399,1.7405145792487877560446626156208
400,1.7410186299420788582492821947229
401,1.7415214224557502628823578058213
402,1.7420229630611234388173930242808
403,1.7425232579827803332514511432708
404,1.7430223133990276565921549908834
405,1.7435201354423525634428352320909
406,1.7440167301998758387026949288857
407,1.7445121037137997054840973673600
408,1.7450062619818477580237381519721
409,1.7454992109576998806463954268584
410,1.7459909565514246672418253404815
411,1.7464815046299036012549233647239
412,1.7469708610172505787601988436102
413,1.7474590314952278536620932942674
414,1.7479460218036548288487709661850
415,1.7484318376408139772432971117831
416,1.7489164846638503223674038639361
417,1.7493999684891673268863192721398
418,1.7498822946928163523526586123556
419,1.7503634688108839686430471632678
420,1.7508434963398720949906731507738
421,1.7513223827370749247796323115795
422,1.7518001334209519156847778337769
423,1.7522767537714946812789190103438
424,1.7527522491305913978128861645885
425,1.7532266248023851055101508036383
426,1.7536998860536295111964462369563
427,1.7541720381140397768748022500824
428,1.7546430861766383079140283949861
429,1.7551130353980994532181313717756
430,1.7555818908990859794617883536400
431,1.7560496577645848230254550429780
432,1.7565163410442392691228645678519
433,1.7569819457526728959965284799766
434,1.7574464768698163820963580781930
435,1.7579099393412249998930376809710
436,1.7583723380783946972938360855357
437,1.7588336779590749280070478280577
438,1.7592939638275772128956040585952
439,1.7597532004950801135999966156901
440,1.7602113927399316896196988284108
441,1.7606685453079465986804531021277
442,1.7611246629127014040085973678525
443,1.7615797502358277361816227984472
444,1.7620338119272979288997656433953
445,1.7624868526057124593105695614970
446,1.7629388768585802172078827169778
447,1.7633898892425987722467657374999
448,1.7638398942839278573467560266389
449,1.7642888964784639087600439290302
450,1.7647369002921078152163153227331
451,1.7651839101610333792087530557356
452,1.7656299304919493317394988268253
453,1.7660749656623606435658741039550
454,1.7665190200208255218651947651957
455,1.7669620978872117161591439877808
456,1.7674042035529474304646940621689
457,1.7678453412812715373467589528079
458,1.7682855153074794897356999907336
459,1.7687247298391674444020190031784
460,1.7691629890564742393971555272659
461,1.7696002971123190751513910937251
462,1.7700366581326381122448913835546
463,1.7704720762166185895881089015318
464,1.7709065554369286238820314520364
465,1.7713400998399466590583972652149
466,1.7717727134459876963605852635544
467,1.7722044002495255855452416198156
468,1.7726351642194163928083926850652
469,1.7730650092991153220957524086316
470,1.7734939394068947143006290659155
471,1.7739219584360573914175375471262
472,1.7743490702551496432255032575967
473,1.7747752787081692073638531368542
474,1.7752005876147757467553243316882
475,1.7756250007704927470906747276786
476,1.7760485219469133481404422874952
477,1.7764711548919004418482830377056
478,1.7768929033297857131534743984152
479,1.7773137709615665128832539966861
480,1.7777337614651009572534312301947
481,1.7781528784952998048078630941082
482,1.7785711256843186795391612230593
483,1.7789885066417460201421721369797
484,1.7794050249547895751080627154287
485,1.7798206841884629204885999192598
486,1.7802354878857665850747158677207
487,1.7806494395678706317232188196186
488,1.7810625427342932912673097391263
489,1.7814748008630788770599962277520
490,1.7818862174109728431426550307359
491,1.7822967958135961201856603722367
492,1.7827065394856173172512093784250
493,1.7831154518209227642461347330587
494,1.7835235361927854889633538712023
495,1.7839307959540313210620701913744
496,1.7843372344372053672615255059550
497,1.7847428549547345431187754826502
498,1.7851476607990901064925151206134
499,1.7855516552429476898588523258204
500,1.785954841539346961793754835971
501,1.786357222921846663473405597922
502,1.786758802604682475181546486064
503,1.787159583782919180755569354955
504,1.787559569632604973609891352143
505,1.787958763310920751599524122118
506,1.788357167956330130604419528274
507,1.788754786688728024652030236056
508,1.789151622609587432321623733195
509,1.789547678802102660103131470882
510,1.789942958331335035724756384724
511,1.790337464244354342301352708854
512,1.790731199570379873272423470852
513,1.791124167320919723639630556823
514,1.791516370489908993737911680632
515,1.791907812053847279610971476943
516,1.792298494971933660151374696871
517,1.792688422186200255567872878030
518,1.793077596621646142390074303240
519,1.793466021186368406778362747012
520,1.793853698771693192966925483808
521,1.794240632252303541893204747829
522,1.794626824486368296039366308330
523,1.795012278315668507468166961993
