Eigenstate,Potential Energy
1,0.500000000016459148264695990299469855
2,0.64623093775855132266504844349442693
3,0.73633761002056194247696452494657899
4,0.79966527847156822973539576424517491
5,0.8480465764243131794981231239493524
6,0.8870659986321784486528435379795179
7,0.9197208265327324026131078119158371
8,0.9477838465026078408767966164436529
9,0.9723835575479054927761731227094532
10,0.9942802138170865084349340952401231
11,1.0140093854511155341541521673007517
12,1.0319621677545688829425065474202397
13,1.0484326907932135605845845206027427
14,1.0636476522501614433334604762709554
15,1.0777854332400497280886535407356591
16,1.090988903179483278809414664594741
17,1.103374253248537292772357569819940
18,1.115037247396955731584883368156708
19,1.126057745448128295365332423968945
20,1.136503040733026456920214446917117
21,1.146430366171900375160887193720427
22,1.155888805433018852718798790674740
23,1.164920770869193872487436579172871
24,1.173563160918202675363127720762834
25,1.181848276898714095442843299525860
26,1.189804556817876271378891323539968
27,1.197457168333892454582092991446398
28,1.204828492115060827982933606827461
29,1.211938519041726429023692580652999
30,1.218805179048105702280316644360463
31,1.225444615255005707760000631654137
32,1.231871413966560426721116350783039
33,1.238098798794458803122397473598741
34,1.244138795422592892950464387321038
35,1.250002372185859428209944229102510
36,1.255699560603369223999426456309292
37,1.261239559202234308732276281434467
38,1.266630823337683914543401274573494
39,1.271881143217411815504551518065541
40,1.276997711942236717805847522410129
41,1.281987185058407132405408568680041
42,1.286855732861889559196629840415681
43,1.291609086488492466869871779306518
44,1.296252578655584537177179852495874
45,1.300791179783596073341534913548531
46,1.305229530112356189783679683049048
47,1.309571968333841788029099480174425
48,1.313822557185327959427226379500630
49,1.317985106382266911433261109516646
50,1.32206319321609980056219006856330
51,1.32606018109673889266254007657334
52,1.32997923628111225686683327235436
53,1.33382334299671308103712555176504
54,1.33759531714153456507414546948659
55,1.34129781871829585595206329699167
56,1.34493336314078991822027773766099
57,1.34850433153298526859849206760730
58,1.35201298012671631700370629686857
59,1.35546144885104310907547996334922
60,1.35885176919533675756598955047129
61,1.36218587141858262245895109554453
62,1.36546559116909229456982598220566
63,1.36869267557157354836075200129608
64,1.37186878883219494978292860856282
65,1.37499551740674696498750768889446
66,1.37807437477215407669303375083405
67,1.38110680583733012367251524925993
68,1.38409419102561291801545474552140
69,1.38703785005770152409399715764146
70,1.38993904546109131489900369148835
71,1.39279898582940321768109606086726
72,1.39561882885270531845245993229534
73,1.39839968413787198850196174038907
74,1.40114261583620684752376528279740
75,1.40384864509392477685685587786760
76,1.40651875233963863957788480178145
77,1.40915387942169396577185034336204
78,1.41175493160702906312508895794321
79,1.41432277945219119299295026689692
80,1.41685826055620132645025248121487
81,1.41936218120411065335604469852125
82,1.42183531790933056691083297782637
83,1.42427841886212911239481157759251
84,1.42669220529106259705958071003442
85,1.42907737274355178197219028616550
86,1.43143459229129621122111110118534
87,1.43376451166576276309385238158058
88,1.43606775632856113010030800988585
89,1.43834493048113543255444969475928
90,1.44059661801785795369770451067833
91,1.44282338342628953229669952661764
92,1.44502577263808285110894116835236
93,1.44720431383374260455437562915679
94,1.44935951820421360019269222908798
95,1.45149188067204669457721535532856
96,1.45360188057469064193984635000743
97,1.45568998231227359205186591448578
98,1.45775663596206509931076489603650
99,1.45980227786165603291409671927928
100,1.46182733116274743756532856334569
101,1.46383220635731009000214706432258
102,1.46581730177775092191663604996989
103,1.46778300407261456622384869101342
104,1.46972968865924101892487824988670
105,1.47165772015470733505365843241869
106,1.47356745278629051295299159747967
107,1.47545923078261063916990313569094
108,1.47733338874653412670603177366479
109,1.47919025201084828582459766267034
110,1.48103013697765604649044803933639
111,1.48285335144237379032114807688722
112,1.48466019490316581629359548473521
113,1.48645095885659342865660278992624
114,1.48822592708020787774350962497766
115,1.48998537590277593587633640051908
116,1.49172957446277855890477259238522
117,1.49345878495579137091651610485418
118,1.49517326287131467854991810376469
119,1.49687325721958700762359575484057
120,1.49855901074889031256266948891552
121,1.50023076015381674185709667016772
122,1.50188873627494792965473713357895
123,1.50353316429036559065982367804689
124,1.50516426389939451569883597879032
125,1.50678224949894949905267276077223
126,1.50838733035284253135645085415444
127,1.50997971075438601398186856614868
128,1.51155959018260516362718581095148
129,1.51312716345236070260175271403649
130,1.51468262085866454842476173536672
131,1.51622614831545581223983331350558
132,1.51775792748908943834619691679313
133,1.51927813592677803556336579457203
134,1.52078694718021617518723871703536
135,1.52228453092459832195314503043810
136,1.52377105307323787689098731621475
137,1.52524667588798150301398505956861
138,1.52671155808559929279200466628119
139,1.52816585494032923045477695501229
140,1.52960971838273895620207842398296
141,1.53104329709506328190798688959993
142,1.53246673660316783463920564802615
143,1.53388017936528055413823636478335
144,1.53528376485762559078507571132009
145,1.53667762965708996279217034397251
146,1.53806190752104546263629940345102
147,1.53943672946444009976511235792457
148,1.54080222383427440858273879613939
149,1.54215851638156442264452343105451
150,1.54350573033089495591383624066023
151,1.54484398644765910531005803596551
152,1.54617340310307427369223350644657
153,1.54749409633706366294619638790110
154,1.54880617991908713639102404209228
155,1.55010976540699968647079569076817
156,1.55140496220401537406766269024192
157,1.55269187761384778601217675579216
158,1.55397061689409882886430267395360
159,1.5552412833079595317706066678386
160,1.5565039781742891959073216667779
161,1.5577588009161313866003204503821
162,1.5590058491077262291933531552466
163,1.5602452185200738619339188592033
164,1.5614770031651036824417277669497
165,1.5627012953384979879473883103227
166,1.5639181856612205248600992665949
167,1.5651277631197971799537223226794
168,1.5663301151053915020547259966986
169,1.5675253274517201162926067522561
170,1.5687134844718477739983848718707
171,1.5698946689939022326819384164520
172,1.5710689623957468327160035820262
173,1.5722364446386461730275351707961
174,1.5733971942999607292802718082131
175,1.5745512886049043994514190070358
176,1.5756988034573946831251080066742
177,1.5768398134700287550099476431353
178,1.5779743919932145870466355685395
179,1.5791026111434835640212793609544
180,1.5802245418310155390530362487702
181,1.5813402537863989775119753855973
182,1.5824498155866538847222283481945
183,1.5835532946805405666939723478745
184,1.5846507574131784653898971502947
185,1.5857422690499968766189448474212
186,1.5868278938000385191461143803615
187,1.5879076948386397554849982173906
188,1.5889817343295029006567161069500
189,1.5900500734461843499719082888797
190,1.5911127723930141768794698103487
191,1.5921698904254664233993802833844
192,1.5932214858699964653074584001507
193,1.5942676161433637558842822427999
194,1.5953083377714532889745304943994
195,1.5963437064076137136785245799526
196,1.5973737768505257925384106510948
197,1.5983986030616155785019682133419
198,1.5994182381820264726049079828055
199,1.6004327345491629961868754544980
200,1.6014421437128202178018534741532
201,1.6024465164509098112015162792332
202,1.6034459027847961205025088381303
203,1.6044403519942528872194350160005
204,1.6054299126320522540247277718011
205,1.6064146325381960105471548415013
206,1.6073945588538020999055566134891
207,1.6083697380346522566029905878114
208,1.6093402158644149971856000364812
209,1.6103060374675497064934801194642
210,1.6112672473219033151022658714338
211,1.6122238892710069269114945530476
212,1.6131760065360826240015410218654
213,1.6141236417277648266467053673709
214,1.6150668368575511841676462657888
215,1.6160056333489822028475165840593
216,1.6169400720485635653619364509807
217,1.6178701932364351007578712226323
218,1.6187960366367953774239563781032
219,1.6197176414280851919807607375028
220,1.6206350462529424622112233982786
221,1.6215482892279264263133970288271
222,1.6224574079530283458332615233906
223,1.6233624395209622731008186352378
224,1.6242634205262509424597549601352
225,1.6251603870741093418250291098157
226,1.6260533747891295025010702375927
227,1.6269424188237751500987631998274
228,1.6278275538666880267421961324000
229,1.6287088141508130367001046407757
230,1.6295862334613469016699908967725
231,1.6304598451435121149689086530664
232,1.6313296821101666035351102627117
233,1.6321957768492440832282685955488
234,1.6330581614310412534773210852204
235,1.6339168675153450023589209302949
236,1.6347719263584093208575468541497
237,1.6356233688197855464168023395319
238,1.6364712253690076667751186591084
239,1.6373155260921381196476514027428
240,1.6381563006981762416525270236088
241,1.6389935785253336478108364050589
242,1.6398273885471793975509056448863
243,1.6406577593786589779697512653117
244,1.6414847192819887925674638245369
245,1.6423082961724305285444621275785
246,1.6431285176239479212080857257725
247,1.6439454108747472972527748004046
248,1.6447590028327094774464057585222
249,1.6455693200807080072167094484683
250,1.6463763888818240992365516201620
251,1.6471802351844561874131832370086
252,1.6479808846273268901744760557273
253,1.6487783625443924546483077977552
254,1.6495726939696543379851039048403
255,1.6503639036418768052460233002860
256,1.6511520160092106286163905977572
257,1.6519370552337292786817261792493
258,1.6527190451958740518179572667423
259,1.6534980094988149365391743454757
260,1.6542739714727276045001223422594
261,1.6550469541789868392034084824077
262,1.6558169804142811271362232061714
263,1.6565840727146472612160787362503
264,1.6573482533594304066961935502059
265,1.6581095443751681540555511205125
266,1.6588679675394007259034096755176
267,1.6596235443844105504276736684741
268,1.6603762962008912343834121298866
269,1.6611262440415502048179473865001
270,1.6618734087246407429539169358522
271,1.6626178108374326934638021050049
272,1.6633594707396158279769658916287
273,1.6640984085666433052104660764471
274,1.6648346442330124360178459278247
275,1.6655681974354866282119179748990
276,1.6662990876562567887903135317399
277,1.6670273341660496668540756704227
278,1.6677529560271748911431791651098
279,1.6684759720965222046337146800515
280,1.6691964010285009890424767123436
281,1.6699142612779299680422885721743
282,1.6706295711028745854361268740313
283,1.6713423485674352707165248907394
284,1.6720526115444837485254182816751
285,1.6727603777183541992547122346252
286,1.6734656645874852955130041946838
287,1.6741684894670181737293311296194
288,1.6748688694913467426497716079697
289,1.6755668216166249767711004917595
290,1.6762623626232319272183091448631
291,1.6769555091181922909863429580023
292,1.6776462775375554234322007693812
293,1.6783346841487366997717918977980
294,1.6790207450528162624756967221627
295,1.6797044761867972416886641363266
296,1.6803858933258310342122896649400
297,1.6810650120853995727552665705400
298,1.6817418479234639021823097198345
299,1.6824164161425758655964865471942
300,1.6830887318919546508375633513522
301,1.6837588101695286088113244480233
302,1.6844266658239444365592749029047
303,1.6850923135565408981745550984005
304,1.6857557679232906610701154908162
305,1.6864170433367116761024601144336
306,1.6870761540677473647474317866875
307,1.6877331142476127952781243566772
308,1.6883879378696143263701084106506
309,1.6890406387909388073961053852967
310,1.6896912307344126705530959154942
311,1.6903397272902345097213636512406
312,1.6909861419176786591844807035217
313,1.6916304879467711649556806416247
314,1.6922727785799399529809868618371
315,1.6929130268936385138584978557002
316,1.6935512458399444797125600283775
317,1.6941874482481306318243801570442
318,1.6948216468262136902607866154817
319,1.6954538541624780270594554034487
320,1.6960840827269743042256455097429
321,1.6967123448729969554714699501885
322,1.6973386528385366261247619190669
323,1.6979630187477110852438827886080
324,1.6985854546121735870741273635205
325,1.6992059723325004438235294799598
326,1.6998245836995560469810217411100
327,1.7004413003958381579289496335500
328,1.7010561339968006570410757728819
329,1.7016690959721587261210175468428
330,1.7022801976871728958435925198420
331,1.7028894504039133967716964478306
332,1.7034968652825058751689610646926
333,1.7041024533823588521422386833479
334,1.7047062256633711101156409846895
335,1.7053081929871233215471481125019
336,1.7059083661180499779176196709560
337,1.7065067557245944912166331750644
338,1.7071033723803485267550656341256
339,1.7076982265651716317900268011647
340,1.7082913286662972512801371304508
341,1.7088826889794208443272233736336
342,1.7094723177097725984316566135547
343,1.7100602249731743793288213014058
344,1.7106464207970809100916073515607
345,1.7112309151216069988111917300800
346,1.7118137178005382896289958420296
347,1.7123948386023291024563143245175
348,1.7129742872110841730836618226859
349,1.7135520732275278385823058155068
350,1.7141282061699582103165097554238
351,1.7147026954751884221485119041773
352,1.7152755504994746361793039080285
353,1.7158467805194300903820050348554
354,1.7164163947329266025825845551983
355,1.7169844022599838960502297547653
356,1.7175508121436449564650987418279
357,1.7181156333508406592869624142720
358,1.7186788747732429115111121417047
359,1.7192405452281020529360193709973
360,1.7198006534590774548474254216273
361,1.7203592081370530609741175752284
362,1.7209162178609443523016017188124
363,1.7214716911584913313433032245653
364,1.7220256364870425498501718078053
365,1.7225780622343284163126898265909
366,1.7231289767192226609124286688821
367,1.7236783881924948499213347657936
368,1.7242263048375507382654477581574
369,1.7247727347711650927867859169957
370,1.7253176860442026993672156123092
371,1.7258611666423304072121484739444
372,1.7264031844867191667620956268214
373,1.7269437474347360279370589935277
374,1.7274828632806304071820681604812
375,1.7280205397562053148732822941869
376,1.7285567845314849992897054280702
377,1.7290916052153707963501062713067
378,1.7296250093562883525166912869342
379,1.7301570044428280606561694382253
380,1.7306875979043754656126542896686
381,1.7312167971117345149175600944292
382,1.7317446093777407727958242991545
383,1.7322710419578692721190133712620
384,1.7327961020508319679956408528225
385,1.7333197967991684142418412502262
386,1.7338421332898303213737845450759
387,1.7343631185547557454460439471636
388,1.7348827595714368445216133498486
389,1.7354010632634818774455389929121
390,1.7359180365011686340143987626568
391,1.7364336861019896134671289064482
392,1.7369480188311925596590052282997
393,1.7374610414023138263893085653109
394,1.7379727604777031539631810265713
395,1.7384831826690427138438221020417
396,1.7389923145378600722454277685463
397,1.7395001625960347025576334231967
398,1.7400067333062980547184283299325
399,1.7405120330827257473087513314795
400,1.7410160682912261823088157053901
401,1.7415188452500216314173191963765
402,1.7420203702301225391321054307697
403,1.7425206494557978633135241507219
404,1.7430196891050393463015762627937
405,1.7435174953100171820137239409803
406,1.7440140741575331880389568460089
407,1.7445094316894685994292914838110
408,1.7450035739032239873640155295991
409,1.7454965067521541637444622872837
410,1.7459882361460005861786073231178
411,1.7464787679513155233543770491303
412,1.7469681079918815633715846651407
413,1.7474562620491275440728554260632
414,1.7479432358625373291995535655301
415,1.7484290351300557143160862163043
416,1.7489136655084878921158781331691
417,1.7493971326138953255765386735421
418,1.7498794420219851921808193078571
419,1.7503605992684976776957008358905
420,1.7508406098495861014118680062980
421,1.7513194792221938250073755119822
422,1.7517972128044272266186613525942
423,1.7522738159759225762386553656187
424,1.7527492940782104261469383218210
425,1.7532236524150738957113834087357
426,1.7536968962529044573809953700515
427,1.7541690308210527084786044549588
428,1.7546400613121741424600258475266
429,1.7551099928825738320059591690918
430,1.7555788306525428860299002536800
431,1.7560465797066941842343799968983
432,1.7565132450942945387069777233020
433,1.7569788318295886204296532184091
434,1.7574433448921257486155082852437
435,1.7579067892270773665228765453311
436,1.7583691697455531047125961009783
437,1.7588304913249135930935025519068
438,1.7592907588090790037947899257652
439,1.7597499770088340061439111314338
440,1.7602081507021302049372223686234
441,1.7606652846343832218296787621236
442,1.7611213835187679834623265336357
443,1.7615764520365118639958208159458
444,1.7620304948371803013925450552891
445,1.7624835165389642180774712834237
446,1.7629355217289602702981044423843
447,1.7633865149634510953223692874294
448,1.7638365007681787746456446611927
449,1.7642854836386193536815243194873
450,1.7647334680402505703461357805286
451,1.7651804584088202955986503414270
452,1.7656264591506085272546719402706
453,1.7660714746426886801113750146289
454,1.7665155092331845613007498763629
455,1.7669585672415266547097424601582
456,1.7674006529587030114324939542739
457,1.7678417706475094419274471278234
458,1.7682819245427954057409667810532
459,1.7687211188517081126873591023399
460,1.7691593577539344777921261220224
461,1.7695966454019387796878711621384
462,1.7700329859211992354760252698797
463,1.7704683834104420957889569933552
464,1.7709028419418714209206786786314
465,1.7713363655613985067240154650320
466,1.7717689582888680909327664234913
467,1.7722006241182806203866743881501
468,1.7726313670180155947605612610352
469,1.7730611909310484634553460617022
470,1.7734900997751686001515039724754
471,1.7739180974431926220912800374062
472,1.7743451878031773516608150302561
473,1.7747713746986277711330015208534
474,1.7751966619487074745226561555391
475,1.7756210533484405392669681763051
476,1.7760445526689173314930683382642
477,1.7764671636574945778255669952407
478,1.7768888900379943796784454060469
479,1.7773097355109010593698842088849
480,1.7777297037535562325954445832525
481,1.7781487984203506580879459419905
482,1.7785670231429164332031691645905
483,1.7789843815303149153805660887710
484,1.7794008771692231891842702710529
485,1.7798165136241205557505370902403
486,1.7802312944374696293837535163209
487,1.7806452231298988900309678967125
488,1.7810583032003812880688086501691
489,1.7814705381264121294481711037526
490,1.7818819313641841041862846569994
491,1.7822924863487615923500699769535
492,1.7827022064942528355777058170523
493,1.7831110951939799490035822784301
494,1.7835191558206478674813648792776
495,1.7839263917265104184530366815156
496,1.7843328062435367657348939247298
497,1.7847384026835739095881473870968
498,1.7851431843385091881725480613216
499,1.7855471544804302775458209565388
500,1.785950316361784820520351625179
501,1.786352673215535430224736324816
502,1.786754228255317523356198441589
503,1.787154984675591451051685356285
504,1.787554945651796771013229737783
505,1.787954114340501508146262193699
506,1.788352493879552133588557707910
507,1.788750087388222109942919747652
508,1.789146897967358642454160159981
509,1.789542928699525866798738288328
510,1.789938182649150526497967231562
511,1.790332662862663370802665432399
512,1.790726372368640173014550728419
513,1.791119314177940984749818881726
514,1.791511491283848302375676552805
515,1.791902906662204519685912507725
516,1.792293563271546876972113710470
517,1.792683464053240981048960239785
518,1.793072611931614681439147406750
519,1.793461009814089084482055026901
520,1.793848660591309562189531371458
521,1.794235567137273550897730520960
522,1.794621732309459415736332772682
523,1.795007158948952817892769937676
