Eigenstate,Potential Energy
1,0.500000000021390967121935566175467579
2,0.64623093779074363432561840296194544
3,0.73633761011512411588234910193769729
4,0.79966527866853002714601057822779732
5,0.8480465767654904082518946633926648
6,0.8870659991601181649457070088382946
7,0.9197208272903241017848950175142232
8,0.9477838475329211537615141230095926
9,0.9723835588941145729514305352280589
10,0.9942802155224315251384247138509615
11,1.0140093875588816327685944487421210
12,1.0319621703080740466070510384050028
13,1.0484326938358013175332726963272369
14,1.0636476558251963628787440382787257
15,1.0777854373909145988643553720707530
16,1.090988907949577343650433501271534
17,1.103374258681275170849106372620850
18,1.115037253535766801355590528655963
19,1.126057752336456394894613661121045
20,1.136503048414329808008991158285361
21,1.146430374689651668681677424581937
22,1.155888814830705452286432933514108
23,1.164920781190318106497545189701304
24,1.173563172206282196056548251343391
25,1.181848289197282289538958613114431
26,1.189804570170482710910474410282625
27,1.197457182784103379454399065553655
28,1.204828507706459653854031146434176
29,1.211938535817914275612923618021645
30,1.218805197052701938325317560576230
31,1.225444634531648509673919255444541
32,1.231871434558907348629094250532900
33,1.238098820746187356434958044968138
34,1.244138818777401134000032854922972
35,1.250002396987466552763179133172464
36,1.255699586895516167682557330659014
37,1.261239587028684352584023964482485
38,1.266630852742223295051241723300123
39,1.271881174243850338593242853164966
40,1.276997744634408376338464958288551
41,1.281987219460170726831259611028472
42,1.286855769017129321040985759806210
43,1.291609124441118684810188914336782
44,1.296252618449534185491545725721228
45,1.300791221462833442549164483893933
46,1.305229573720873519325711632416947
47,1.309572013915659900861744219715624
48,1.313822604784496898419367664284255
49,1.317985156042866577477528913650993
50,1.32206324498224059232288923343432
51,1.32606023501256234789605194770340
52,1.32997929239079169526056247003038
53,1.33382340134445424852202084052491
54,1.33759537777157627957356253120624
55,1.34129788167491065453638345175345
56,1.34493342846828470564248891033911
57,1.34850439927570196719093957065351
58,1.35201305032903251792062129341507
59,1.35546152155737272486969001272009
60,1.35885184445013067609159263176547
61,1.36218594926632936209466574759416
62,1.36546567165431866076034600958517
63,1.36869275873884529147572202379159
64,1.37186887472611742429518549662909
65,1.37499560607196578997406762791972
66,1.37807446625335579766389392509709
67,1.38110690017924287573378995683816
68,1.38409428827300709037464980122028
69,1.38703795025539042591640247549203
70,1.38993914865393184252519744860319
71,1.39279909206229652321652506385339
72,1.39561893817059747974088305771649
73,1.39839979658575468049534227328620
74,1.40114273145911801506188357799664
75,1.40384876393694930887055621932013
76,1.40651887444790904473046916917135
77,1.40915400484039104955364580854516
78,1.41175506038138260641671979005317
79,1.41432291162748063211332121819300
80,1.41685839617775643470562602879275
81,1.41936232031731222410702470786355
82,1.42183546055961109817441167312569
83,1.42427856509497349299897176693465
84,1.42669235515200879436826680893194
85,1.42907752627819153119876712412352
86,1.43143474954527570634867802612641
87,1.43376467268478334942107832559836
88,1.43606792115837999843167894779787
89,1.43834509916756631505405980314926
90,1.44059679060677182142594613735000
91,1.44282355996361529444942929817485
92,1.44502595316980805597889013127104
93,1.44720449840591414223477682566738
94,1.44935970686293840704327997703466
95,1.45149207346349245947295080775783
96,1.45360207754508651432286730748051
97,1.45569018350791089180736347949780
98,1.45775684142929802848763156747045
99,1.45980248764690238931136456782920
100,1.46182754531248933020556593234646
101,1.46383242491809465651314078159003
102,1.46581752479619104784284148769344
103,1.46778323159538960628921236602910
104,1.46972992073309752026883386642448
105,1.47165795682645976246218779498488
106,1.47356769410282197610681592893587
107,1.47545947679087362193200464493618
108,1.47733363949355121847083020383783
109,1.47919050754371291495127089335578
110,1.48103039734353321584300010471981
111,1.48285361668850081493796762945178
112,1.48466046507685306320940371655313
113,1.48645123400522505889979069220841
114,1.48822620725124259053202795170998
115,1.48998566114374771503542365300767
116,1.49172986482129742152994866924808
117,1.49345908047954411830538800350255
118,1.49517356360806564942650058480305
119,1.49687356321717883367896632210643
120,1.49855932205524467633592020586815
121,1.50023107681693513698068290950313
122,1.50188905834291242348845482478177
123,1.50353349181133958933779094299864
124,1.50516459692162353161397229941815
125,1.50678258807076192080333925047671
126,1.50838767452265039618001935788803
127,1.50998006057068578270015292988196
128,1.51155994569397849812879295504598
129,1.51312752470747524588656270557607
130,1.51468298790627470723587788103833
131,1.51622652120440354230848922100800
132,1.51775830626830503227527435815107
133,1.51927852064528091337526459795626
134,1.52078733788711567756205471185872
135,1.52228492766909450618322234411990
136,1.52377145590462231557804373389806
137,1.52524708485563808553521089912245
138,1.52671197323900502956162884544782
139,1.52816627632905506000778450999294
140,1.52961014605645055512691433933670
141,1.53104373110352187765520544205983
142,1.53246717699623102123321972109869
143,1.53388062619290311081942287140896
144,1.53528421816986030360977482131220
145,1.53667808950408844921808324695668
146,1.53806237395305899912112567841030
147,1.53943720253182045240637971699767
148,1.54080270358747466682685358541725
149,1.54215900287113983609337138873253
150,1.54350622360750377425735589450812
151,1.54484448656206342141335680883202
152,1.54617391010614086986606862330613
153,1.54749461027976486042977216160827
154,1.54880670085250164807616479796783
155,1.55011029338231347289684153130650
156,1.55140549727252250271657095894308
157,1.55269241982695129393344708747121
158,1.55397116630331158865958822532323
159,1.5552418399649051209680049969496
160,1.5565045421307027697555728169887
161,1.5577593722238605543132658522983
162,1.5590064278187319336752727945628
163,1.5602458046864312630164653520557
164,1.5614775968390030436634365136977
165,1.5627018965722455669069352305625
166,1.5639187945072394671745953585788
167,1.5651283796306284168536122278215
168,1.5663307393336946516470673906441
169,1.5675259594502743885245994257174
170,1.5687141242935528793533510046747
171,1.5698953166917792946400767221855
172,1.5710696180229393040124827362538
173,1.5722371082484207557406728624670
174,1.5733978659457082987827764893505
175,1.5745519683401409322579093556536
176,1.5756994913357621886692841138495
177,1.5768405095452962113850242858568
178,1.5779750963192788807429239267000
179,1.5791033237743704336949052350775
180,1.5802252628208805233601305524835
181,1.5813409831895283670428417371306
182,1.5824505534574656780701855749947
183,1.5835540410735854306938811826065
184,1.5846515123831406995615384316149
185,1.5857430326516953818506888680851
186,1.5868286660884277706545729778624
187,1.5879084758688107800865330638612
188,1.5889825241566842583869526995735
189,1.5900508721257431200896860010450
190,1.5911135799804569482918279145578
191,1.5921707069764402895444726318278
192,1.5932223114402900235325605451587
193,1.5942684507889081113562562361752
194,1.5953091815483230631603925635357
195,1.5963445593720280574340452345642
196,1.5973746390588494038428881622782
197,1.5983994745703597248776062590031
198,1.5994191190478500182595013382243
199,1.6004336248288734339187657835557
200,1.6014430434633747057063946476144
201,1.6024474257294162142185219419049
202,1.6034468216485140568445297933818
203,1.6044412805005947797208416468475
204,1.6054308508385843864520373445704
205,1.6064155805026395889111481914312
206,1.6073955166340343188161642241671
207,1.6083707056887073707080894284335
208,1.6093411934504853977352924540232
209,1.6103070250439870030715927171275
210,1.6112682449472194225671610889282
211,1.6122248970038751575886384507119
212,1.6131770244353387851704636448540
213,1.6141246698524083233653894829597
214,1.6150678752667461274776472405613
215,1.6160066821020585234034544649243
216,1.6169411312050181325293078935985
217,1.6178712628559328472233999952231
218,1.6187971167791704293631324297190
219,1.6197187321533420048274227132255
220,1.6206361476212569620744414179849
221,1.6215494012996471570872536203853
222,1.6224585307886776220453903766534
223,1.6233635731812373385459754960427
224,1.6242645650720251346649982011641
225,1.6251615425664332623934347299842
226,1.6260545412892321933812760583146
227,1.6269435963930652758279368117731
228,1.6278287425667550627104544749544
229,1.6287100140434284634847010679293
230,1.6295874446084654054879748133761
231,1.6304610676072727942973347208802
232,1.6313309159528941819482307107271
233,1.6321970221334501285015207871654
234,1.6330594182194254030083198254000
235,1.6339181358707961949559767497207
236,1.6347732063440070349467012304530
237,1.6356246604988010447186905661297
238,1.6364725288049052475034135243372
239,1.6373168413485763742811851537901
240,1.6381576278390093193336241937950
241,1.6389949176146125264228028176355
242,1.6398287396491531615279575819619
243,1.6406591225577761028931675380531
244,1.6414860946028984366020837150277
245,1.6423096836999838307701266651727
246,1.6431299174231993069010128678526
247,1.6439468230109557901722626059318
248,1.6447604273713400191827900872878
249,1.6455707570874327836567485942419
250,1.6463778384225238742030470082563
251,1.6471816973252216435360235902964
252,1.6479823594344599770506579193303
253,1.6487798500844077443490067721026
254,1.6495741943092803879683784579300
255,1.6503654168480575287340888488545
256,1.6511535421491066724969453317322
257,1.6519385943747194089932179558949
258,1.6527205974055565468792376416314
259,1.6534995748450089877843538662191
260,1.6542755500234747250800545435366
261,1.6550485460025522804155795283347
262,1.6558185855791553027454583561929
263,1.6565856912895471797288453254347
264,1.6573498854133011116519175516603
265,1.6581111899771841723987209778354
266,1.6588696267589675245008862901092
267,1.6596252172911660007960620882790
268,1.6603779828647070856919186691824
269,1.6611279445325335652326557235516
270,1.6618751231131355693899543888385
271,1.6626195391940212898123745113570
272,1.6633612131351203518748545544483
273,1.6641001650721272834200776222849
274,1.6648364149197822884864759251129
275,1.6655699823750932008794175944908
276,1.6663008869204968952149474407321
277,1.6670291478269676387270204739247
278,1.6677547841570641377624316408644
279,1.6684778147679267814090556271177
280,1.6691982583142171751035539571392
281,1.6699161332510078530224857446835
282,1.6706314578366196655056440021250
283,1.6713442501354100539384307541116
284,1.6720545280205093696091837895710
285,1.6727623091765120437825646587794
286,1.6734676111021186337146513443886
287,1.6741704511127338038815867939596
288,1.6748708463430166441780107650938
289,1.6755688137493879731302794407027
290,1.6762643701124953586319392984582
291,1.6769575320396336971222863505092
292,1.6776483159671242360949880444420
293,1.6783367381626559456917463215406
294,1.6790228147275842762759610946249
295,1.6797065615991893891117364178792
296,1.6803879945529014456883298274183
297,1.6810671292044828873954967678978
298,1.6817439810121770222810096030382
299,1.6824185652788197217262379625595
300,1.6830908971539159776229353560687
301,1.6837609916356817314667697651326
302,1.6844288635730530682781431330162
303,1.6850945276676599484564202995895
304,1.6857579984757680550746474676573
305,1.6864192904101901851187349292416
306,1.6870784177421664478683564822006
307,1.6877353946032104523703895168159
308,1.6883902349869289624309628325945
309,1.6890429527508111083888221124995
310,1.6896935616179874908140986028875
311,1.6903420751789627710323694453682
312,1.6909885068933192616044172582502
313,1.6916328700913929095073509755752
314,1.6922751779759234762885780933089
315,1.6929154436236782348328386419470
316,1.6935536799870505583819564572145
317,1.6941898998956309404096811891828
318,1.6948241160577557965937391144133
319,1.6954563410620311904452395280819
320,1.6960865873788314838503583918321
321,1.6967148673617768314568226582192
322,1.6973411932491856333330841609287
323,1.6979655771655054599371177826137
324,1.6985880311227214265318293237938
325,1.6992085670217437790254590584171
326,1.6998271966537729284612180433126
327,1.7004439317016447549086352648142
328,1.7010587837411533699491812086792
329,1.7016717642423563126118799191094
330,1.7022828845708586104221575737092
331,1.7028921559890771441379534713187
332,1.7034995896574863773940191212018
333,1.7041051966358458297894838286233
334,1.7047089878844074774216011905873
335,1.7053109742651073957775866916602
336,1.7059111665427377030154311844480
337,1.7065095753861016758591325213204
338,1.7071062113691530969395930600914
339,1.7077010849721158980672566248648
340,1.7082942065825901907562659955723
341,1.7088855864966403975568179262452
342,1.7094752349198679813242309232879
343,1.7100631619684684101933589956742
344,1.7106493776702723519442679906952
345,1.7112338919657729170725554390093
346,1.7118167147091364253385920918189
347,1.7123978556692002611331157321264
348,1.7129773245304546293623136023831
349,1.7135551308940117567564448715292
350,1.7141312842785600809213058389329
351,1.7147057941213055147159706189115
352,1.7152786697788994683011737753060
353,1.7158499205283529132162227925915
354,1.7164195555679379029404048935709
355,1.7169875840180769152026786854621
356,1.7175540149222182258085146266788
357,1.7181188572477005530085894885865
358,1.7186821198866062163973713335516
359,1.7192438116565985554668216358259
360,1.7198039413017525457219259133449
361,1.7203625174933703572139778238437
362,1.7209195488307883370797792248880
363,1.7214750438421700116873429809808
364,1.7220290109852901323705246902727
365,1.7225814586483080011081001371467
366,1.7231323951505289538057059880832
367,1.7236818287431568931802256835000
368,1.7242297676100346599648538761857
369,1.7247762198683768749702109413196
370,1.7253211935694909651665418264642
371,1.7258646966994892270862919810050
372,1.7264067371799908840171419568295
373,1.7269473228688141036912474632888
374,1.7274864615606622849411652580891
375,1.7280241609877953048831861870238
376,1.7285604288206971828345992141856
377,1.7290952726687319501664912699428
378,1.7296287000807908934947889888963
379,1.7301607185459330110020384170176
380,1.7306913354940154386460532567942
381,1.7312205582963167216821855516162
382,1.7317483942661500496601856451375
383,1.7322748506594711295483006524167
384,1.7327999346754756606758536462407
385,1.7333236534571900327401929289102
386,1.7338460140920559055204709313849
387,1.7343670236125044196245570839956
388,1.7348866889965239750562061501196
389,1.7354050171682222522770083455701
390,1.7359220149983796648564358039867
391,1.7364376893049945606378025560481
392,1.7369520468538237797836397571196
393,1.7374650943589160431730165530101
394,1.7379768384831367522332395646094
395,1.7384872858386870570639605336839
396,1.7389964429876168437061681673089
397,1.7395043164423312704487213770517
398,1.7400109126660908612915032092110
399,1.7405162380735037223403882680250
400,1.7410202990310141810760747595367
401,1.7415231018573838974002485589550
402,1.7420246528241661916595180962263
403,1.7425249581561764103703938975075
404,1.7430240240319562227192236401091
405,1.7435218565842293132651832011697
406,1.7440184619003545798649339913577
407,1.7445138460227739535218381998287
408,1.7450080149494523433375825286862
409,1.7455009746343125676262178135490
410,1.7459927309876677856521289933293
411,1.7464832898766456899932653844539
412,1.7469726571256080421017497399115
413,1.7474608385165666301048481420031
414,1.7479478397895920726746731679641
415,1.7484336666432197529121259265344
416,1.7489183247348493118613133388301
417,1.7494018196811405501240836578147
418,1.7498841570584029007941648128122
419,1.7503653424029827522054556649129
420,1.7508453812116436023992845224952
421,1.7513242789419429974776852601326
422,1.7518020410126055354275184635527
423,1.7522786728038897715387545287217
424,1.7527541796579526391241192469203
425,1.7532285668792077648822072783361
426,1.7537018397346812857268169188471
427,1.7541740034543626516938777940585
428,1.7546450632315504285953973034122
429,1.7551150242231970127893910865051
430,1.7555838915502451201523767621893
431,1.7560516702979635528893614047162
432,1.7565183655162793936757128344102
433,1.7569839822201019650077129462844
434,1.7574485253896496516787980472167
435,1.7579119999707674100343031459343
436,1.7583744108752428649741684653299
437,1.7588357629811191560510866104422
438,1.7592960611330035147066554878436
439,1.7597553101423722539267235526368
440,1.7602135147878732415071452518320
441,1.7606706798156230167586794504979
442,1.7611268099395021142741417210635
443,1.7615819098414482424284673205189
444,1.7620359841717419359581244031248
445,1.7624890375492940132536064615580
446,1.7629410745619258626884756203265
447,1.7633920997666497271276829316634
448,1.7638421176899422047897309844647
449,1.7642911328280188069410876947567
450,1.7647391496471017248359828504785
451,1.7651861725836883089686628803628
452,1.7656322060448131019574521982781
453,1.7660772544083091681044432562563
454,1.7665213220230651085503174711436
455,1.7669644132092813858669662306279
456,1.7674065322587212550575940984155
457,1.7678476834349609966403612907788
458,1.7682878709736358476820233016417
459,1.7687270990826841446746747236494
460,1.7691653719425893205674732158752
461,1.7696026937066176056459255140125
462,1.7700390685010546452772472209106
463,1.7704745004254396382598756440026
464,1.7709089935527951566499080669667
465,1.7713425519298566157668394197799
466,1.7717751795772985250412986913160
467,1.7722068804899568001874653718851
468,1.7726376586370521523057541651170
469,1.7730675179624070305784358859238
470,1.7734964623846636430628784948709
471,1.7739244957974973226543605970998
472,1.7743516220698295357932208603383
473,1.7747778450460358847830166666774
474,1.7752031685461566076756736041236
475,1.7756275963660984984416511416213
476,1.7760511322778407611920509560361
477,1.7764737800296351314106298355235
478,1.7768955433462049401450159869398
479,1.7773164259289420105012399295999
480,1.7777364314561017809821971649979
481,1.7781555635829952065034204524946
482,1.7785738259421810058312821330760
483,1.7789912221436536353978593678479
484,1.7794077557750298092033683349182
485,1.7798234304017350416380413653611
486,1.7802382495671847979709966249705
487,1.7806522167929671012424270852288
488,1.7810653355790211919981221098484
489,1.7814776094038154689179505318689
490,1.7818890417245225733339063112773
491,1.7822996359771937517875889559838
492,1.7827093955769310846803078366775
493,1.7831183239180575558869240346878
494,1.7835264243742860572348300079842
495,1.7839337002988855202021199415536
496,1.7843401550248474191121776816369
497,1.7847457918650483311993979592945
498,1.7851506141124124986504657561132
499,1.7855546250400718897910950153084
500,1.785957827901525889736387705897
501,1.786360225930796366359248469858
502,1.786761822342585566569837493216
503,1.787162620332428310840755210064
504,1.787562623076846329621338690369
505,1.787961833733497588905941568977
506,1.788360255441326334842522469233
507,1.788757891320711705200686943784
508,1.789154744473614547448227990642
509,1.789550817983720674112036262264
510,1.789946114916586608441676914667
511,1.790340638319781051231582567217
512,1.790734391223025968774837693963
513,1.791127376638335917462532612050
514,1.791519597560156281266986353295
515,1.791911056965500796183717633459
516,1.792301757814086571796575949664
517,1.792691703048467684533451499901
518,1.793080895594169127826299718380
519,1.793469338359817900948612185745
520,1.793857034237274093362006335589
521,1.794243986101758759630545827445
522,1.794630196811982860932361372589
523,1.795015669210273710155804424302
