Eigenstate,Potential Energy
1,0.500000000027689241555140968758774863
2,0.64623093783185547864515671673156049
3,0.73633761023588680060518036072879589
4,0.79966527892006479429344754588972250
5,0.8480465772011998423181719719565705
6,0.8870659998343392962187572527006493
7,0.9197208282578320207128939897116265
8,0.9477838488487218893885808969774113
9,0.9723835606133486817604223382986810
10,0.9942802177003250665161503453435072
11,1.0140093902507194518774069510178888
12,1.0319621735691844247231511799734200
13,1.0484326977215468108287325090340022
14,1.0636476603909682026159478091554944
15,1.0777854426921292400779820514551793
16,1.090988914041674363360546655879882
17,1.103374265619716044086650545509705
18,1.115037261376034265832881286413531
19,1.126057761134054221131682379614802
20,1.136503058224782855448384742837656
21,1.146430385568506147848452235638243
22,1.155888826833529338254495119337744
23,1.164920794372701665400727124672790
24,1.173563186623838597398646151462723
25,1.181848304905648284572413225335437
26,1.189804587225319362576093216405054
27,1.197457201241096833065520631520070
28,1.204828527621321940357537507725372
29,1.211938557246384141187800220680152
30,1.218805220050545695501567795745160
31,1.225444659154660906216184917474169
32,1.231871460862912451230642506164289
33,1.238098848787039446878902854239290
34,1.244138848610985615915395070465744
35,1.250002428669700867469248485358811
36,1.255699620482350717901770528099067
37,1.261239622576103433030135740639433
38,1.266630890306246029079889907117662
39,1.271881213880531620246569476431213
40,1.276997786399839817232097081276250
41,1.281987263410481607426667325299595
42,1.286855815208487545923599847337682
43,1.291609172929731741657216905361536
44,1.296252669291650107465901004440607
45,1.300791274714741773899483763362178
46,1.305229629438906284008776149465206
47,1.309572072156192574034056314883504
48,1.313822665603949380670263413201838
49,1.317985219497704171697860983326060
50,1.32206331112897498312168743666603
51,1.32606030390775258349323825305966
52,1.32997936409104517179717534925565
53,1.33382347590642769674090309369244
54,1.33759545525197675383336114421092
55,1.34129796213049652413026866867953
56,1.34493351195586664840041313356111
57,1.34850448585214396535070622632756
58,1.35201314005125285625868320189997
59,1.35546161448234499108750028527773
60,1.35885194063488476345767741455665
61,1.36218604876795247434638961532574
62,1.36546577452995631927272053980846
63,1.36869286504570234470757638666359
64,1.37186898452145905952566821373193
65,1.37499571941311854734482912692178
66,1.37807458319770858654438524112020
67,1.38110702078424799342901683864443
68,1.38409441259618124319641424553884
69,1.38703807835431575264062479166642
70,1.38993928058625694025922590837589
71,1.39279922788573747570170088932020
72,1.39561907794293888811667581859123
73,1.39839994036485069655246927374694
74,1.40114287930289337701276158986317
75,1.40384891590340037966632801021799
76,1.40651903059510485295462279575503
77,1.40915416522647433292302298489937
78,1.41175522506457085792138901472926
79,1.41432308066606714882743328126870
80,1.41685856963011136930196750082759
81,1.41936249824188363910855734380935
82,1.42183564301492602297661323147970
83,1.42427875213963898369727407947161
84,1.42669254684471299642538337659100
85,1.42907772267770474498713302223040
86,1.43143495071045145560365037200896
87,1.43376487867455945264095887754913
88,1.43606813203177964326101350263301
89,1.43834531498369913568702495937088
90,1.44059701142483497906700923688261
91,1.44282378584289456086881474475092
92,1.44502618416967890020071158933331
93,1.44720473458584282039604200385781
94,1.44935994828248305546227216271478
95,1.45149232018230419096582187627985
96,1.45360232962291051780756092934004
97,1.45569044100458753523432859294826
98,1.45775710440476396513701427094478
99,1.45980275616119166749673409302930
100,1.46182781942573450642445223466864
101,1.46383270469052791208498221935923
102,1.46581781028814530907521558650882
103,1.46778352286729966821347505278795
104,1.46973021784550117398662216840146
105,1.47165825983999892614445989201300
106,1.47356800307824382968741272392647
107,1.47545979178903174553798031702479
108,1.47733396057540673463206410655644
109,1.47919083477033563463216431801375
110,1.48103073077610278833931197705380
111,1.48285395638830788168213692756391
112,1.48466081110530041552796514116166
113,1.48645158642382879976677678501988
114,1.48822656612163330036251244664048
115,1.48998602652767162156365433288201
116,1.49173023678061757381677904622732
117,1.49345945907624156491999632045812
118,1.49517394890424062084770104922479
119,1.49687395527505192896163266627983
120,1.49855972093715805408839531167155
121,1.50023148258535371069928506030829
122,1.50188947106042506129550858831744
123,1.50353391154066031816988394520987
124,1.50516502372559274590743299079830
125,1.50678302201234759572423932831555
126,1.50838811566494930544628362531504
127,1.50998050897692472104366768537307
128,1.51156040142751550844572222267677
129,1.51312798783180085112433684802532
130,1.51468345848501314706569713071170
131,1.51622699930131401463240701788170
132,1.51775879194728293961736079677917
133,1.51927901397035911420652543927009
134,1.52078783892246574260920435017871
135,1.52228543647902797977171538396663
136,1.52377197255359198206001789315649
137,1.52524760940823924085343226613072
138,1.52671250575997675800078085587050
139,1.52816681688328151618484231733539
140,1.52961069470896225127261076247863
141,1.53104428791949697623897293015476
142,1.53246774204099663298438501108560
143,1.53388119953193659819768762462280
144,1.53528479986879058977843431854373
145,1.53667867962869733257378333993157
146,1.53806297256928247343428401288888
147,1.53943780970575003262678836178897
148,1.54080331938535872060934887470515
149,1.54215962735938492109881546027771
150,1.54350685685267598128452746540741
151,1.54484512863088972341781504047001
152,1.54617456106551047692231808391644
153,1.54749527019673058069351140055456
154,1.54880736979428125480380069936448
155,1.55011097141629107757979425425408
156,1.55140618446624993438836516756567
157,1.55269311624814948470791462208257
158,1.55397187201987196555894338746195
159,1.5552425550448910041000025797834
160,1.5565052666423507768992923036797
161,1.5577601062355820119735876123759
162,1.5590071713991142946664658784987
163,1.5602465579042395306357092942199
164,1.5614783597631812025156311981754
165,1.5627026692719180204425339210337
166,1.5639195770517124820026062757549
167,1.5651291720893915738924253189551
168,1.5663315417764223041761951849112
169,1.5675267719468271272008014132094
170,1.5687149469139790042552635255166
171,1.5698961495063162944056899885789
172,1.5710704611020153421344888487614
173,1.5722379616626561640850406714382
174,1.5733987297659170783965144225346
175,1.5745528426373322615323324071547
176,1.5757003761811419389256934037342
177,1.5768414050102684699501947757234
178,1.5779760024754474815822051277776
179,1.5791042406935404956713963293705
180,1.5802261905750599961887695296649
181,1.5813419218509295850088597046169
182,1.5824515030985069215818329401357
183,1.5835550017668924957398997278460
184,1.5846524842015484751443861699189
185,1.5857440156682494354671166506646
186,1.5868296603763859418954934431552
187,1.5879094815016447824290073119276
188,1.5889835412080812892513555289272
189,1.5900519006696074792358849973724
190,1.5911146200909116646286713825880
191,1.5921717587278287564275183625762
192,1.5932233749071776426255436093379
193,1.5942695260460839451323394960450
194,1.5953102686708014961199286509395
195,1.5963456584350504661160567127229
196,1.5973757501378858357082059256064
197,1.5984005977411105861421381545561
198,1.5994202543862477707567096389703
199,1.6004347724110843010711811741975
200,1.6014442033658003876864730980733
201,1.6024485980286956123798274379976
202,1.6034480064215250075050124433074
203,1.6044424778244557973804197733767
204,1.6054320607906564165275171418268
205,1.6064168031605277700720958340502
206,1.6073967520755897550060318907484
207,1.6083719539920289129356530919436
208,1.6093424546939214357219793785470
209,1.6103082993061372668411759467697
210,1.6112695323069367940648955463205
211,1.6122261975402674924175371805010
212,1.6131783382277707445333441142739
213,1.6141259969805032163018633988425
214,1.6150692158103877634860377389832
215,1.6160080361413930755383489326270
216,1.6169424988204560110661892915814
217,1.6178726441281505839826406299118
218,1.6187985117891125727862331009670
219,1.6197201409822230258993447357061
220,1.6206375703505631711865204310209
221,1.6215508380111386319360138768845
222,1.6224599815643901466634003228841
223,1.6233650381034843535617001236659
224,1.6242660442233996988893162953086
225,1.6251630360298100258314905056681
226,1.6260560491477693817689798587466
227,1.6269451187302066867934175220708
228,1.6278302794662320736615024548082
229,1.6287115655892620513241902933293
230,1.6295890108849681782600638025099
231,1.6304626486990510348681601180301
232,1.6313325119448499038256680223957
233,1.6321986331107831438994976307851
234,1.6330610442676354032620487036228
235,1.6339197770756848433954371417019
236,1.6347748627916800723365591638345
237,1.6356263322756704073738831516080
238,1.6364742159976911981904134449142
239,1.6373185440443096460160793407796
240,1.6381593461250332721890209520610
241,1.6389966515785853174565609331103
242,1.6398304893790499279476816183926
243,1.6406608881418911585715932810995
244,1.6414878761298474820591837784455
245,1.6423114812587061767390372003131
246,1.6431317311029601115958326076395
247,1.6439486529013483103767762304830
248,1.6447622735622878752802311723720
249,1.6455726196691922387218593553665
250,1.6463797174856861272786577553203
251,1.6471835929607151372175343006873
252,1.6479842717335527195028411968246
253,1.6487817791387096458807400640530
254,1.6495761402107456122919813288621
255,1.6503673796889868590370251943367
256,1.6511555220221498924549858533149
257,1.6519405913728776988550962469084
258,1.6527226116221848947540583938584
259,1.6535016063738186162643216545246
260,1.6542775989585355333320386466400
261,1.6550506124382953018767040824072
262,1.6558206696103751785584786987438
263,1.6565877930114046480549242359741
264,1.6573520049213255129991305033307
265,1.6581133273672759711064598892243
266,1.6588717821274008465210065997532
267,1.6596273907345911879133360346958
268,1.6603801744801532663275388764788
269,1.6611301544174112419757045860171
270,1.6618773513652392234033218150415
271,1.6626217859115320022608794107757
272,1.6633634784166084425245893541714
273,1.6641024490165549665594411845494
274,1.6648387176265063463208030785591
275,1.6655723039438676745523472723648
276,1.6663032274514757936114740959429
277,1.6670315074207076652140423391668
278,1.6677571629145274350246549540249
279,1.6684802127904836945390936463341
280,1.6692006757036490331069318307335
281,1.6699185701095097688995264941445
282,1.6706339142668033550737267828701
283,1.6713467262403066735599345584151
284,1.6720570239035723729914803388218
285,1.6727648249416200580186561899237
286,1.6734701468535783547338974282766
287,1.6741730069552829114821772708403
288,1.6748734223818267368142688565317
289,1.6755714100900675226292594176602
290,1.6762669868610926850158899120782
291,1.6769601693026399637149443638982
292,1.6776509738514764650914005788197
293,1.6783394167757400543730243530340
294,1.6790255141772381340524440984282
295,1.6797092819937058955789970531487
296,1.6803907360010316298832515600007
297,1.6810698918154390284406261859490
298,1.6817467648956357916076546352707
299,1.6824213705449253470682797004176
300,1.6830937239132834289756416452200
301,1.6837638399993999292064143881775
302,1.6844317336526881136400540426822
303,1.6850974195752583765714509435217
304,1.6857609123238601107655150558990
305,1.6864222263117931216599878399644
306,1.6870813758107878489154933153856
307,1.6877383749528515772658265721677
308,1.6883932377320881150964223789272
309,1.6890459780064870300159871586397
310,1.6896966094996827765670398225892
311,1.6903451458026873109779912738047
312,1.6909916003755937060886291737064
313,1.6916359865492521591973606639754
314,1.6922783175269201971034315246049
315,1.6929186063858863979869701301820
316,1.6935568660790690057683598330043
317,1.6941931094365869755516287088092
318,1.6948273491673088013967200523470
319,1.6954595978603762679821258799302
320,1.6960898679867031274163584929448
321,1.6967181719004526201320048576696
322,1.6973445218404899542934171270572
323,1.6979689299318132577568850875100
324,1.6985914081869619797231082153201
325,1.6992119685074045040626325583284
326,1.6998306226849032115407830895510
327,1.7004473824028598116976408184790
328,1.7010622592376381335775284208126
329,1.7016752646598693501668028683358
330,1.7022864100357360682056031742193
331,1.7028957066282367219501991267245
332,1.7035031655984313321096676819755
333,1.7041087980066690084945323700833
334,1.7047126148137953803832172672436
335,1.7053146268823442695206738465306
336,1.7059148449777096637832437017676
337,1.7065132797693008637378596543235
338,1.7071099418316818609296593626361
339,1.7077048416456910123869352433441
340,1.7082979895995471026663216976998
341,1.7088893959899375069978707618970
342,1.7094790710230909526613370053941
343,1.7100670248158345163654017210308
344,1.7106532673966348513189585049200
345,1.7112378087066254633111737901267
346,1.7118206586006175105768564509741
347,1.7124018268480976927888393656035
348,1.7129813231342100408831360300448
349,1.7135591570607251526242573126928
350,1.7141353381469944162335307112269
351,1.7147098758308913096668268826659
352,1.7152827794697394578896809218058
353,1.7158540583412267325111700175230
354,1.7164237216443068082359449027831
355,1.7169917785000885414014215323577
356,1.7175582379527113803730359533017
357,1.7181231089702100468255247808675
358,1.7186864004453677319019616353960
359,1.7192481211965535523794954521135
360,1.7198082799685532047522405441094
361,1.7203668854333845620911571894383
362,1.7209239461911046952723450165724
363,1.7214794707706029141790869736599
364,1.7220334676303848528629276263592
365,1.7225859451593458350244469047407
366,1.7231369116775323974749967303059
367,1.7236863754368948635838367789663
368,1.7242343446220277554326359457345
369,1.7247808273509026772170475730814
370,1.7253258316755893830644317097695
371,1.7258693655829678825714392102344
372,1.7264114369954305405357095204308
373,1.7269520537715741375917820892824
374,1.7274912237068862002264459355228
375,1.7280289545344162917380574489710
376,1.7285652539254437203516918628450
377,1.7291001294901334536955927906854
378,1.7296335887781834070468274785199
379,1.7301656392794649451428217270311
380,1.7306962884246533543202165650538
381,1.7312255435858511604120344285532
382,1.7317534120772014105695290188121
383,1.7322799011554955936658902146096
384,1.7328050180207711629784017378707
385,1.7333287698169022823996259160500
386,1.7338511636321844548254676663906
387,1.7343722064999087820514885700452
388,1.7348919053989297929700733453979
389,1.7354102672542275147478116924993
390,1.7359272989374609760823138182369
391,1.7364430072675134594714116240002
392,1.7369573990110331108639486697540
393,1.7374704808829663801700583491939
394,1.7379822595470828737193027984320
395,1.7384927416164944755302388951439
396,1.7390019336541683882498141195338
397,1.7395098421734337236611725451207
398,1.7400164736384816508844368190310
399,1.7405218344648576680525947318232
400,1.7410259310199502974097151405714
401,1.7415287696234722527417185272236
402,1.7420303565479348243463631350985
403,1.7425306980191183022718755612225
404,1.7430298002165363309046383855090
405,1.7435276692738916603405769696207
406,1.7440243112795294035653601642126
407,1.7445197322768849161533647576624
408,1.7450139382649238016694593855603
409,1.7455069351985769038408064247678
410,1.7459987289891727999671067698000
411,1.7464893255048620555778228691460
412,1.7469787305710368229150676602556
413,1.7474669499707468622931088709791
414,1.7479539894451084101695809246363
415,1.7484398546937101778814811837642
416,1.7489245513750129106701328195275
417,1.7494080851067453554715623267821
418,1.7498904614662938007001523018613
419,1.7503716859910894665275901577910
420,1.7508517641789887275701558849303
421,1.7513307014886501201587775338558
422,1.7518085033399074157857539700693
423,1.7522851751141365968586775907458
424,1.7527607221546203484779213747235
425,1.7532351497669064455877759742754
426,1.7537084632191636423327002173860
427,1.7541806677425325482385613919837
428,1.7546517685314715048976460346007
429,1.7551217707441013755344672939883
430,1.7555906795025421095486580144542
431,1.7560584998932485856786255072665
432,1.7565252369673428832900528500522
433,1.7569908957409383196749537854961
434,1.7574554811954663512880728683775
435,1.7579189982779941625831663384425
436,1.7583814519015408434281785711095
437,1.7588428469453903164568461574650
438,1.7593031882553999964094703104264
439,1.7597624806443058627539711356540
440,1.7602207288920250167887798108104
441,1.7606779377459528830671577749091
442,1.7611341119212586187759586601191
443,1.7615892561011783787510464346366
444,1.7620433749373010554860637238612
445,1.7624964730498558247797956970294
446,1.7629485550279925213562566993074
447,1.7633996254300620136120423252269
448,1.7638496887838897956772143309607
449,1.7642987495870506372788254631177
450,1.7647468123071364438333590871294
451,1.7651938813820248298458411430189
452,1.7656399612201412469482935171067
453,1.7660850562007204096327203113321
454,1.7665291706740634076113015381721
455,1.7669723089617941286589413347442
456,1.7674144753571102889203420309689
457,1.7678556741250337663715196174695
458,1.7682959095026566333141759388238
459,1.7687351856993854018108586839862
460,1.7691735068971831243851801792060
461,1.7696108772508071996944437253929
462,1.7700473008880460962060338077425
463,1.7704827819099535976309064172367
464,1.7709173243910787310006315708374
465,1.7713509323796953461051925129303
466,1.7717836098980284769690045516260
467,1.7722153609424767658627872081335
468,1.7726461894838359654719777354333
469,1.7730760994675159958998518456906
470,1.7735050948137590810259807314104
471,1.7739331794178532313068972574787
472,1.7743603571503453706111933117141
473,1.7747866318572494579707163254375
474,1.7752120073602571082212054956743
475,1.7756364874569396342670777993447
476,1.7760600759209540247537196694197
477,1.7764827765022431901235698984426
478,1.7769045929272351530217141321767
479,1.7773255288990400724138299473855
480,1.7777455880976454959743266846990
481,1.7781647741801083915969613281332
482,1.7785830907807475267910596218979
483,1.7790005415113315759372284643023
484,1.7794171299612657751316838152999
485,1.7798328596977786014709840392145
486,1.7802477342661030615441649739559
487,1.7806617571896594378887743179066
488,1.7810749319702340898696133708513
489,1.7814872620881575370531221757455
490,1.7818987510024796880931298437470
491,1.7823094021511443492996783831527
492,1.7827192189511616009642769498662
493,1.7831282047987780163368747662016
494,1.7835363630696458171753564609795
495,1.7839436971189891582460511759669
496,1.7843502102817707850741217661388
497,1.7847559058728547503423239483888
498,1.7851607871871691340658758793061
499,1.7855648574998662647369125148681
500,1.785968120066482571780905836236
501,1.786370578123093815204463449397
502,1.786772234886473147451691040050
503,1.787173093554243475430171332862
504,1.787573157305031966373693768077
505,1.787972429298619544835006364263
506,1.788370912676091110720124623214
507,1.788768610559984326209195256854
508,1.789165526054436611343151670167
509,1.789561662245328578976503674811
510,1.789957022200429962144124600946
511,1.790351608969541264727053938230
512,1.790745425584635035418529972381
513,1.791138475059995380533102214904
514,1.791530760392356391928423025117
515,1.791922284561039864143410494663
516,1.792313050528090510949488732332
517,1.792703061238409755912087858803
518,1.793092319619889882209195134353
519,1.793480828583545323511009876725
520,1.793868591023643952786718307294
521,1.794255609817835164128647174641
522,1.794641887827279023658271537079
523,1.795027427896772926535411911413
