Eigenstate,Potential Energy
1,0.500000000040202432459132287911925437
2,0.64623093791353514490186995414266051
3,0.73633761047581458126679989432724850
4,0.79966527941980796934318023749265680
5,0.8480465780668595031394502224904767
6,0.8870660011738748329966014580735718
7,0.9197208301800753757851883046733270
8,0.9477838514629665107325832607271855
9,0.9723835640291584324405549958770352
10,0.9942802220274372806016760679770918
11,1.0140093955989923103190527018800888
12,1.0319621800485669161075613818548027
13,1.0484327054420609875251205812434840
14,1.0636476694626985130425864831056042
15,1.0777854532252161299641185049449194
16,1.090988926146310558692971828086120
17,1.103374279406144578576479202524454
18,1.115037276954547678425940119716619
19,1.126057778614994559640808196797454
20,1.136503077718542248986791829791289
21,1.146430407185527789269068597549658
22,1.155888850684308767875855564015195
23,1.164920820567788280036773310656556
24,1.173563215273837330595953902984523
25,1.181848336121221418890067792753147
26,1.189804621117188445119959907786846
27,1.197457237920044672822006062574194
28,1.204828567198194671135064564860596
29,1.211938599832093337805447388244300
30,1.218805265756070533689867868801287
31,1.225444708091050358804263454870480
32,1.231871513141287514786028108693995
33,1.238098904518595394180809363609069
34,1.244138907906994270577648737951614
35,1.250002491641512897756042382635888
36,1.255699687241397947349269347442449
37,1.261239693233901165937218172043543
38,1.266630964974395389289719672761577
39,1.271881292670721901928011425828080
40,1.276997869423850846601901157231895
41,1.281987350780186114541634240882023
42,1.286855907035853545825810055911701
43,1.291609269326824924281810093242357
44,1.296252770370636235825305814950867
45,1.300791380587889090144696491450021
46,1.305229740218587923040637575484972
47,1.309572187954888984398103281235612
48,1.313822786534250752519819632872565
49,1.317985345672312871653211058653772
50,1.32206344266070799588984942110915
51,1.32606044090954396014416014122507
52,1.32997950667594848461893787155489
53,1.33382362418761850061952012491330
54,1.33759560934275505412263312765261
55,1.34129812214428925099431802574077
56,1.34493367800623013762647197202390
57,1.34850465805276644564270398276236
58,1.35201331851595694303363727195177
59,1.35546179932509018680663850583288
60,1.35885213196976996453306911877341
61,1.36218624670921848467162272784310
62,1.36546597919198837043309800855839
63,1.36869307654303262293142840363235
64,1.37186920296876923944385194083886
65,1.37499594492524233263043394541342
66,1.37807481588963425750908234531822
67,1.38110726077112096165646184469113
68,1.38409465999330661329675346248112
69,1.38703833327716089121345382552580
70,1.38993954315045405215530951245283
71,1.39279949820708618767657339205863
72,1.39561935613740883997170782175681
73,1.39840022654858413986138229243841
74,1.40114317359220778153369264514100
75,1.40384921841479104754159841467049
76,1.40651934144524754080220053098645
77,1.40915448453222788192547561702872
78,1.41175555294297983201976221486086
79,1.41432341723436448112908861162262
80,1.41685891500572101681284453058531
81,1.41936285254242324590181327979998
82,1.42183600635820959191090128810485
83,1.42427912464367955679924627939704
84,1.42669292862772534405223461490357
85,1.42907811385810806388624884331247
86,1.43143535140687207598753703798975
87,1.43376528900583355439682724122883
88,1.43606855211695598141547404575466
89,1.43834574494204177524742936038737
90,1.44059745137582603936203843102487
91,1.44282423590623696951198478350613
92,1.44502664446529915680145824321707
93,1.44720520523389377014407826720524
94,1.44936042940334667271193040236863
95,1.45149281189659437294805944563528
96,1.45360283205147588859830860332584
97,1.45569095426851426010885887428419
98,1.45775762862537857544093901062812
99,1.45980329146006389616527230686265
100,1.46182836592468013428252998193994
101,1.46383326251161162506174253835796
102,1.46581837955368356646745727032829
103,1.46778410369986358213350174280760
104,1.46973081036791940013103512475772
105,1.47165886417536056602131205095981
106,1.47356861934990134444019052533067
107,1.47546042012060388150584729729243
108,1.47733460109078146078676802161642
109,1.47919148759367309203308889067603
110,1.48103139603183825174906303423224
111,1.48285463420115473348614330894000
112,1.48466150160025313210255884883695
113,1.48645228972616595044124178413478
114,1.48822728235692055912166932921452
115,1.48998675582176479163855120047542
116,1.49173097925966562531213809586708
117,1.49346021486668968562817267744928
118,1.49517471813283328039983975446116
119,1.49687473806883595646797908280712
120,1.49856051742348572942075113865326
121,1.50023229289188586956964062376239
122,1.50189029531513421428607967497396
123,1.50353474987183378387088475940677
124,1.50516587626183579832007340423002
125,1.50678388888258662608755277104269
126,1.50838899699843499864763107718105
127,1.50998140490323524677387377088207
128,1.51156131207655972726103962399537
129,1.51312891333382153557863850567970
130,1.51468439897059021807747945291108
131,1.51622795490136779325242187360784
132,1.51775976279307741436408503810894
133,1.51928000019350522413766975092642
134,1.52078884065492467629897983444871
135,1.52228645385311449036480676075073
136,1.52377300570197771857441585013790
137,1.52524865846395609590573459140196
138,1.52671357085642023212882173246819
139,1.52816789815421409894391381985018
140,1.52961179228851681928287841966423
141,1.53104540194218020836307187625310
142,1.53246887264169244281559128393952
143,1.53388234684590958404046884395910
144,1.53528596403168950230465592212531
145,1.53667986077655856033922542126694
146,1.53806417083853354644162882362990
147,1.53943902523321314412273478346170
148,1.54080455230825426730501099562817
149,1.54216087781533506200406051584575
150,1.54350812497970821534839567810352
151,1.54484641456744048616888730839181
152,1.54617586495042875630425888360438
153,1.54749659216928155229278488541223
154,1.54880870999414993666799507545511
155,1.55011232998358600482677874670757
156,1.55140756154150685380811850596824
157,1.55269451197233506956041621046789
158,1.55397328653438755077335171709589
159,1.5552439884915763420819423281694
160,1.5565067191634878141548961812610
161,1.5577615779738986867606185887521
162,1.5590086624977883558846286336037
163,1.5602480685069023781700305074983
164,1.5614798900139217492486622372174
165,1.5627042193152865761529233533161
166,1.5639211470327246593694117759087
167,1.5651307621535322168264406053498
168,1.5663331520696494387014819491824
169,1.5675284026155759351115131264785
170,1.5687165981051658197747652452609
171,1.5698978213673426240770238337356
172,1.5710721537807719081731367600654
173,1.5722396753075269714270017623153
174,1.5734004645257835056766746950238
175,1.5745545986615771762303088559603
176,1.5757021536196538369182846447263
177,1.5768432040134456397117186645046
178,1.5779778231942021932761524199726
179,1.5791060832793032153789746604065
180,1.5802280551797836255221340038186
181,1.5813438086270937263589222528808
182,1.5824534121991221692529594758184
183,1.5835569333455047532258969598321
184,1.5846544384122432988025302998613
185,1.5857459926656564048494104069281
186,1.5868316603156830569984178557912
187,1.5879115045385628881256702758373
188,1.5889855874989085271721595435789
189,1.5900539703711937673663626322985
190,1.5911167133606732048956411931937
191,1.5921738757237525705469335455432
192,1.5932255157878261364882968066621
193,1.5942716909705995020065307790077
194,1.5953124577989110989508771732772
195,1.5963478719270703492077603203426
196,1.5973779881547261660727405039359
197,1.5984028604442801748061382655156
198,1.5994225419378588143166316365610
199,1.6004370849738571537920090227854
200,1.6014465411030683644410597554088
201,1.6024509611044098227290180432492
202,1.6034503950002592212214576769187
203,1.6044448920714113417219302608384
204,1.6054345008716671055685619492126
205,1.6064192692420648664050752179578
206,1.6073992443247669641269819377561
207,1.6083744725766074106318556298166
208,1.6093449997823149287822364215090
209,1.6103108710674170874123549775843
210,1.6112721309108370279815902991038
211,1.6122288231571901418348548482620
212,1.6131809910287909251957969435848
213,1.6141286771373743897849874838508
214,1.6150719234955470047501436606156
215,1.6160107715279663761374792167907
216,1.6169452620822636183585394058522
217,1.6178754354397123766920568609821
218,1.6188013313256534732678943229111
219,1.6197229889196784494661612287961
220,1.6206404468655845128563734931425
221,1.6215537432810987909633031899006
222,1.6224629157673890892222055013521
223,1.6233680014183547139512826500842
224,1.6242690368297124196365342475867
225,1.6251660581078800370683202252892
226,1.6260591008786613202671309744912
227,1.6269482002957406550417089714734
228,1.6278333910489894393759166627370
229,1.6287147073725912877840112746337
230,1.6295921830529907458675243268488
231,1.6304658514366673043333212736467
232,1.6313357454377451213818586466190
233,1.6322018975454334389591818509597
234,1.6330643398313138389267444347924
235,1.6339231039564675102378137746346
236,1.6347782211784522258769464620036
237,1.6356297223581326496776686089012
238,1.6364776379663657040173839657852
239,1.6373219980905464339567093909119
240,1.6381628324410165212279850178102
241,1.6390001703573397294072587114332
242,1.6398340408144471362069118565486
243,1.6406644724286561836477980713282
244,1.6414914934635652343323973264329
245,1.6423151318358280069154469535381
246,1.6431354151208104093248377243255
247,1.6439523705581311515028210392455
248,1.6447660250570937182070968613892
249,1.6455764052020046703718626287392
250,1.6463835372573886591341924835203
251,1.6471874471730980519376278351921
252,1.6479881605893199686124982400392
253,1.6487857028414857990359475843780
254,1.6495800989650828586289063331799
255,1.6503713737003720611188580351765
256,1.6511595514970116933356211386294
257,1.6519446565185936827843094489160
258,1.6527267126470888020541877408363
259,1.6535057434872076129142567978686
260,1.6542817723706775358000318858390
261,1.6550548223604363577492568713089
262,1.6558249162547469035184975646120
263,1.6565920765912317197680224153837
264,1.6573563256508332224732161946100
265,1.6581176854616978320956073765600
266,1.6588761778029862635509129216283
267,1.6596318242086131835118127854306
268,1.6603846459709162680498386667713
269,1.6611346641442589298207987326922
270,1.6618818995485624382237196723651
271,1.6626263727727767157751024275214
272,1.6633681041782837895483147783361
273,1.6641071139022413400774152804765
274,1.6648434218608635560292578511786
275,1.6655770477526431695077066623275
276,1.6663080110615129496287976962473
277,1.6670363310599541376652201414824
278,1.6677620268120435776937943260926
279,1.6684851171764510451996122613823
280,1.6692056208093788664924312854955
281,1.6699235561674517177477005230028
282,1.6706389415105540999302600696386
283,1.6713517949046187020367857290530
284,1.6720621342243628091818508371066
285,1.6727699771559795627786850653572
286,1.6734753411997800975490559719193
287,1.6741782436727916146442733805622
288,1.6748787017113077926432690256378
289,1.6755767322733961844821188576145
290,1.6762723521413633328332545025567
291,1.6769655779241754448646096569603
292,1.6776564260598375112765193736013
293,1.6783449128177347753810739072420
294,1.6790310543009315891301865299427
295,1.6797148664484297432276045315360
296,1.6803963650373938568763488461093
297,1.6810755656853337588776337382303
298,1.6817524838522531768236123964470
299,1.6824271348427615372312146542745
300,1.6830995338081506272113619924093
301,1.6837696957484365291009949267941
302,1.6844376355143689209793327315813
303,1.6851033678094049161872338192970
304,1.6857669071916510193678743948354
305,1.6864282680757746275453989509608
306,1.6870874647348843394504752774175
307,1.6877445113023762550567980186787
308,1.6883994217737537437662378699568
309,1.6890522100084167705189371962996
310,1.6897028897314211149846024290479
311,1.6903514745352110787487252146190
312,1.6909979778813231936366842101252
313,1.6916424131020623239352288671173
314,1.6922847934021519667962680534330
315,1.6929251318603580704770639580648
316,1.6935634414310877460702285405754
317,1.6941997349459604113403386312065
318,1.6948340251153567179233352660526
319,1.6954663245299424034633870676320
320,1.6960966456621670699573095498241
321,1.6967250008677418072529836776028
322,1.6973514023870917761460206838413
323,1.6979758623467872651256953325562
324,1.6985983927609521979235919401603
325,1.6992190055326518538583396735906
326,1.6998377124552580382170448174550
327,1.7004545252137945234420399419530
328,1.7010694553862599503313372334781
329,1.7016825144449331641257639311033
330,1.7022937137576574171623537383956
331,1.7029030645891048766850765254858
332,1.7035105781020224990511650935917
333,1.7041162653584596488858608203554
334,1.7047201373209756472054578253679
335,1.7053222048538315634392713669161
336,1.7059224787241623093992967270774
337,1.7065209696031319074412585414011
338,1.7071176880670729916674404465870
339,1.7077126445986066066756237236306
340,1.7083058495877483951939885692885
341,1.7088973133329968881773460277315
342,1.7094870460424063945134920154595
343,1.7100750578346441281277683941790
344,1.7106613587400315661925746077474
345,1.7112459587015718577755839178919
346,1.7118288675759607577215293538184
347,1.7124100951345846511262021829761
348,1.7129896510645024801277491261698
349,1.7135675449694151179399142329674
350,1.7141437863706197324699062010150
351,1.7147183847079512271255575469253
352,1.7152913493407104411790773592414
353,1.7158626895485783940683731033845
354,1.7164324145325179881154235357102
355,1.7170005334156635349480232352825
356,1.7175670552441963154191805262629
357,1.7181319889882094120716516483482
358,1.7186953435425610581613464954368
359,1.7192571277277122483890427480900
360,1.7198173502905575492730922183362
361,1.7203760199052408540437754359742
362,1.7209331451739625636743046765026
363,1.7214887346277727896751942157696
364,1.7220427967273556026605825442891
365,1.7225953398638025630701039148378
366,1.7231463723593744117318040693238
367,1.7236959024682538122929945890987
368,1.7242439383772859342669190588157
369,1.7247904882067115092578068961526
370,1.7253355600108880735595721315868
371,1.7258791617790022504564654175318
372,1.7264213014357720287257614465876
373,1.7269619868421390040789124982847
374,1.7275012257959548920419855185573
375,1.7280390260326530038677987232819
376,1.7285753952259161417173860822129
377,1.7291103409883327023460126033451
378,1.7296438708720441567269008981121
379,1.7301759923693857454402585290125
380,1.7307067129135171466162655891592
381,1.7312360398790459918933146239732
382,1.7317639805826413485867888084468
383,1.7322905422836418427560516452430
384,1.7328157321846533868971360775010
385,1.7333395574321401335425085636108
386,1.7338620251170093134469455493093
387,1.7343831422751857077237597040392
388,1.7349029158881796907556656371538
389,1.7354213528836495185930180036852
390,1.7359384601359550519722578900581
391,1.7364542444667032309211526294665
392,1.7369687126452889093549512167138
393,1.7374818713894285231760065127301
394,1.7379937273656851730012500612088
395,1.7385042871899879784167243133967
396,1.7390135574281453546547842098062
397,1.7395215445963518416291694559612
398,1.7400282551616884934912329541745
399,1.7405336955426153945267140433782
400,1.7410378721094606013802704347921
401,1.7415407911849015605569269501955
402,1.7420424590444397464479146003543
403,1.7425428819168713406504838484775
404,1.7430420659847518457040170340199
405,1.7435400173848520987190743741988
406,1.7440367422086117939676900802293
407,1.7445322465025876311871418328278
408,1.7450265362688935928267933784580
409,1.7455196174656362113490484409931
410,1.7460114960073473410988933056556
411,1.7465021777654086947962505976380
412,1.7469916685684717272775953780542
413,1.7474799742028739455845193657248
414,1.7479671004130480692837128730079
415,1.7484530529019283250205462230051
416,1.7489378373313503049792731592251
417,1.7494214593224472377788612756176
418,1.7499039244560398350829144512931
419,1.7503852382730239924780449890507
420,1.7508654062747513265879127151130
421,1.7513444339234065006504235796061
422,1.7518223266423806202078400560377
423,1.7522990898166385350958283610713
424,1.7527747287930836615047172411975
425,1.7532492488809167035208683986587
426,1.7537226553519918810378880792578
427,1.7541949534411681487178651959254
428,1.7546661483466554197413069651490
429,1.7551362452303597067853041723676
430,1.7556052492182200423874595365131
431,1.7560731654005446824038900848893
432,1.7565399988323437421294401340443
433,1.7570057545336536030321320341223
434,1.7574704374898641880951855619056
435,1.7579340526520369294967076441202
436,1.7583966049372213296749223439466
437,1.7588580992287682772080680529614
438,1.7593185403766390996312018023234
439,1.7597779331977110345540270521510
440,1.7602362824760801903561093440294
441,1.7606935929633591563724334973528
442,1.7611498693789728262801643755650
443,1.7616051164104520824442773759406
444,1.7620593387137199606591193270821
445,1.7625125409133796260114833955990
446,1.7629647276029951842784080723640
447,1.7634159033453724981003985458507
448,1.7638660726728332261976811258451
449,1.7643152400874899262061480392146
450,1.7647634100615143736446506405478
451,1.7652105870374066001822786419017
452,1.7656567754282574926257075867309
453,1.7661019796180106957759231584974
454,1.7665462039617202081787691589001
455,1.7669894527858072947190730308296
456,1.7674317303883120131383350416157
457,1.7678730410391440502620011167421
458,1.7683133889803292639171681753934
459,1.7687527784262544445468367584739
460,1.7691912135639099389516408361746
461,1.7696286985531279859689987034450
462,1.7700652375268199772292055350289
463,1.7705008345912112468500267646001
464,1.7709354938260715510669372709951
465,1.7713692192849452066296114627992
466,1.7718020149953780187553528052407
467,1.7722338849591402792544644027971
468,1.7726648331524508505669049935162
469,1.7730948635261948125099201767414
470,1.7735239800061421963774932696802
471,1.7739521864931620736071486390097
472,1.7743794868634362967303806325954
473,1.7748058849686682436204998423094
474,1.7752313846362940691412928542195
475,1.7756559896696853870661226759738
476,1.7760797038483558961878593868575
477,1.7765025309281622837340592506348
478,1.7769244746415040821961935721409
479,1.7773455386975213690772680511199
480,1.7777657267822907042656048257900
481,1.7781850425590178560343640722154
482,1.7786034896682308845825706105355
483,1.7790210717279689632470250640118
484,1.7794377923339697572706706933334
485,1.7798536550598568371412610724939
486,1.7802686634573217114301937097922
487,1.7806828210563073280532934885832
488,1.7810961313651876405851403534267
489,1.7815085978709464678686310261265
490,1.7819202240393535101155839085003
491,1.7823310133151396558449820017539
492,1.7827409691221701679185641960794
493,1.7831500948636157237524690631735
494,1.7835583939221224038161675889460
495,1.7839658696599788209896450793158
496,1.7843725254192836352746865687371
497,1.7847783645221091394587816178383
498,1.7851833902706648610625943623277
499,1.7855876059474586779741229233828
500,1.785991014815457578321334547130
501,1.786393620118243810681048003206
502,1.786795425080173879858263025140
503,1.787196432906531856423683761791
504,1.787596646783684843903322286812
505,1.787996069879233451146419881254
506,1.788394705342163000020246873932
507,1.788792556302993316519852509636
508,1.789189625873926745315601591087
509,1.789585917148992618692327764918
510,1.789981433204194233183767589646
511,1.790376177097651565046440768516
512,1.790770151869743624841635588606
513,1.791163360543249066939872761546
514,1.791555806123485730492378275953
515,1.791947491598449486256299979101
516,1.792338419938950599757367825262
517,1.792728594098748685680333923348
518,1.793118017014688039032413551389
519,1.793506691606830125189378626775
520,1.793894620778586086000571052872
521,1.794281807416846057358925965530
522,1.794668254392109574626056633472
523,1.795053964558613503260909912837
