Eigenstate,Potential Energy
1,0.500000000044585785987319207008566580
2,0.64623093794214744700327989985220526
3,0.73633761055986115897787523384927387
4,0.79966527959486810454181940244093945
5,0.8480465783701010495302613767365828
6,0.8870660016431171199337509651284879
7,0.9197208308534440349056780169140728
8,0.9477838523787496193859079643772696
9,0.9723835652257397075165619856900506
10,0.9942802235432622518624403950285051
11,1.0140093974725500190773713249500762
12,1.0319621823183795254870426366834222
13,1.0484327081466776999155392003323228
14,1.0636476726406919664545364481328905
15,1.0777854569151802899602202745768236
16,1.090988930386859549872705124098683
17,1.103374284235912127337625090398543
18,1.115037282412186965775061124245448
19,1.126057784739178356582578394817751
20,1.136503084547963251370317130034061
21,1.146430414758899096476965769518919
22,1.155888859040364467283440504542624
23,1.164920829745284110636463572051578
24,1.173563225311551406848779156669300
25,1.181848347057955001096816000380655
26,1.189804632991766746239444757176446
27,1.197457250771317694232864054739225
28,1.204828581065038061681220333542152
29,1.211938614753409271807510934488372
30,1.218805281770788604594571774997655
31,1.225444725238128485882941417723767
32,1.231871531459712860850914611468999
33,1.238098924047385292713422275939398
34,1.244138928685197160991219491720361
35,1.250002513708209267768692228747350
36,1.255699710635701281644280191158490
37,1.261239717994958900444536411789736
38,1.266630991141389870548427393971420
39,1.271881320282871351090202978598765
40,1.276997898520410327719694493857449
41,1.281987381400448506845059330151952
42,1.286855939219150519753266931233656
43,1.291609303112527921069145299907628
44,1.296252805798157450496163059678763
45,1.300791417696682457775248906544803
46,1.305229779048150108197206949533169
47,1.309572228544760373667471401784973
48,1.313822828924016450070000824069999
49,1.317985389901603697777640369056809
50,1.32206348876920148850086452826753
51,1.32606048893696537919267846666535
52,1.32997955666207181942667959432628
53,1.33382367617226748011826216607081
54,1.33759566336580416000201001569289
55,1.34129817824566473376577235060107
56,1.34493373622591103561626040242282
57,1.34850471843078560693152337603687
58,1.35201338109240205036446853335364
59,1.35546186414010478548602210224369
60,1.35885219906355449335417464627810
61,1.36218631612203130989029275091524
62,1.36546605096414682283055287338730
63,1.36869315071491403799955882361642
64,1.37186927958081200073102165099133
65,1.37499602401794691828757201674705
66,1.37807489750356429007743295686458
67,1.38110734494690426113990354349951
68,1.38409474677163625356291757766331
69,1.38703842269879625976917839101301
70,1.38993963525622191334305345476595
71,1.39279959303788174933954467344243
72,1.39561945373419682363638924383129
73,1.39840032695239985448712601881316
74,1.40114327684415820087985829690131
75,1.40384932455605589120358457606146
76,1.40651945051708035896843939926644
77,1.40915459657595714390821745410001
78,1.41175566800001001861318730183922
79,1.41432353534617718084892063710246
80,1.41685903621387602607230557662520
81,1.41936297688855967317936325838914
82,1.42183613388404696596581927720929
83,1.42427925539101893899168250796498
84,1.42669306263845044482492921573476
85,1.42907825117418636346567444452905
86,1.43143549207035594936274286943290
87,1.43376543305886140063484262784654
88,1.43606869960175335737259708930961
89,1.43834589590092253373628505634523
90,1.44059760585119347183479840174111
91,1.44282439394058495332062892398745
92,1.44502680610121330709648671728410
93,1.44720537051405259647359229227276
94,1.44936059837052274038345985119329
95,1.45149298459365546921608132762560
96,1.45360300852138619374083121976954
97,1.45569113455433552345701016840257
98,1.45775781277027129642595036306030
99,1.45980347950728851044779749854140
100,1.46182855791759820502969815710729
101,1.46383345849368703943789619332581
102,1.46581857956848373740500463022796
103,1.46778430779106065545083795685434
104,1.46973101857929146706502134746631
105,1.47165907655079288124229042286569
106,1.47356883593338754961805885096691
107,1.47546064095624723449624650250370
108,1.47733482622279607050696875129029
109,1.47919171706638515909768629582974
110,1.48103162988968731493617191682769
111,1.48285487248869492210527803670792
112,1.48466174436215442433600605864131
113,1.48645253700721543773122886434770
114,1.48822753420202371667628235181856
115,1.48998701227594675512978250400163
116,1.49173124036807247384019865718324
117,1.49346048067458973102667572550226
118,1.49517498868561836295708153310173
119,1.49687501341202274714017428661480
120,1.49856079760271703861362845860763
121,1.50023257795293196256545969381485
122,1.50189058530389413339373933577474
123,1.50353504483433667737743058757378
124,1.50516617624424225632251149048529
125,1.50678419393119002328456725305181
126,1.50838930715966284417142057656164
127,1.50998172022365054114299327445603
128,1.51156163260286232653580075322163
129,1.51312923911284952280130059171938
130,1.51468473004932128208010705240713
131,1.51622829132692061491605025426510
132,1.51776010461271306041348116247317
133,1.51928034745462854855667754712200
134,1.52078919340508572945218583378495
135,1.52228681214000993591199475732477
136,1.52377336957345225826496915055408
137,1.52524902796800390234093948706649
138,1.52671394604118638958076048028576
139,1.52816827906799605232034206408498
140,1.52961217897976583132840791919369
141,1.53104579445950282518755702148854
142,1.53246927103385196784160278436495
143,1.53388275116182756046237206578149
144,1.53528637432044720415277945043770
145,1.53668027708739849224328439336835
146,1.53806459322086095218854110795324
147,1.53943945373659752410466782235031
148,1.54080498698243090495446812696310
149,1.54216131871020655931364227230700
150,1.54350857214534603757365336467581
151,1.54484686805408651581378491122720
152,1.54617632480849685648944031667635
153,1.54749705844935913960786081852720
154,1.54880918274699956361000054567860
155,1.55011280926014695192778707950600
156,1.55140804739289673155608456040641
157,1.55269500444985143021811732237225
158,1.55397378568950951020137972654884
159,1.5552444943759662116726837799483
160,1.5565072318289927429852667183869
161,1.5577620974725523140725908440861
162,1.5590091888818124740033584925739
163,1.5602486018287086059705886591943
164,1.5614804303261132162832806945688
165,1.5627047666706596175518849143920
166,1.5639217014842705216296300077736
167,1.5651313237544387746029146325011
168,1.5663337208733029227180056761059
169,1.5675289786755626713078908278902
170,1.5687171814752739798092417404500
171,1.5698984121015639873034030999986
172,1.5710727519333036352135857760559
173,1.5722402809327733894623633179730
174,1.5734010776783579055775920972494
175,1.5745552193963036216534484837136
176,1.5757027819915689854932505823415
177,1.5768438400778005764454776066600
178,1.5779784670064642763030351223877
179,1.5791067348951579341855091005402
180,1.5802287146551364717773684132244
181,1.5813444760180720774820584560901
182,1.5824540875620771848515101774369
183,1.5835576167370132845388471750580
184,1.5846551298891098112844064901463
185,1.5857466922849149140324077691601
186,1.5868323681345990777712171514898
187,1.5879122206146353975688679512314
188,1.5889863118898719410917595570407
189,1.5900547031350199306681527376662
190,1.5911174545555733959445883627342
191,1.5921746254081795196575116748255
192,1.5932262740204760586928109570960
193,1.5942724578104141442502769767533
194,1.5953132333050798018642226058331
195,1.5963486561590321236070960421980
196,1.5973787811721717843434695208130
197,1.5984036623071542773227949056689
198,1.5994233527063620310565159048772
199,1.6004379047084482413005397772734
200,1.6014473698644663583086291038779
201,1.6024517989535962057407559939743
202,1.6034512419984801073431539754730
203,1.6044457482801796760867440927685
204,1.6054353663527648806313115711413
205,1.6064201440575453544322846640171
206,1.6074001285369569661928283628225
207,1.6083753662481095222918773874493
208,1.6093459029760098225985301983150
209,1.6103117838464658125058225361796
210,1.6112730533386833267885435724351
211,1.6122297552975627842474659417259
212,1.6131819329457060602673974223711
213,1.6141296288951379151835611323132
214,1.6150728851587569541450154438429
215,1.6160117431615153247063590088332
216,1.6169462437513411066040344522451
217,1.6178764272098073527587849405048
218,1.6188023332625567539535011906182
219,1.6197240010894852001215784435871
220,1.6206414693346967463725476829793
221,1.6215547761162278860444098608740
222,1.6224639590355583281467278694297
223,1.6233690551869018400251908293551
224,1.6242701011662922145446411891619
225,1.6251671330804669183323254322053
226,1.6260601865555519590213103628932
227,1.6269492967455566143391072839352
228,1.6278344983406798332406202485512
229,1.6287158255754354612272257942686
230,1.6295933122366009760879204128792
231,1.6304669916709915233242418930050
232,1.6313368967930696601705693425614
233,1.6322030600923857937057974632300
234,1.6330655136408654591132755228598
235,1.6339242890999366091799571632733
236,1.6347794177275066137941741530752
237,1.6356309303847925895597121956556
238,1.6364788575430067905278170899584
239,1.6373232292899024956171845666306
240,1.6381640753361825461293144392038
241,1.6390014250217748146965555322301
242,1.6398353073219774616023010762210
243,1.6406657508534780092359266961532
244,1.6414927838802479229058879608599
245,1.6423164343193170711113552503864
246,1.6431367297464305838272894501915
247,1.6439536974015894905767101184960
248,1.6447673641944827188323447646217
249,1.6455777567098054212510470167632
250,1.6463849012124740158494813494208
251,1.6471888236527358385361377229339
252,1.6479895496711762059024066679875
253,1.6487871046036279598789476721800
254,1.6495815134859831505179715263588
255,1.6503728010589107363335468412615
256,1.6511609917724803869708073720946
257,1.6519461097906987789512515796418
258,1.6527281789959548285567637524675
259,1.6535072229933806647066793195127
260,1.6542832651151287275357454464286
261,1.6550563284245653057345123600656
262,1.6558264357203852373877873452116
263,1.6565936095406466242022594903597
264,1.6573578721667310092855421221039
265,1.6581192456272275430132308609006
266,1.6588777517017433040256225784434
267,1.6596334119246429878954221948118
268,1.6603862475887179964752504599168
269,1.6611362797487891971330443655921
270,1.6618835292252390753098014713793
271,1.6626280166074825636452921848942
272,1.6633697622573705265261638319817
273,1.6641087863125333424598175353136
274,1.6648451086896617925822758467496
275,1.6655787490877291301683122757768
276,1.6663097269911526087872686735061
277,1.6670380616729019524073418503130
278,1.6677637721975465213866097485653
279,1.6684868774242526768093275096424
280,1.6692073960097234360276274550628
281,1.6699253464110883082258104378845
282,1.6706407468887408062702992491796
283,1.6713536155091268472861163133749
284,1.6720639701474811984898382956596
285,1.6727718284905187755351203083285
286,1.6734772080390768181106615613837
287,1.6741801261107130020772060811787
288,1.6748805998422558899155148079802
289,1.6755786461923123675447841057584
290,1.6762742819437328000348159674753
291,1.6769675237060317471485803792788
292,1.6776583879177671236176899382459
293,1.6783468908488817099218823564127
294,1.6790330486030020504840540155110
295,1.6797168771196968264221183060608
296,1.6803983921767022884153155476066
297,1.6810776093921046814065172695625
298,1.6817545442264889778896469709327
299,1.6824292119850507226350008376434
300,1.6831016278196727394536521399708
301,1.6837718067309671114341319225169
302,1.6844397635702845275801354496953
303,1.6851055130416881689735266220192
304,1.6857690697038957119886401062444
305,1.6864304479721908770806747852012
306,1.6870896621203037863639462925890
307,1.6877467262822573119512335312799
308,1.6884016544541868934988386479918
309,1.6890544604961299142411139770150
310,1.6897051581337849706773554753877
311,1.6903537609602446308326244138466
312,1.6910002824376991942428941564955
313,1.6916447358991128464315999604069
314,1.6922871345498740121698846720236
315,1.6929274914694192271831444678451
316,1.6935658196128319039644228071612
317,1.6942021318124135303198626066564
318,1.6948364407792326519109652297379
319,1.6954687591046487803758484192263
320,1.6960990992618112283085202038005
321,1.6967274736071367900510118582923
322,1.6973538943817623827511259967094
323,1.6979783737129761617461685362069
324,1.6986009236156260874339753428354
325,1.6992215559935077056352464911596
326,1.6998402826407293786951468780770
327,1.7004571152430577881037297125626
328,1.7010720653792408978520261181716
329,1.7016851445223133534069923026177
330,1.7022963640408807479942125643551
331,1.7029057352003841947896335316672
332,1.7035132691643462662688103953181
333,1.7041189769955986792759678130531
334,1.7047228696574899098440945559574
335,1.7053249580150770527066769902973
336,1.7059252528362979835603701082955
337,1.7065237647931266963339080369941
338,1.7071205044627128743236172953819
339,1.7077154823285017597121774810966
340,1.7083087087813404128207333155649
341,1.7089001941205660746822311349413
342,1.7094899485550791300960639245089
343,1.7100779822044003089639721360964
344,1.7106643050997121196259881790140
345,1.7112489271848863335427308979051
346,1.7118318583174949961311726869671
347,1.7124131082698085291252283150675
348,1.7129926867297777361990889343141
349,1.7135706033020032567910552379594
350,1.7141468675086900104838068306158
351,1.7147214887905887195591469008134
352,1.7152944765079241921083093051108
353,1.7158658399413096500929875925011
354,1.7164355882926485168499372411810
355,1.7170037306860240293405771428721
356,1.7175702761685748849540415703821
357,1.7181352337113601619261801854953
358,1.7186986122102127574028457115455
359,1.7192604204865770883129984269405
360,1.7198206672883399929988392998307
361,1.7203793612906465785004170948228
362,1.7209365110967074951247614063575
363,1.7214921252385922339432571001230
364,1.7220462121780134712420335032241
365,1.7225987803071006963261203274103
366,1.7231498379491620003792392595917
367,1.7236993933594369184243967766806
368,1.7242474547258371131499970952242
369,1.7247940301696795331826377846680
370,1.7253391277464077590193526349038
371,1.7258827554463043899670309826957
372,1.7264249211951934286069475084854
373,1.7269656328551326295404834231261
374,1.7275048982251001209363901284206
375,1.7280427250416659904914842024321
376,1.7285791209796602920625404874927
377,1.7291140936528292622250578909186
378,1.7296476506144829142130029875440
379,1.7301797993581358490877998210832
380,1.7307105473181380409469350348044
381,1.7312399018702984716553311951835
382,1.7317678703324987333166196688909
383,1.7322944599653012731950193395302
384,1.7328196779725472448377340376401
385,1.7333435315019475867024465164180
386,1.7338660276456679869934885134843
387,1.7343871734409034840938667690672
388,1.7349069758704466394425321530289
389,1.7354254418632499575949206692320
390,1.7359425782949797426236612225581
391,1.7364583919885617078531256732844
392,1.7369728897147219473573201732728
393,1.7374860781925207427604507689596
394,1.7379979640898777864919338958080
395,1.7385085540240916784220105872972
396,1.7390178545623533468021250906313
397,1.7395258722222530234735598578439
398,1.7400326134722807815365219513519
399,1.7405380847323192013285093529325
400,1.7410422923741324647294512936555
401,1.7415452427218479267730772349260
402,1.7420469420524309098426353325062
403,1.7425473965961555412528572814819
404,1.7430466125370695273722543332378
405,1.7435445960134503297947291216004
406,1.7440413531182588526624456010732
407,1.7445368898995877579263291880937
408,1.7450312123611019118070738919006
409,1.7455243264624738236040333553654
410,1.7460162381198165914010432511927
411,1.7465069532061086147604431522845
412,1.7469964775516136570684349582576
413,1.7474848169442973366660017092040
414,1.7479719771302364706902597034467
415,1.7484579638140255556646533411799
416,1.7489427826591768145537008262618
417,1.7494264392885166588478518312264
418,1.7499089392845757290009194673809
419,1.7503902881899767918154773808406
420,1.7508704915078154767854669514320
421,1.7513495547020378036660384756333
422,1.7518274831978137829662398528922
423,1.7523042823819049255945636673640
424,1.7527799576030292754755805509724
425,1.7532545141722203445927515977373
426,1.7537279573631835573943688174825
427,1.7542002924126476892915526103777
428,1.7546715245207113130340593054629
429,1.7551416588511881654556848235211
430,1.7556107005319442967966163038526
431,1.7560786546552345063623381544968
432,1.7565455262780352141410677871815
433,1.7570113204223691063846568682490
434,1.7574760420756326532013843279160
435,1.7579396961909143219458767323477
436,1.7584022876873113875119659245891
437,1.7588638214502435010137435121966
438,1.7593243023317619990375451153826
439,1.7597837351508556348882192673234
440,1.7602421246937538031668964554672
441,1.7606994757142244176554724515918
442,1.7611557929338700062831176182318
443,1.7616110810424216709957618424260
444,1.7620653446980255320321110367448
445,1.7625185885275309873985468243182
446,1.7629708171267718120255207141357
447,1.7634220350608472659133552162682
448,1.7638722468643964296087599181709
449,1.7643214570418736076596695315600
450,1.7647696700678169526336319071329
451,1.7652168903871178129433304646473
452,1.7656631224152836459779710007034
453,1.7661083705387002397643834184316
454,1.7665526391148896322642994233753
455,1.7669959324727673523390848862550
456,1.7674382549128942795409070488450
457,1.7678796107077278186061153999879
458,1.7683200041018687847117312306227
459,1.7687594393123065135942433290092
460,1.7691979205286618390456968848595
461,1.7696354519134257876921533125237
462,1.7700720376021972042849129686394
463,1.7705076817039179114606027884038
464,1.7709423883011035650646256643818
465,1.7713761614500741739654904686053
466,1.7718090051811814152535776113393
467,1.7722409234990320255390041175571
468,1.7726719203827122841938081435545
469,1.7731019997860060654440230813609
470,1.7735311656376139840620418690925
471,1.7739594218413679019833775118492
472,1.7743867722764450936802751571531
473,1.7748132207975774214180066969791
474,1.7752387712352630246165977497159
475,1.7756634273959694463079304894872
476,1.7760871930623407107297296436849
477,1.7765100719933986852963058584846
478,1.7769320679247434031819165523941
479,1.7773531845687512361529578543127
480,1.7777734256147713124864165220594
481,1.7781927947293187311114049834409
482,1.7786112955562681410289391606438
483,1.7790289317170430662763963507743
484,1.7794457068108037964707045709326
485,1.7798616244146353200883439237663
486,1.7802766880837298855621050208764
487,1.7806909013515710392713629064994
488,1.7811042677301137372110071977632
489,1.7815167907099637587438931742054
490,1.7819284737605542857902829010209
491,1.7823393203303217819731939205008
492,1.7827493338468797601450889774108
493,1.7831585177171904135490406384298
494,1.7835668753277352049038870165647
495,1.7839744100446826061632234716386
496,1.7843811252140562336311829642772
497,1.7847870241618990642187564117407
498,1.7851921101944376783687527472391
499,1.7855963865982440272450852754528
500,1.785999856640396854941910364183
501,1.786402523568638522014641922444
502,1.786804390611534685777125836402
503,1.787205460978628305766140916209
504,1.787605737860595818488835478536
505,1.788005224429398329199742308125
506,1.788403923838433551086059454550
507,1.788801839222686340183567903895
508,1.789198973698877466283189482978
509,1.789595330365608851028158762848
510,1.789990912303511326752444306482
511,1.790385722575388147460876674746
512,1.790779764226358152480373841921
513,1.791173040283997198861552632571
514,1.791565553758478539349485613020
515,1.791957307642712520587167177731
516,1.792348304912483812319814112478
517,1.792738548526587242782080247535
518,1.793128041426964026111924829389
519,1.793516786538835164200827915745
520,1.793904786770834880473149133660
521,1.794292045015140881314470996014
522,1.794678564147605721866866219338
523,1.795064347027885713871473206909
