Eigenstate,Potential Energy
1,0.500000001158010989575724552542663564
2,0.64623094521025484593353464702548347
3,0.73633763191047100668948826821358382
4,0.79966532406897783929074998108406377
5,0.8480466554154846878354998720557721
6,0.8870661208774154611598504877115383
7,0.9197210019776128576018236847384737
8,0.9477840851416475400726350986297840
9,0.9723838694082908220021629949421358
10,0.9942806089509993172381524096704424
11,1.0140098739321049408285008363720029
12,1.0319627596759875229365482949503716
13,1.0484333962677799765428651452466258
14,1.0636484814101728765936266857787559
15,1.0777863962379896391342293378878664
16,1.090990010188879214970684490058744
17,1.103375514464984040978510732544386
18,1.115038673039251788179569816134499
19,1.126059345759492899804355534755467
20,1.136504825982375991677638528728987
21,1.146432346655170103729456767561944
22,1.155890991474520541687016116752781
23,1.164923172823002836045017094269813
24,1.173565789169569783211582075889690
25,1.181851141865499653451820733115436
26,1.189807668952003637350110375851876
27,1.197460538122819927126227601822650
28,1.204832130083270833563834715487573
29,1.211942435752231388930292287802006
30,1.218809385103970226548579540230330
31,1.225449121300884963294235993290144
32,1.231876230690254680252772645647810
33,1.238103936928484258919127003481567
34,1.244144265745769039356597787826762
35,1.250008185524913182623898097526337
36,1.255705727834556227455673552023065
37,1.261246091252977772297123270861808
38,1.266637731188231462794047353274993
39,1.271888437902510809349285777694943
40,1.277005404552828571255096250931190
41,1.281995286743341166715849155784791
42,1.286864254829656963927421993252993
43,1.291618040008980961463522479898265
44,1.296261975061854349219695567900549
45,1.300801030473677871070392230547001
46,1.305239846551071627020836388039550
47,1.309582762054647339774718347945363
48,1.313833839792182746070509204514227
49,1.317996889551525229088534488907094
50,1.32207548869842909456394035271464
51,1.32607300071906393087485254785408
52,1.32999259194858627927317747395281
53,1.33383724669471672216999276098248
54,1.33760978093770336629310463313290
55,1.34131285476457720544848849664631
56,1.34494898367553027797658737883567
57,1.34852054888304856941543856220483
58,1.35202980670963442518242663458832
59,1.35547889717719929143647935396543
60,1.35886985187018309526759206049200
61,1.36220460114489234856869625106739
62,1.36548498074924805559424008433055
63,1.36871273790989261598764992052823
64,1.37188953693729243597602255930898
65,1.37501696439393812134125976870284
66,1.37809653386589678763416893146714
67,1.38112969037370873273525757228674
68,1.38411781445486455705549693358122
69,1.38706222594678614698705815941893
70,1.38996418749630667002501012048630
71,1.39282490781904602739155071423703
72,1.39564554472977996877007516469254
73,1.39842720796284806859034267403554
74,1.40117096179982691600497427502875
75,1.40387782752006377092466457372083
76,1.40654878568821638308369385945849
77,1.40918477829164227412152075029684
78,1.41178671073931498596412783778190
79,1.41435545373289798032894562095088
80,1.41689184501966875013909442817907
81,1.41939669103613636381672375443916
82,1.42187076845043421459848955082995
83,1.42431482561088101502799142728344
84,1.42672958390747878692754416765725
85,1.42911573905255732293227168798816
86,1.43147396228625873229195914707579
87,1.43380490151209821496399965245827
88,1.43610918236741383246599037376756
89,1.43838740923313454408091582249038
90,1.44064016618695256265312990116850
91,1.44286801790366463463091577217219
92,1.44507151050615855405516643418961
93,1.44725117237025896781011433523925
94,1.44940751488640360351711365860152
95,1.45154103318089990033145179752571
96,1.45365220679931020382040158387277
97,1.45574150035432934716300327683883
98,1.45780936414034556989960890965574
99,1.45985623471672225673701103732733
100,1.46188253546169164206032281921276
101,1.46388867709862232541951593012322
102,1.46587505819629687242655513678208
103,1.46784206564472786597438154651605
104,1.46979007510793351224464044247495
105,1.47171945145500083665058895846318
106,1.47363054917067374527045836591442
107,1.47552371274662515022563683449424
108,1.47739927705449312297721138055939
109,1.47925756770169245128354573900426
110,1.48109890137095056097102521873894
111,1.48292358614445090828321607220948
112,1.48473192181341752099372009724344
113,1.48652420017391883701678198881179
114,1.48830070530962023813655484808114
115,1.49006171386217423492552360224601
116,1.49180749528988893453246302142459
117,1.49353831211528371765481835144863
118,1.49525442016210002786633400409280
119,1.49695606878230147112315711005218
120,1.49864350107357158980488039680608
121,1.50031695408777941757538413093425
122,1.50197665903086401786344219277205
123,1.50362284145455702591969547272155
124,1.50525572144034454520175585380862
125,1.50687551377604019370571691370071
126,1.50848242812532591022432333138761
127,1.51007666919059656489652511648425
128,1.51165843686942184409068733795492
129,1.51322792640492681995038863093354
130,1.51478532853037424728290249986994
131,1.51633082960821624127763847647284
132,1.51786461176386802807355361166997
133,1.51938685301444469508962221092818
134,1.52089772739269060950753683510168
135,1.52239740506631308319819391275251
136,1.52388605245292819412811372373979
137,1.52536383233081338661808334388895
138,1.52683090394564788217975630808289
139,1.52828742311341984925876456522002
140,1.52973354231966385797409605694366
141,1.53116941081518761342927795733212
142,1.53259517470843891432406595024296
143,1.53401097705465516120382684274174
144,1.53541695794193058845572407898734
145,1.53681325457433223736789063104419
146,1.53820000135218785158927669355681
147,1.53957732994966070793508046798804
148,1.54094536938972747400922805016086
149,1.54230424611666169469867549198976
150,1.54365408406612739035710957030439
151,1.54499500473297956616847685593913
152,1.54632712723686286278630373120758
153,1.54765056838569827741169522805987
154,1.54896544273714288523887666795277
155,1.55027186265810188239338465383623
156,1.55156993838237195948234012329626
157,1.55285977806648825617319092126472
158,1.55414148784384798363476891021620
159,1.5554151718771757251030929104361
160,1.5566809324093981626641017910816
161,1.5579388698129882144446282510238
162,1.5591890826378396138316174781130
163,1.5604316676577284421429955253427
164,1.5616667199154180026718900357974
165,1.5628943327664574867563037371457
166,1.5641145979217269034089860043282
167,1.5653276054887775731784599170231
168,1.5665334440120130631764818813815
169,1.5677322005117579409680291319757
170,1.5689239605222565421490015176523
171,1.5701088081286445428998658395124
172,1.5712868260029339559569756568375
173,1.5724580954390498695761522657255
174,1.5736226963869578670405616156812
175,1.5747807074859193946779825292823
176,1.5759322060969082699102992858244
177,1.5770772683342252913213018726645
178,1.5782159690963440382316675210374
179,1.5793483820960184858940598468860
180,1.5804745798896878298189104866809
181,1.5815946339062059001124122816050
182,1.5827086144749278995944124638526
183,1.5838165908531828818797618190718
184,1.5849186312531619309547339788997
185,1.5860148028682499498087855573112
186,1.5871051718988285343509300447776
187,1.5881898035775806800854270434355
188,1.5892687621943201778943983072922
189,1.5903421111203773600063463511001
190,1.5914099128325653269503675798379
191,1.5924722289367549511616424870508
192,1.5935291201910847531267439229024
193,1.5945806465288343599173199201430
194,1.5956268670809860414077950287934
195,1.5966678401985042209944718226611
196,1.5977036234743594943297886243275
197,1.5987342737653253234257448214228
198,1.5997598472135763909389435096534
199,1.6007803992681173900573386747862
200,1.6017959847060733468048070441722
201,1.6028066576538709287622724867740
202,1.6038124716083440308850109910713
203,1.6048134794577957723401612036834
204,1.6058097335030517035834120573194
205,1.6068012854785392330130636584666
206,1.6077881865734333662101805469991
207,1.6087704874529039208858658183148
208,1.6097482382795101575019170802672
209,1.6107214887347829426442442185510
210,1.6116902880410432249076811970106
211,1.6126546849835046580690962554763
212,1.6136147279327145785414261692317
213,1.6145704648673855459909937924679
214,1.6155219433976844906669491413069
215,1.6164692107890354079655556486086
216,1.6174123139865114338535750151976
217,1.6183512996398878184879302664098
218,1.6192862141294386044964276931223
219,1.6202171035925610602319270299717
220,1.6211440139513288445806151669048
221,1.6220669909410688041912459920869
222,1.6229860801400850712652083319100
223,1.6239013270006410259974037142552
224,1.6248127768813429128175718417955
225,1.6257204750810694707711677699634
226,1.6266244668746075165149379980572
227,1.6275247975501748431521817039323
228,1.6284215124490232391412967813148
229,1.6293146570073402653347029032210
230,1.6302042768006889780054875037777
231,1.6310904175912477793040221308957
232,1.6319731253781503702660543063556
233,1.6328524464512432853125267549325
234,1.6337284274486368780116398443461
235,1.6346011154184448215062512471488
236,1.6354705578851715665625444245327
237,1.6363368029212555246861265880614
238,1.6371998992243358270866638010095
239,1.6380598962008849526534631716856
240,1.6389168440569271464735912135712
241,1.6397707938966574237311740955222
242,1.6406217978298810759230095785020
243,1.6414699090893174550342111095996
244,1.6423151821589510685445367556374
245,1.6431576729147795359630820090927
246,1.6439974387794961417152738528415
247,1.6448345388928645986067871785502
248,1.6456690342998075794956828197364
249,1.6465009881585193887164825289597
250,1.6473304659712821075041829716195
251,1.6481575358410680056848735301016
252,1.6489822687575068140970155172111
253,1.6498047389163800091212155108469
254,1.6506250240774895096739257087231
255,1.6514432059665759743473376946203
256,1.6522593707279437896630214887118
257,1.6530736094356404891565677776259
258,1.6538860186724572049680156870952
259,1.6546967011877581761537690048934
260,1.6555057666472475209433283203452
261,1.6563133324903569707220962788113
262,1.6571195249141070199802791221657
263,1.6579244800061957874650969992524
264,1.6587283450549283089810085646175
265,1.6595312800696504095078987997013
266,1.6603334595529653157218855979227
267,1.6611350745756328743804350719456
268,1.6619363352172916934923799594711
269,1.6627374734518413592806475933148
270,1.6635387465765783884045224923205
271,1.6643404413105731838168301964050
272,1.6651428787223942167801812407873
273,1.6659464201931860719670676060766
274,1.6667514746824884669960785848657
275,1.6675585076471853836363099347366
276,1.6683680520774389887074081237239
277,1.6691807222705015890734849725227
278,1.6699972311834597084429850859987
279,1.6708184125191272209951073565997
280,1.6716452491516081156313560275205
281,1.6724789101626034083048353847255
282,1.6733207997542031687766699345595
283,1.6741726228236703384296752893000
284,1.6750364743613490368082475527691
285,1.6759149636421701193576514159648
286,1.6768113904669484258234771302822
287,1.6777300014236798671878502466138
288,1.6786763730907507801167644084666
289,1.6796580040933078144803999971095
290,1.6806852658366114253644730719620
291,1.6817730016123223612432606636836
292,1.6829433732433576964667129411805
293,1.6842313024474789568735113208365
294,1.6856958772530554947483094628166
295,1.6874474437415683662207541369564
296,1.6897246653106946756481211321450
297,1.6931871737812054190443507134724
298,1.7008918497240503927074198771077
