Eigenstate,Potential Energy
1,0.500000000028759111676716122515585031
2,0.64623093783883903505021322793223705
3,0.73633761025640044225518467101136906
4,0.79966527896279239096366650514689201
5,0.8480465772752128351413614747735762
6,0.8870659999488679200300177055000008
7,0.9197208284221810003220793282258792
8,0.9477838490722352723388171853599860
9,0.9723835609053934771648850935051147
10,0.9942802180702829333396842733351613
11,1.0140093907079821765270405708062039
12,1.0319621741231513296109602780885036
13,1.0484326983816232141614658473282293
14,1.0636476611665644831656579542218074
15,1.0777854435926602669248747011608437
16,1.090988915076559154892442517043003
17,1.103374266798377576126470643649096
18,1.115037262707899379775084789048919
19,1.126057762628553600970851904160115
20,1.136503059891351053407410877965208
21,1.146430387416581645027643213007427
22,1.155888828872554631004354529327224
23,1.164920796612123370920097616149301
24,1.173563189073107573931155433261134
25,1.181848307574219762850796359495696
26,1.189804590122653086051141199070102
27,1.197457204376657205083390926638126
28,1.204828531004578176899147281570187
29,1.211938560886810428111582299790285
30,1.218805223957621349472443052141480
31,1.225444663337870538683930453831017
32,1.231871465331746134956956837301767
33,1.238098853550992884616296557962813
34,1.244138853679560310921002561816652
35,1.250002434052404295598807398038930
36,1.255699626188696501077729246159974
37,1.261239628615611513916339065939866
38,1.266630896688442846825930379340081
39,1.271881220614950287189445489898884
40,1.276997793496020296462646540909388
41,1.281987270877970891144328506950772
42,1.286855823056839834516205260006878
43,1.291609181168508623453319452610400
44,1.296252677930420739116056302785386
45,1.300791283763083061350313541968809
46,1.305229638906403064039812204405090
47,1.309572082052437796332546645389171
48,1.313822675938544290423473096646471
49,1.317985230280258492686088097487223
50,1.32206332236910710129833725872193
51,1.32606031561508973104096789220259
52,1.32997937627522361165139881353144
53,1.33382348857709290757390232458618
54,1.33759546841878361549393871398569
55,1.34129797580310950353533096201696
56,1.34493352614395998587615019890569
57,1.34850450056540186142211736179914
58,1.35201315529936965888717858054178
59,1.35546163027502538335714451268774
60,1.35885195698184395171137289970202
61,1.36218606567891637677397086799316
62,1.36546579201466175495348961670625
63,1.36869288311389722311033693431122
64,1.37186900318290257046976179302889
65,1.37499573867758135142609414207800
66,1.37807460307497300603031104876271
67,1.38110704128410820362771342170290
68,1.38409443372844346430429326205957
69,1.38703810012879844207397089857143
70,1.38993930301279098547506509354012
71,1.39279925097416638751361140564306
72,1.39561910170311899451136760373113
73,1.39839996480665133701316583852308
74,1.40114290443619709735556761334930
75,1.40384894173810312739593752014678
76,1.40651905714111617314585875347756
77,1.40915419249371756463483716184716
78,1.41175525306298333115007657376303
79,1.41432310940560038200593996174955
80,1.41685859912073126735226771707938
81,1.41936252849357069205419313741734
82,1.42183567403767550512257277050580
83,1.42427878394346115338450202611180
84,1.42669257943963329636728238189184
85,1.42907775607376400319551308114819
86,1.43143498491770608691166162322262
87,1.43376491370308166083062390183492
88,1.43606816789165762380304386431712
89,1.43834535168503727910069211353038
90,1.44059704897775407490789655492878
91,1.44282382425753200235236268853477
92,1.44502622345618888946952011828279
93,1.44720477475439657443896865590146
94,1.44935998934326901269343122762975
95,1.45149236214552821847165454489830
96,1.45360237249879611927019344378808
97,1.45569048480337605953951854184085
98,1.45775714913671481567503630845832
99,1.45980280183658251216461226424852
100,1.46182786605486148833802024135881
101,1.46383275228370586100930006798559
102,1.46581785885570795358193162021447
103,1.46778357241959984857379443658218
104,1.46973026839291105580858117747875
105,1.47165831139291021476329179362444
106,1.47356805564706798531782089036132
107,1.47545984538420019919721260033879
108,1.47733401520737110484273241517760
109,1.47919089044956794491382761413298
110,1.48103078751309568549788076588867
111,1.48285401419357485490622325100108
112,1.48466086998937601630137829141289
113,1.48645164639726886260639306089962
114,1.48822662719501516439084477241638
115,1.48998608871159435292548580113600
116,1.49173030008570218894928139795749
117,1.49345952351313125468584375982324
118,1.49517401448360097554072015268972
119,1.49687402200757116419461027872567
120,1.49855978883354723757273348226535
121,1.50023155165634698992623978699577
122,1.50188954131677989212882703388667
123,1.50353398299315769435970971703725
124,1.50516509638503742953543223632760
125,1.50678309588956834858993442170929
126,1.50838819077079912140469625220492
127,1.50998058532228105930438210155149
128,1.51156047902328052784360290511719
129,1.51312806668890164537216218364668
130,1.51468353861440198099906850696299
131,1.51622708071396856145733811870182
132,1.51775887465420651917106260636999
133,1.51927909798258093224190941188881
134,1.52078792425104113111376627004471
135,1.52228552313503863833149102639836
136,1.52377206054814622027940172202069
137,1.52524769875247222184169264053440
138,1.52671259646505074293623129616138
139,1.52816690896038610996765111863096
140,1.52961078816931464927733594682470
141,1.53104438277434221217800220244259
142,1.53246783830160782789349885478989
143,1.53388129720961521055506461874511
144,1.53528489897486666676851731501123
145,1.53667878017452976250746590479954
146,1.53806307456625923933700632930547
147,1.53943791316528846700615237829354
148,1.54080342431890576141401295400350
149,1.54215973377841736888047236636726
150,1.54350696476870075757487612679239
151,1.54484523805544413033250018814590
152,1.54617467201016245800390865589717
153,1.54749538267307898300571236249282
154,1.54880748381395609228911886149687
155,1.55011108699095379569301252243593
156,1.55140630160759367601826947430305
157,1.55269323496789935739979089767399
158,1.55397199232978531005047949678929
159,1.5552426769567576641832862328494
160,1.5565053901679933706217615619430
161,1.5577602313868562041908107856434
162,1.5590072981879090709597500319652
163,1.5602466863424774726076640067350
164,1.5614784898628187644768961637358
165,1.5627028010449458075029634473170
166,1.5639197105101555295803222966312
167,1.5651293072453096286542523923113
168,1.5663316786419101064231138497127
169,1.5675269105340146947121114071301
170,1.5687150872350319176053026172229
171,1.5698962915734359837670529420509
172,1.5710706049274393755817750810992
173,1.5722381072586585374133087408563
174,1.5733988771448085064686804843749
175,1.5745529918114604711699430787734
176,1.5757005271628919633575401743609
177,1.5768415578120629448333389381332
178,1.5779761571097469426102340015679
179,1.5791043971728436777846817023441
180,1.5802263489119041344017193642572
181,1.5813420820578907168692359952730
182,1.5824516651882001912773693143599
183,1.5835551657519724598675373194633
184,1.5846526500947094101575492264785
185,1.5857441834822256468166540371287
186,1.5868298301239520748799774899745
187,1.5879096531956161347702216127555
188,1.5889837148613141254109269868760
189,1.5900520762949993464891899705541
190,1.5911147977014017109122284045328
191,1.5921719383363980499762221240182
192,1.5932235565268494934162610529099
193,1.5942697096899242281504960401232
194,1.5953104543519189764658798981456
195,1.5963458461665971259681206436780
196,1.5973759399330572031594519845413
197,1.5984007896131460659281479441181
198,1.5994204483484309768916147917150
199,1.6004349684767433914095123718899
200,1.6014444015483084004284432681930
201,1.6024487983414708045378614645583
202,1.6034482088780311953494376850599
203,1.6044426824382026988824541513262
204,1.6054322675751999958177743895176
205,1.6064170121294705839330508971581
206,1.6073969632425813014169889948583
207,1.6083721673707659816889550684062
208,1.6093426702981484611293691933714
209,1.6103085171496466825493282081574
210,1.6112697524035693899993604741406
211,1.6122264199039127738745155100627
212,1.6131785628723672934387648757353
213,1.6141262239200390546575829845804
214,1.6150694450589007190230337060711
215,1.6160082677129711495969470919956
216,1.6169427327292377487236404455914
217,1.6178728803883254464484258572962
218,1.6187987504149213120857422015022
219,1.6197203819879580618667097006516
220,1.6206378137505689707876087002009
221,1.6215510838198120909426998749351
222,1.6224602297961809737005415066602
223,1.6233652887728954565483121285436
224,1.6242662973449875738956922826983
225,1.6251632916181851483742361954088
226,1.6260563072175966005660873554403
227,1.6269453792962056200016529987229
228,1.6278305425431775076187463468231
229,1.6287118311919843418193858962448
230,1.6295892790283536543538065655736
231,1.6304629193980424052869640080138
232,1.6313327852144466659534048101494
233,1.6321989089660419953894644470563
234,1.6330613227236706562935999903573
235,1.6339200581476688415990750322682
236,1.6347751464948436104117714530881
237,1.6356266186253031534242038896411
238,1.6364745050091421188003708741107
239,1.6373188357329874340949056819229
240,1.6381596405064067776063599367537
241,1.6389969486681839804954652945605
242,1.6398307891924642156005667752788
243,1.6406611906947730037049624215917
244,1.6414881814379107254732817701650
245,1.6423117893377270121486713022747
246,1.6431320419687775335590666461560
247,1.6439489665698645651982193084598
248,1.6447625900494689149160818464656
249,1.6455729389910681777140513160656
250,1.6463800396583517027456325959409
251,1.6471839180003301719295862339447
252,1.6479845996563425880701682735757
253,1.6487821099609657440825243003799
254,1.6495764739488258295751985209138
255,1.6503677163593160542139300746142
256,1.6511558616412203726284683899723
257,1.6519409339572497016014332508536
258,1.6527229571884870735928627091475
259,1.6535019549387485294456211157471
260,1.6542779505388601359710131109972
261,1.6550509670508514414665925346868
262,1.6558210272720700938926250693516
263,1.6565881537392164715892744955956
264,1.6573523687323037766867065935660
265,1.6581136942785421157355019405511
266,1.6588721521561487345891475987128
267,1.6596277638980876200702210188387
268,1.6603805507957385014186134774623
269,1.6611305339024995207203503367047
270,1.6618777340373192957407515208295
271,1.6626221717881676583975073597283
272,1.6633638675154390477171284050185
273,1.6641028413552959996679310571812
274,1.6648391132229499421665306194098
275,1.6655727028158831701156888046134
276,1.6663036296170102781050637489106
277,1.6670319128977865340672141205916
278,1.6677575717212549478152470232670
279,1.6684806249450435369091239848538
280,1.6692010912243048826990719821395
281,1.6699189890146058653516648896485
282,1.6706343365747650741091483808308
283,1.6713471519696411052112698707089
284,1.6720574530728689039967042584630
285,1.6727652575695509584278917567704
286,1.6734705829588993687663228740862
287,1.6741734465568338526724731336321
288,1.6748738654985320874886502827075
289,1.6755718567409370377513936825291
290,1.6762674370652220004434966015647
291,1.6769606230792112089082829807469
292,1.6776514312197588803152320877532
293,1.6783398777550906124341036306352
294,1.6790259787871021666149096495253
295,1.6797097502536177241007652809848
296,1.6803912079306152012164535355910
297,1.6810703674344085551400454010377
298,1.6817472442237963969914186110583
299,1.6824218536021737150753614529489
300,1.6830942107196084588654045480598
301,1.6837643305748833951456928239964
302,1.6844322280175053292240424629774
303,1.6850979177496788643247462514631
304,1.6857614143282482766704896311272
305,1.6864227321666089347599521653323
306,1.6870818855365875260405921129102
307,1.6877388885702882729303755090859
308,1.6883937552619126166165480757368
309,1.6890464994695484578971623670608
310,1.6896971349169292902115821902362
311,1.6903456751951668197630403593542
312,1.6909921337644545858658402075229
313,1.6916365239557439742657901180695
314,1.6922788589723944277080014946412
315,1.6929191518917971733950179081790
316,1.6935574156669738429777774959349
317,1.6941936631281475236843308455305
318,1.6948279069842915918319208626982
319,1.6954601598246534702845290247330
320,1.6960904341202533111146116194031
321,1.6967187422253615224038144507205
322,1.6973450963789512536140713684225
323,1.6979695087061293535685003408276
324,1.6985919912195447781826991282787
325,1.6992125558207762099275983964164
326,1.6998312143016971262510527896334
327,1.7004479783458211377143250662285
328,1.7010628595296247850388128420167
329,1.7016758693238527699219874519054
330,1.7022870190948020512893987348349
331,1.7028963201055862455595847935533
332,1.7035037835173813921467526818379
333,1.7041094203906534627390522891354
334,1.7047132416863657983594256936517
335,1.7053152582671707891237896353791
336,1.7059154808985818547316365754304
337,1.7065139202501285979174425729441
338,1.7071105868964961896980430939854
339,1.7077054913186450509055756360215
340,1.7082986439049169213295276766276
341,1.7088900549521230300283688417869
342,1.7094797346666168639428693891743
343,1.7100676931653511725835363312684
344,1.7106539404769192024822446240945
345,1.7112384865425819807252271024363
346,1.7118213412172791223452856034334
347,1.7124025142706267269152147970476
348,1.7129820153878991760495320345496
349,1.7135598541709983767219320183735
350,1.7141360401394079927233492278399
351,1.7147105827311347518467437240017
352,1.7152834913036365111483193198730
353,1.7158547751347363646466914112575
354,1.7164244434235242079209667325074
355,1.7169925052912461248751362995117
356,1.7175589697821798064428516444043
357,1.7181238458644992402615847159912
358,1.7186871424311279153082449304371
359,1.7192488683005762866271721469814
360,1.7198090322177724380607925654974
361,1.7203676428548776878445212020535
362,1.7209247088120936186581300159593
363,1.7214802386184551277397943803049
364,1.7220342407326145210491505829492
365,1.7225867235436148878412440673112
366,1.7231376953716516333133645367713
367,1.7236871644688250613305326799060
368,1.7242351390198807959525180691336
369,1.7247816271429426743031978318339
370,1.7253266368902338239524729529918
371,1.7258701762487887781155979553968
372,1.7264122531411555851450669940627
373,1.7269528754260878790267209526882
374,1.7274920508992312193559839856240
375,1.7280297872937943923603024376203
376,1.7285660922812171291804980286049
377,1.7291009734718260306182356770283
378,1.7296344384154818657578682054304
379,1.7301664946022200842615666422181
380,1.7306971494628812990995029639125
381,1.7312264103697346151481837936049
382,1.7317542846370909218238789209200
383,1.7322807795219108244099827571213
384,1.7328059022244021777762759705850
385,1.7333296598886108437416327873952
386,1.7338520596030053307299204422505
387,1.7343731084010510650511695736073
388,1.7348928132617782306026544033795
389,1.7354111811103438516702882142685
390,1.7359282188185853079309200524562
391,1.7364439332055655985902697135225
392,1.7369583310381139640267502172050
393,1.7374714190313593384209234830064
394,1.7379832038492552144602627676065
395,1.7384936921050987769843230123055
396,1.7390028903620439564304182747007
397,1.7395108051336080319794722495815
398,1.7400174428841717925293198978362
399,1.7405228100294718212774882047149
400,1.7410269129370892038641859214386
401,1.7415297579269307089858411003313
402,1.7420313512717031866881450141475
403,1.7425316991973840050702661552292
404,1.7430308078836854184811695677615
405,1.7435286834645103326455595727455
406,1.7440253320284055757456878547409
407,1.7445207596190097921709618183755
408,1.7450149722354934621211725750258
409,1.7455079758329939081325188978672
410,1.7459997763230478029966483351269
411,1.7464903795740154390828895450597
412,1.7469797914115003416449125030941
413,1.7474680176187653051639573338808
414,1.7479550639371412765661712432922
415,1.7484409360664333692694650836948
416,1.7489256396653204376849310109900
417,1.7494091803517510606526314730132
418,1.7498915637033330970408926318497
419,1.7503727952577210920137532282359
420,1.7508528805129965158811501019123
421,1.7513318249280447877091686691595
422,1.7518096339229283652858230892737
423,1.7522863128792537375756717150856
424,1.7527618671405359333813746098269
425,1.7532363020125569255653098585549
426,1.7537096227637215376640196978715
427,1.7541818346254083375189275802857
428,1.7546529427923155316034504496307
429,1.7551229524228057724266370670044
430,1.7555918686392427411119501596100
431,1.7560596965283270087972510517211
432,1.7565264411414283263625859709229
433,1.7569921074949096803743125117369
434,1.7574567005704542131747308497044
435,1.7579202253153828307826876164755
436,1.7583826866429703995864659238282
437,1.7588440894327586931897284015317
438,1.7593044385308650714653458890785
439,1.7597637387502875731119741939910
440,1.7602219948712074929167449661519
441,1.7606792116412866035675545949218
442,1.7611353937759625856500954583083
443,1.7615905459587423135153378554975
444,1.7620446728414876163770510519013
445,1.7624977790447028452873891118041
446,1.7629498691578152703284148545415
447,1.7634009477394554771765714133195
448,1.7638510193177309812301615798696
449,1.7643000883905008997918005286960
450,1.7647481594256438347354693502336
451,1.7651952368613264687395278711268
452,1.7656413251062657164215847157903
453,1.7660864285399901734339484862952
454,1.7665305515130972524556126044559
455,1.7669736983475096299398181025238
456,1.7674158733367263006027048434527
457,1.7678570807460729353467620989057
458,1.7682973248129479385013082086121
459,1.7687366097470667182915350924821
460,1.7691749397307038128642389042445
461,1.7696123189189307215813080179074
462,1.7700487514398526546170452784902
463,1.7704842413948428046154934613006
464,1.7709187928587723012995722818429
465,1.7713524098802398177518752597431
466,1.7717850964817979590505635205655
467,1.7722168566601757137602500537025
468,1.7726476943865019839050449459943
469,1.7730776136065226701043031738007
470,1.7735066182408188363974634494948
471,1.7739347121850202218490868107193
472,1.7743618993100183965304771815872
473,1.7747881834621749127647650957497
474,1.7752135684635319556134361029381
475,1.7756380581120144153434657295420
476,1.7760616561816358956636682881496
477,1.7764843664226989907112391671467
478,1.7769061925619945067599915993064
479,1.7773271383029985180166246250981
480,1.7777472073260676510700629547054
481,1.7781664032886311488497657454244
482,1.7785847298253832828631159856702
483,1.7790021905484714936888795217407
484,1.7794187890476830794640717672944
485,1.7798345288906319092199732078877
486,1.7802494136229397458401509989019
487,1.7806634467684190274033629667085
488,1.7810766318292517033756571325752
489,1.7814889722861673537303651074104
490,1.7819004715986184540185884334707
491,1.7823111332049549205668033937796
492,1.7827209605225965238827961519710
493,1.7831299569482031451702956013290
494,1.7835381258578439698796168945946
495,1.7839454706071638106805349454174
496,1.7843519945315498041621246300767
497,1.7847577009462941666643405900030
498,1.7851625931467569543770397984314
499,1.7855666744085263249064392139022
500,1.785969947987578430658378725035
501,1.786372417120432689925207636466
502,1.786774085024309890700806806508
503,1.787174954897284595192547702400
504,1.787575029918439688704487231309
505,1.787974313248015920193112715884
506,1.788372808027562164414403905949
507,1.788770517380084253516520840123
508,1.789167444410192017863868939084
509,1.789563592204242766802152310653
510,1.789958963830487262420822199729
511,1.790353562339211417205167219419
512,1.790747390762877615589530240942
513,1.791140452116264274961948609751
514,1.791532749396604322400250128942
515,1.791924285583722961250335388267
516,1.792315063640172937754660766238
517,1.792705086511368382336406317446
518,1.793094357125719010795596241096
519,1.793482878394761467231982442637
520,1.793870653213290665568845496230
521,1.794257684459487924779852053564
522,1.794643974995050173892688021058
523,1.795029527665316663801084232206
