Eigenstate,Potential Energy
1,0.500000000209604131867514002754597328
2,0.64623093901931108377877037195215361
3,0.73633761372398745139838464209694790
4,0.79966528618551036734124302651960265
5,0.8480465897867257491931615457358279
6,0.8870660193098628770209819060130031
7,0.9197208562061645531528715533809890
8,0.9477838868596355580584153290855634
9,0.9723836102808412918335654604625897
10,0.9942802806212535042217475630070247
11,1.0140094680240775243716025138686221
12,1.0319622677957091020122927987512340
13,1.0484328100035032875191264460147158
14,1.0636477923320379078014004107357872
15,1.0777855958973599914933456944507137
16,1.090989090117469595659177030228877
17,1.103374466173849493018562336464190
18,1.115037488017681762942679288490245
19,1.126058015473837314719423929932621
20,1.136503341874820814127609212284024
21,1.146430700142474044702785429513512
22,1.155889173946720641648847745355124
23,1.164921175642094238479894879082504
24,1.173563603668163326534052841422430
25,1.181848759345459774139437812990610
26,1.189805080683068284341786927657567
27,1.197457735341203625121369604815788
28,1.204829103990251627089810903910946
29,1.211939177512722101518996204641710
30,1.218805885845074247757338202093864
31,1.225445372110436608679160136246628
32,1.231872222615344040633905331937576
33,1.238099660973966354793228427500235
34,1.244139712872757016629678889817529
35,1.250003346649255221580582710236434
36,1.255700593825295784165200483785382
37,1.261240652930796727614551348215313
38,1.266631979323875716638955672119296
39,1.271882363215197825444285313734051
40,1.276998997708636348788731248190611
41,1.281988538353578089544981654770474
42,1.286857155449211954250146575271971
43,1.291610580134653342831022324725966
44,1.296254145130662802886157934271466
45,1.300792820861147849667478758669804
46,1.305231247569500570115975939127932
47,1.309573763951347016816271311388357
48,1.313824432747698033358963101348131
49,1.317987063677828608597667974401196
50,1.32206523403709014354837372401144
51,1.32606230723939305213558834275386
52,1.32998144954575190263096784488741
53,1.33382564518783518803565672932959
54,1.33759771006790068216097838708441
55,1.34130030419302184561613116633246
56,1.34493594298143617575840819646924
57,1.34850700756164742951842323474308
58,1.35201575417011646170313013407926
59,1.35546432274062147408629126887860
60,1.35885474476734396288126758930238
61,1.36218895051417242467431453711847
62,1.36546877563441487577396138096114
63,1.36869596725786935090308064513991
64,1.37187218959588906723174568289068
65,1.37499902910954409977168792263328
66,1.37807799928113407509360070692655
67,1.38111054502504409900004643700610
68,1.38409804677017997297532117464981
69,1.38704182424290608350587845795476
70,1.38994313997648108009697782781200
71,1.39280320257038775408287740710020
72,1.39562316972065528794400486524725
73,1.39840415104021903844414929489491
74,1.40114721068654416834597485680692
75,1.40385336981210834036251882029385
76,1.40652360885188913024628849126741
77,1.40915886966069941750260402595726
78,1.41176005751204821403354653995254
79,1.41432804296915757102933304049311
80,1.41686366363782807877992404821627
81,1.41936772580999613260700703778132
82,1.42184100600606468756336399355407
83,1.42428425242340049076032394022391
84,1.42669818629776648847014980840372
85,1.42908350318389882897893836614524
86,1.43144087416092201677889287249056
87,1.43377094696783830289267913520440
88,1.43607434707390401838875892547685
89,1.43835167868832205598887671693811
90,1.44060352571333648794230402375040
91,1.44283045264449385629514378480470
92,1.44503300542154737414564316388398
93,1.44721171223321802142568482833084
94,1.44936708427878359001388721095644
95,1.45149961648924557895990886303311
96,1.45360978821062201848727462982276
97,1.45569806385172995933715684132973
98,1.45776489349864848972288561665565
99,1.45981071349789966998253755343204
100,1.46183594701023843460261144579313
101,1.46384100453681320713761761572458
102,1.46582628441933339883242476135420
103,1.46779217331577204814616515050686
104,1.46973904665302459367205053330873
105,1.47166726905785169919249371672832
106,1.47357719476734328537285868554795
107,1.47546916802006284064502085585413
108,1.47734352342895184428296587765242
109,1.47920058633700554114398619311061
110,1.48104067315666888742884832196903
111,1.48286409169383562562102846905587
112,1.48467114145728401313798975539819
113,1.48646211395432719343760353586976
114,1.48823729297340744057332742478094
115,1.48999695485432305969487591135138
116,1.49174136874672839434831115178324
117,1.49347079685751567842906132089808
118,1.49518549468764643954259749329757
119,1.49688571125896644681621659006289
120,1.49857168933151235397854750391716
121,1.50024366561177992128457033638369
122,1.50190187095240478673797895217956
123,1.50354653054367456413861753376877
124,1.50517786409727336567942133580784
125,1.50679608602263028056341029705701
126,1.50840140559622814381942886596704
127,1.50999402712420835161677438371732
128,1.51157415009858489219773815444760
129,1.51314196934736868831506113111681
130,1.51469767517888496520345188608374
131,1.51624145352055095400312104876238
132,1.51777348605236626336345130023276
133,1.51929395033535647037465619104648
134,1.52080301993519920603096573299895
135,1.52230086454124390209061810933239
136,1.52378765008113267867876738226287
137,1.52526353883121654404567353353153
138,1.52672868952294746590918206444767
139,1.52818325744542476791677053451772
140,1.52962739454425885880392613983740
141,1.53106124951691074434277206342675
142,1.53248496790465769892319827227451
143,1.53389869218132682344561724804536
144,1.53530256183893103658101747970413
145,1.53669671347033785870326760851409
146,1.53808128084909347906294448305542
147,1.53945639500651639381390234742417
148,1.54082218430617594448288981928106
149,1.54217877451585755841315218721561
150,1.54352628887711833264343258103430
151,1.54486484817252887607785624181107
152,1.54619457079069170972547836815112
153,1.54751557278912517532880346370353
154,1.54882796795509675225932503380310
155,1.55013186786448401932392086680845
156,1.55142738193874112850989255834617
157,1.55271461750004183794884561036642
158,1.55399367982467092289549817695608
159,1.5552646721947276382602627994264
160,1.5565276959482075709593797742459
161,1.5577828505275213789383996969570
162,1.5590302335265098787252648580137
163,1.5602699407360103355808405703354
164,1.5615020661880285936306992112022
165,1.5627267021985656469991366128379
166,1.5639439394091491683561530350694
167,1.5651538668271172280377554414705
168,1.5663565718646968935125158130757
169,1.5675521403769227721623912988807
170,1.5687406566984352413919576832894
171,1.5699222036791985614446040371448
172,1.5710968627191767385220440589986
173,1.5722647138020025414962687685105
174,1.5734258355276755167107237007585
175,1.5745803051443229868051888310708
176,1.5757281985790537409432303522013
177,1.5768695904679376780285469820861
178,1.5780045541851405583776925055972
179,1.5791331618712403098933417910748
180,1.5802554844607558362577202416134
181,1.5813715917089109768787086524191
182,1.5824815522176613151478325454529
183,1.5835854334610068854840532386882
184,1.5846833018096150219262838855932
185,1.5857752225547751576543233596138
186,1.5868612599317065453393079135310
187,1.5879414771422427001375543846086
188,1.5890159363769080029846421966586
189,1.5900846988364101966519770210770
190,1.5911478247525644270480804705521
191,1.5922053734086680537516926758820
192,1.5932574031593426134487810144699
193,1.5943039714498612416239364091186
194,1.5953451348349748948256266159464
195,1.5963809489972553074381157868245
196,1.5974114687649683764680805107581
197,1.5984367481294923513148093248829
198,1.5994568402622949921885033927830
199,1.6004717975314825327573524196739
200,1.6014816715179343889881519177749
201,1.6024865130310345924062577459676
202,1.6034863721240133257799571705400
203,1.6044812981089092178429496326295
204,1.6054713395711640138996534007578
205,1.6064565443838595896518064951804
206,1.6074369597216103290204610019564
207,1.6084126320741167387139081042344
208,1.6093836072593945231215231044270
209,1.6103499304366848645910070943237
210,1.6113116461190574069678851737809
211,1.6122687981857133036923986512324
212,1.6132214298939985599674010877879
213,1.6141695838911320493386498402550
214,1.6151133022256631828795445022554
215,1.6160526263586584397789074383426
216,1.6169875971746307164169702453137
217,1.6179182549922154556638100621675
218,1.6188446395746025316104470991611
219,1.6197667901397271654957089836770
220,1.6206847453702323838534779121339
221,1.6215985434232009241406865546716
222,1.6225082219396737882546298890039
223,1.6234138180539490078901250029672
224,1.6243153684026756842337461543354
225,1.6252129091337458618164824501551
226,1.6261064759149877778263954597479
227,1.6269961039426691331743137916399
228,1.6278818279498121990480188664239
229,1.6287636822143279147216395795510
230,1.6296417005669736665736042291334
231,1.6305159163991365413910951730682
232,1.6313863626704524667828390393022
233,1.6322530719162562282096001233687
234,1.6331160762548785128082195766555
235,1.6339754073947831553216691660556
236,1.6348310966415542892311770052012
237,1.6356831749047370276568405745348
238,1.6365316727045334095906089002204
239,1.6373766201783590517197225836715
240,1.6382180470872626640562631396113
241,1.6390559828222127156467577166601
242,1.6398904564102541113687751408037
243,1.6407214965205389157838736449864
244,1.6415491314702328176101833356280
245,1.6423733892303017134029034175507
246,1.6431942974311809346347912386710
247,1.6440118833683285057351799276144
248,1.6448261740076700195776783074319
249,1.6456371959909301050228262188896
250,1.6464449756408608769028318583453
251,1.6472495389663652743113695545807
252,1.6480509116675180917149616450274
253,1.6488491191404897813165489992509
254,1.6496441864823726899140873959295
255,1.6504361384959136168821664733376
256,1.6512249996941527854436061907269
257,1.6520107943049756255746499021396
258,1.6527935462755738204195724401403
259,1.6535732792768224271054950460430
260,1.6543500167075734659284166699669
261,1.6551237816988662994649551409278
262,1.6558945971180595350949136813649
263,1.6566624855728833098061713326579
264,1.6574274694154174167029395435841
265,1.6581895707459938072645174825888
266,1.6589488114170256461956194462966
267,1.6597052130367661414806288155640
268,1.6604587969729971930269230689800
269,1.6612095843566521397851345540011
270,1.6619575960853683397604058163313
271,1.6627028528269788774901765159641
272,1.6634453750229373894805671741167
273,1.6641851828916834620131299447674
274,1.6649222964319458219810031911483
275,1.6656567354259872083484837823554
276,1.6663885194427892149918544338922
277,1.6671176678411846017287625815679
278,1.6678441997729288413905303523066
279,1.6685681341857224197364499131961
280,1.6692894898261759958523711964348
281,1.6700082852427263270802201651898
282,1.6707245387885004704452527847297
283,1.6714382686241314892100802075899
284,1.6721494927205228377810337477664
285,1.6728582288615682494310475797913
286,1.6735644946468231693332032332566
287,1.6742683074941328105023757807030
288,1.6749696846422132533040012689708
289,1.6756686431531902560794574821845
290,1.6763651999150965295180132057767
291,1.6770593716443253364637897217831
292,1.6777511748880433234786805220200
293,1.6784406260265665120398251826289
294,1.6791277412756945091066194936556
295,1.6798125366890050477647768637895
296,1.6804950281601164678450042254135
297,1.6811752314249080933603584467910
298,1.6818531620637078494848698592223
299,1.6825288355034439487381433087968
300,1.6832022670197624246858032787246
301,1.6838734717391109532356366149174
302,1.6845424646407910840297937307642
303,1.6852092605589760856687547929172
304,1.6858738741846980139030607445441
305,1.6865363200678054640144713021089
306,1.6871966126188913044132304024108
307,1.6878547661111876083923647775043
308,1.6885107946824352986513544113414
309,1.6891647123367246312941726479963
310,1.6898165329463068931850632659700
311,1.6904662702533809476538496899487
312,1.6911139378718521831683312573502
313,1.6917595492890653006733307381426
314,1.6924031178675127883347264093603
315,1.6930446568465184493832157616332
316,1.6936841793438974063770372345774
317,1.6943216983575901698825425826144
318,1.6949572267672761740025679359944
319,1.6955907773359639733201152527667
320,1.6962223627115581574737140299829
321,1.6968519954284069592520914959057
322,1.6974796879088267296796657313997
323,1.6981054524646068553511769374383
324,1.6987293012984941586411403245518
325,1.6993512465056586086174092617541
326,1.6999713000751386481923346474814
327,1.7005894738912690291400307012578
328,1.7012057797350884177368182979128
329,1.7018202292857318222097295782217
330,1.7024328341218043529288645631254
331,1.7030436057227378361912234833766
332,1.7036525554701314282936938206924
333,1.7042596946490766971917463202466
334,1.7048650344494654479720298691379
335,1.7054685859672847028760813371465
336,1.7060703602058949934975076826106
337,1.7066703680772949409135980849073
338,1.7072686204033732902145224023777
339,1.7078651279171445758513895288218
340,1.7084599012639746255395188708798
341,1.7090529510027917374165553909202
342,1.7096442876072861535906061778947
343,1.7102339214670975990235057607228
344,1.7108218628889910159830025848223
345,1.7114081220980224555372275638145
346,1.7119927092386927489252579601087
347,1.7125756343760926783597194196594
348,1.7131569074970366196528276788640
349,1.7137365385111883690010051599899
350,1.7143145372521768707917719118783
351,1.7148909134787041159727987400694
352,1.7154656768756450830825899813495
353,1.7160388370551392042160870201205
354,1.7166104035576749768821086638452
355,1.7171803858531683024776469978823
356,1.7177487933420329860794631144363
357,1.7183156353562468713839924754373
358,1.7188809211604131000074247344099
359,1.7194446599528124964234174946210
360,1.7200068608664562840513119467301
361,1.7205675329701311570577725034084
362,1.7211266852694434818080983570685
363,1.7216843267078575292923855517503
364,1.7222404661677330822210495225159
365,1.7227951124713609876573354869867
366,1.7233482743819958828589437339957
367,1.7238999606048893527218262530936
368,1.7244501797883206911500160283470
369,1.7249989405246303006530278580507
370,1.7255462513512518642054419537749
371,1.7260921207517465837317167345540
372,1.7266365571568389039657788487143
373,1.7271795689454541731481326468848
374,1.7277211644457630573997329137773
375,1.7282613519362239337197550545627
376,1.7288001396466352775584907377919
377,1.7293375357591904217890461936675
378,1.7298735484095384715106807031206
379,1.7304081856878538626640172163691
380,1.7309414556399120022808725606082
381,1.7314733662681745816846516952874
382,1.7320039255328824335218976062069
383,1.7325331413531613989852638796777
384,1.7330610216081370019321675049719
385,1.7335875741380624278924327299538
386,1.7341128067454613897187203577656
387,1.7346367271962826014881654536409
388,1.7351593432210708218481984406269
389,1.7356806625161562212039986598131
390,1.7362006927448604003221110832321
391,1.7367194415387205780862858760055
392,1.7372369164987368238727419724467
393,1.7377531251966411455299582637291
394,1.7382680751761884264502074948928
395,1.7387817739544735606641734084117
396,1.7392942290232760136821662203858
397,1.7398054478504331061220378276207
398,1.7403154378812437915590500041079
399,1.7408242065399033602090876130040
400,1.7413317612309753435109123921092
401,1.7418381093408987602304761099212
402,1.7423432582395336654595725726133
403,1.7428472152817501722798910126013
404,1.7433499878090613302292186207339
405,1.7438515831512999687775207829458
406,1.7443520086283484199907201758848
407,1.7448512715519212158839917653557
408,1.7453493792274014284352768961820
409,1.7458463389557368772956316284818
410,1.7463421580354022971986145242856
411,1.7468368437644255315639715385165
412,1.7473304034424853870810906355357
413,1.7478228443730865443701524677798
414,1.7483141738658125480505810249233
415,1.7488043992386660643031899145032
416,1.7492935278204980674767493541061
417,1.7497815669535343888117214332086
418,1.7502685239960027551161991076664
419,1.7507544063248709698145861392636
420,1.7512392213386980338228076889705
421,1.7517229764606094503622694339640
422,1.7522056791414038018293047139477
423,1.7526873368627967974021794199721
424,1.7531679571408153688287401742959
425,1.7536475475293478082972192117548
426,1.7541261156238638743516866492289
427,1.7546036690653134333925781038806
428,1.7550802155442155616891406332508
429,1.7555557628049548306785290919759
430,1.7560303186502914248411846571448
431,1.7565038909461074449285677739102
432,1.7569764876264025507857991607654
433,1.7574481166985515447023662406593
434,1.7579187862488536279984680842945
435,1.7583885044483812856108245737398
436,1.7588572795591584646170564080737
437,1.7593251199406897587285285541981
438,1.7597920340568650848906146585875
439,1.7602580304832681762696644958743
440,1.7607231179149199502589832315339
441,1.7611873051744864708032763347331
442,1.7616506012209904530340910578412
443,1.7621130151590644478779053911614
444,1.7625745562487822340142744918612
445,1.7630352339161234216555868058934
446,1.7634950577641121202353142042876
447,1.7639540375846912537739704151773
448,1.7644121833713852279230004648873
449,1.7648695053328238881212764855603
450,1.7653260139071912411544430509258
451,1.7657817197776846658174558230238
452,1.7662366338890633463767241859618
453,1.7666907674653860968460927062738
454,1.7671441320290388960250163304922
455,1.7675967394211702928933416863367
456,1.7680486018236563627328176738206
457,1.7684997317827395486010938099927
458,1.7689501422344922758501167189115
459,1.7693998465322790143799548223547
460,1.7698488584764063277833647222251
461,1.7702971923461697507869588486000
462,1.7707448629345354893128866350578
463,1.7711918855857172041661666677712
464,1.7716382762359381122547124103896
465,1.7720840514577089331971141112951
466,1.7725292285079845451841245396932
467,1.7729738253806089503084339573400
468,1.7734178608635147335427501207128
469,1.7738613546011887710568572829096
470,1.7743043271629975432859689495539
471,1.7747468001180285383978325327366
472,1.7751887961172021396948682189677
473,1.7756303389835007782687862146127
474,1.7760714538112914230035655073524
475,1.7765121670758346468369753113545
476,1.7769525067542548267951431250894
477,1.7773925024594076183190685736576
478,1.7778321855883098881711318735043
479,1.7782715894870430840529202926186
480,1.7787107496343382134879937944056
481,1.7791497038463973909491326018001
482,1.7795884925059243288022987977515
483,1.7800271588188174581268181407452
484,1.7804657491025698900575504953038
485,1.7809043131111162275418449576965
486,1.7813429044016960876552623143761
487,1.7817815807503248249971607161166
488,1.7822204046236700336003073092597
489,1.7826594437166244608537216692814
490,1.7830987715666722085027747259547
491,1.7835384682583725535755547436173
492,1.7839786212340244277075822063718
493,1.7844193262299767169219524885236
494,1.7848606883622919441956357358486
495,1.7853028233907892417648849525130
496,1.7857458591972159976860946207246
497,1.7861899375218292092591651365809
498,1.7866352160136062298928493638002
499,1.7870818706633946247098745008096
500,1.787530098707640654871231299905
501,1.787980122114355159843293269073
502,1.788432191794773673913730204716
503,1.788886592726615736690548514477
504,1.789343650232187243701054096267
505,1.789803737732806048610755530122
506,1.790267286409163476590849114962
507,1.790734797348579831833974811642
508,1.791206856975015485309848715755
509,1.791684156867581627753062462267
510,1.792167519527765547924496657908
511,1.792657932334559451940695740204
512,1.793156592962133026146755068518
513,1.793664971150034605440382422998
514,1.794184894300762442862507507259
515,1.794718668635546046179509312916
516,1.795269254876999720056704022900
517,1.795840530199368465288132850307
518,1.796437691707272508797327117766
519,1.797067902231328835384441510023
520,1.797741372722903250288999726410
521,1.798473281730103119788929261117
522,1.799287429096596972611522667554
523,1.800223859070320946865126581269
