Eigenstate,Potential Energy
1,0.500000000012992374956577397412722950
2,0.64623093773592206957903459760579712
3,0.73633760995409050351774702459017236
4,0.79966527833311628609725735434101212
5,0.8480465761844871263515020009813305
6,0.8870659982610709214360851957679840
7,0.9197208260001956547493291111243347
8,0.9477838457783679013465900246226200
9,0.9723835566016153852302780053905134
10,0.9942802126183533872916500195799835
11,1.0140093839695155420866080179796774
12,1.0319621659596557514510023153201097
13,1.0484326886545238043576479897534131
14,1.0636476497372175944046224315516463
15,1.0777854303223623875138981626663613
16,1.090988899826552425643114110928824
17,1.103374249429853109997915476618837
18,1.115037243081999108174636164042237
19,1.126057740606371105310718237129792
20,1.136503035333931680998955757085375
21,1.146430360184922109452754072346668
22,1.155888798827602234008338604448354
23,1.164920763614774941622559889325542
24,1.173563152984208193575063430707952
25,1.181848268254561324496294701713309
26,1.189804547432972725546538444494309
27,1.197457158177635630405991501974028
28,1.204828481156837916327308979416178
29,1.211938507250914012862275768044486
30,1.218805166394069442878630598211353
31,1.225444601707100021328734034925751
32,1.231871399494128153175687174571772
33,1.238098783366830868247412539258809
34,1.244138779009087965008700929626268
35,1.250002354755783569834130079006801
36,1.255699542126015540047286623776318
37,1.261239539646882590660634932595139
38,1.266630802673600281757896974766005
39,1.271881121413848354061986208486189
40,1.276997688968431116782009516623403
41,1.281987160883582318189108185277556
42,1.286855707455253327928128035566214
43,1.291609059819237115206930200935402
44,1.296252550692886491543105154430490
45,1.300791150496615517785640445469339
46,1.305229499470236692564618816440194
47,1.309571936305709927014799918411436
48,1.313822523740292946391080292769316
49,1.317985071489420215314340298549542
50,1.32206315684451476974717098348998
51,1.32606014321547037633843614883750
52,1.32997919685919622548629856502020
53,1.33382330200316624593180102335963
54,1.33759527454535399724610767991972
55,1.34129777448845860406875718376371
56,1.34493331724625262583427615933146
57,1.34850428394268379060990802398637
58,1.35201293080956533538001312031860
59,1.35546139777593574784083413717712
60,1.35885171633114419706979868089671
61,1.36218581673415371293137638285752
62,1.36546553463325316897008843694498
63,1.36869261715312723452252042795331
64,1.37186872849992098185964858307848
65,1.37499545512940099419926893874841
66,1.37807431051846748137546222033410
67,1.38110673957600961862717793719755
68,1.38409412272534016316037439251120
69,1.38703777968713273241206984412100
70,1.38993897298885685968141513901088
71,1.39279891122410723906216434156747
72,1.39561875208292532923177350150078
73,1.39839960517215847924914022312864
74,1.40114253464308289096070672532977
75,1.40384856164188563151188994112488
76,1.40651866659715135270587710003105
77,1.40915379135719697553392659503677
78,1.41175484118893180002132918061369
79,1.41432268664887368054110385246924
80,1.41685816533601378110324612057684
81,1.41936208353537308365080787673250
82,1.42183521776033237184071700377347
83,1.42427831620112867899767918794706
84,1.42669210008628689721343403267458
85,1.42907726496319596839002436210336
86,1.43143448190352321263649999368609
87,1.43376439863870287862860837959299
88,1.43606764063031162280541464668715
89,1.43834481207976012211532286544453
90,1.44059649688138680829469850745748
91,1.44282325952271825961164919759403
92,1.44502564593537248846841158879596
93,1.44720418429981910820018017700630
94,1.44935938580696743367012867517268
95,1.45149174537933241623136658872430
96,1.45360174235432649151019875926116
97,1.45568984113204107635539402183397
98,1.45775649178970857700355628821033
99,1.45980213066488229832148504032982
100,1.46182718090922530357043590501089
101,1.46383205301466996998264307435949
102,1.46581714531358441071944717093654
103,1.46778284445447402016748742422279
104,1.46972952585463913481895131083704
105,1.47165755413111672822508447970030
106,1.47356728351114329426835725640155
107,1.47545905822329799104332848678249
108,1.47733321287040587808184931988132
109,1.47919007278521248612407501052767
110,1.48102995436977853851172858070266
111,1.48285316541947778208150129611419
112,1.48466000543243145180302710484450
113,1.48645076590515735761179407297375
114,1.48822573061516282413100106568602
115,1.48998517589117026547380263227615
116,1.49172937087161584566917614293036
117,1.49345857775202996224787229548915
118,1.49517305202186725941932927040932
119,1.49687304269132016355416403504570
120,1.49855879250862409145183184369081
121,1.50023053816832421462885820449917
122,1.50188851051095474973023188942015
123,1.50353293471454955223456256409170
124,1.50516403047838511081494492743120
125,1.50678201219932747345436011289843
126,1.50838708914113943911688479909582
127,1.50997946559708377088958372981706
128,1.51155934104613559932007777640191
129,1.51312691030310511143665737437630
130,1.51468236366295323907056527050863
131,1.51622588703956765598197412779644
132,1.51775766209925141609037356875105
133,1.51927786638916478352622352247852
134,1.52078667346094952926169793243123
135,1.52228425298974686073600505545659
136,1.52377077088881646336038334136440
137,1.52524638941995082484418380819139
138,1.52671126729986540129297750288335
139,1.52816555980274307812393261338862
140,1.52960941885909593287544710446796
141,1.53104299315110274949811991192524
142,1.53246642820457266044695106514736
143,1.53387986647767664272550625283867
144,1.53528344744658141439565780158453
145,1.53667730768811609030756080899878
146,1.53806158095959408705346265364947
147,1.53943639827590456418301679266039
148,1.54080188798398873068444653018971
149,1.54215817583480281766152553232732
150,1.54350538505287135805930279214603
151,1.54484363640352668766753348586572
152,1.54617304825792496654629634196466
153,1.54749373665592767054150056735942
154,1.54880581536693245210608741645578
155,1.55010939594873160639280254315693
156,1.55140458780447600895449819900525
157,1.55269149823781557162782727667775
158,1.55397023250628803467368021195351
159,1.5552408938730197679797776968955
160,1.5565035836568049188350796398797
161,1.5577584012806214023669098930135
162,1.5590054443186431957120955147586
163,1.5602448085418037891914504402681
164,1.5614765879619654310524483505139
165,1.5627008748747427659676117154635
166,1.5639177599010313828473816652485
167,1.5651273320272885042567397424247
168,1.5663296786446085063189523709812
169,1.5675248855866383311670241523197
170,1.5687130371663725350283227406403
171,1.5698942162118681663730960338756
172,1.5710685041009173407546059718708
173,1.5722359807947129146414760909915
174,1.5733967248705431017260468971821
175,1.5745508135535490166115447838778
176,1.5756983227475748522006223869332
177,1.5768393270651439512925198693696
178,1.5779738998565899267547425849903
179,1.5791021132383692751847559454918
180,1.5802240381205864304302868436507
181,1.5813397442337539055239940414271
182,1.5824493001548152183875098204668
183,1.5835527733324536505482982545503
184,1.5846502301117110803748744028904
185,1.5857417357579386989230855637815
186,1.5868273544801005769821791948894
187,1.5879071494534538837871978762049
188,1.5889811828416211936812579409945
189,1.5900495158180786117843255611193
190,1.5911122085870753697120292799002
191,1.5921693204040041138617810049045
192,1.5932209095952382684339320971298
193,1.5942670335774547770001282904739
194,1.5953077488764555633649497222074
195,1.5963431111455056440426051537108
196,1.5973731751832015842109447635225
197,1.5983979949508846724256869998155
198,1.5994176235896129760356633543522
199,1.6004321134367051111141081359770
200,1.6014415160418696670666694631040
201,1.6024458821829312622945233431046
202,1.6034452618811666070234574839591
203,1.6044397044162612279806323440727
204,1.6054292583408984697800607999791
205,1.6064139714949907383284583663060
206,1.6073938910195660049479160981548
207,1.6083690633703154418404954794301
208,1.6093395343308164102989345293923
209,1.6103053490254365444906085560740
210,1.6112665519319304264133508101938
211,1.6122231868937362109790992195078
212,1.6131752971319824283470380456648
213,1.6141229252572093413936338814314
214,1.6150661132808198340027381214413
215,1.6160049026262590363999167068404
216,1.6169393341399366419810244764487
217,1.6178694481018958746700103383917
218,1.6187952842362380792483230149229
219,1.6197168817213062075843051760200
220,1.6206342791996397088826669072248
221,1.6215475147876987262360676172773
222,1.6224566260853747968363976849537
223,1.6233616501852816166689092143692
224,1.6242626236818409289792643721532
225,1.6251595826801660930477710528097
226,1.6260525628047468712033676513746
227,1.6269415992079440769153613690293
228,1.6278267265782958941537836268583
229,1.6287079791486430201531557713514
230,1.6295853907040773178074792634728
231,1.6304589945897157669503313143967
232,1.6313288237183101234240999270243
233,1.6321949105776872714259394809545
234,1.6330572872380364151793252798442
235,1.6339159853590362810140716829751
236,1.6347710361968320286057263341041
237,1.6356224706108654914836653417199
238,1.6364703190705604778010277358232
239,1.6373146116618685669280589423615
240,1.6381553780936775552669254180841
241,1.6389926477040868326171841484629
242,1.6398264494665525450223538759189
243,1.6406568119959065748502541413907
244,1.6414837635542510263227694651607
245,1.6423073320567325895847794346543
246,1.6431275450771993018585677207598
247,1.6439444298537410874477997862369
248,1.6447580132941216571234929888688
249,1.6455683219810967353856968614527
250,1.6463753821776289996995221382367
251,1.6471792198319976311104658614629
252,1.6479798605828052741318659118305
253,1.6487773297638874775004631888775
254,1.6495716524091242720499314492672
255,1.6503628532571577651246756421266
256,1.6511509567560158362933112356638
257,1.6519359870676483250990119202755
258,1.6527179680723721548981495370217
259,1.6534969233732321956303539667780
260,1.6542728763002782512170577182426
261,1.6550458499147584846382867914601
262,1.6558158670132340054123049909642
263,1.6565829501316134693574654457531
264,1.6573471215491131407866761957931
265,1.6581084032921409416593079177558
266,1.6588668171381066547201603240631
267,1.6596223846191614931546878664371
268,1.6603751270258670697565614941691
269,1.6611250654107980348038019264210
270,1.6618722205920741060646982781424
271,1.6626166131568307741667887419255
272,1.6633582634646226621697388277900
273,1.6640971916507669817331908411664
274,1.6648334176296242941735706033918
275,1.6655669610978204512656749982518
276,1.6662978415374079934175519138972
277,1.6670260782189744885088199961294
278,1.6677516902046895653160186743554
279,1.6684746963513021439695292711583
280,1.6691951153130799562876532674885
281,1.6699129655446992447908269388578
282,1.6706282653040821366439517623070
283,1.6713410326551849049530314901652
284,1.6720512854707342739310175956909
285,1.6727590414349185751729641915813
286,1.6734643180460297797657096285838
287,1.6741671326190614655026573904417
288,1.6748675022882591209593166727747
289,1.6755654440096274344734920436500
290,1.6762609745633953005367951759754
291,1.6769541105564363845174966359193
292,1.6776448684246481306006452134215
293,1.6783332644352931186996412954693
294,1.6790193146892978072330948568337
295,1.6797030351235107488916421753188
296,1.6803844415129278649337955377503
297,1.6810635494728747097150899679916
298,1.6817403744611550421812625342745
299,1.6824149317801625071599945605773
300,1.6830872365789571770335855795968
301,1.6837573038553073652071401231504
302,1.6844251484576988042815705892730
303,1.6850907850873083620368473562072
304,1.6857542282999458727313774262635
305,1.6864154925079655122203839935856
306,1.6870745919821459800896714390130
307,1.6877315408535366707544746208765
308,1.6883863531152773119483249551039
309,1.6890390426243871598637536170010
310,1.6896896231035240860875573163484
311,1.6903381081427171512299535325985
312,1.6909845112010701783759859856149
313,1.6916288456084377191048373955564
314,1.6922711245670752163466545789017
315,1.6929113611532626837162320521096
316,1.6935495683189032769619889082898
317,1.6941857588930942961314376892889
318,1.6948199455836759696943822348688
319,1.6954521409787551621821675276261
320,1.6960823575482040065975335364200
321,1.6967106076451373805256465824787
322,1.6973369035073653403734191829043
323,1.6979612572588240277727689546071
324,1.6985836809109840252833252578220
325,1.6992041863642379233720881724304
326,1.6998227854092653358924645382689
327,1.7004394897283781848146677723334
328,1.7010543108968434433979563160844
329,1.7016672603841883126595305649793
330,1.7022783495554842628020668720228
331,1.7028875896726113781722528713863
332,1.7034949918955040669703398207603
333,1.7041005672833785142440498486554
334,1.7047043267959400621685851574949
335,1.7053062812945748325231312756332
336,1.7059064415435216493935710945825
337,1.7065048182110271343251251308239
338,1.7071014218704850327548822864776
339,1.7076962630015558362090058184933
340,1.7082893519912727915826849299264
341,1.7088806991351300110580700960702
342,1.7094703146381551797874138610316
343,1.7100582086159664991082854748826
344,1.7106443910958138589754636862261
345,1.7112288720176060589213458273421
346,1.7118116612349215523173207412273
347,1.7123927685160062792723132072242
348,1.7129722035447553998699448752679
349,1.7135499759216824726465976982296
350,1.7141260951648736206283182740060
351,1.7147005707109287725082293482925
352,1.7152734119158896613071320539364
353,1.7158446280561538648735541545298
354,1.7164142283293763026776270400220
355,1.7169822218553585541607784520221
356,1.7175486176769242084082904834213
357,1.7181134247607834841679698099115
358,1.7186766519983863642008338735076
359,1.7192383082067599890877105293464
360,1.7197984021293392483962214989722
361,1.7203569424367823140627154272785
362,1.7209139377277775975749533717409
363,1.7214693965298367265548731709623
364,1.7220233273000785647215063542008
365,1.7225757384260025115878888328180
366,1.7231266382262499595485852807297
367,1.7236760349513568003551864913347
368,1.7242239367844937696964402109224
369,1.7247703518421992624159729239639
370,1.7253152881751003315309874789736
371,1.7258587537686247243492974994536
372,1.7264007565437029121522731801078
373,1.7269413043574600801478895469246
374,1.7274804050039023861620715595371
375,1.7280180662145881796269573940769
376,1.7285542956592956370704957459958
377,1.7290891009466786033069084223836
378,1.7296224896249138057283721510515
379,1.7301544691823412814886130644499
380,1.7306850470480947743318938208244
381,1.7312142305927249764921602733573
382,1.7317420271288127338211400056991
383,1.7322684439115768887953145538045
384,1.7327934881394717250914841724055
385,1.7333171669547776349736160173793
386,1.7338394874441856681316946335658
387,1.7343604566393717112962417693370
388,1.7348800815175642354133942231532
389,1.7353983690021062850522610615706
390,1.7359153259630088991359362521785
391,1.7364309592174962799210989593918
392,1.7369452755305463185873904981326
393,1.7374582816154239509064687456456
394,1.7379699841342059240706957159236
395,1.7384803896982998315368120247471
396,1.7389895048689570667344909389739
397,1.7394973361577793255298292861995
398,1.7400038900272186655599963774598
399,1.7405091728910696882118304716906
400,1.7410131911149581431834007116116
401,1.7415159510168220045294103427326
402,1.7420174588673857633879590647758
403,1.7425177208906307581094463850232
404,1.7430167432642594348580161770557
405,1.7435145321201510041115060547447
406,1.7440110935448146020749630732138
407,1.7445064335798370737081628533767
408,1.7450005582223228805416316486974
409,1.7454934734253289943383248064261
410,1.7459851850982972910594594473545
411,1.7464756991074787051325302859016
412,1.7469650212763527265910058287753
413,1.7474531573860433201248290286413
414,1.7479401131757276898673946745821
415,1.7484258943430421738612836764340
416,1.7489105065444816978154657301118
417,1.7493939553957956366206087411452
418,1.7498762464723772468383076049557
419,1.7503573853096509486557529774027
420,1.7508373774034524392071430717595
421,1.7513162282104055894252058689763
422,1.7517939431482954060046379942243
423,1.7522705275964348945967787285964
424,1.7527459868960294379394062029328
425,1.7532203263505350682602263079237
426,1.7536935512260142407730362893038
427,1.7541656667514865928741493786455
428,1.7546366781192747027050872283891
429,1.7551065904853487594463796944086
430,1.7555754089696630074255897554668
431,1.7560431386564914676703744735077
432,1.7565097845947600863971567766080
433,1.7569753517983706483084285317236
434,1.7574398452465275526113157840465
435,1.7579032698840552754067179960386
436,1.7583656306217144194138354711238
437,1.7588269323365145123740164979535
438,1.7592871798720225361716821676576
439,1.7597463780386678679499888906164
440,1.7602045316140447044076128400698
441,1.7606616453432091291014176637749
442,1.7611177239389743863735219054678
443,1.7615727720822040095690889640353
444,1.7620267944220974228870334006413
445,1.7624797955764773474924820015490
446,1.7629317801320700362101055811364
447,1.7633827526447855059363724972197
448,1.7638327176399909859407941384663
449,1.7642816796127854225293779379214
450,1.7647296430282671924792511392751
451,1.7651766123218025283059886062811
452,1.7656225918992874966789760650437
453,1.7660675861374092730226934571544
454,1.7665115993839031012191299682380
455,1.7669546359578085622488294474593
456,1.7673967001497204487346086219882
457,1.7678377962220389410596063535550
458,1.7682779284092154809200586838976
459,1.7687171009179968562012530731922
460,1.7691553179276671394828140919873
461,1.7695925835902853298605925015647
462,1.7700289020309219110980946239904
463,1.7704642773478929298398412033954
464,1.7708987136129897547541715658727
465,1.7713322148717084853017887931192
466,1.7717647851434761407873231921929
467,1.7721964284218729101701983812397
468,1.7726271486748554782352448651279
469,1.7730569498449739047790644434211
470,1.7734858358495895813113212675326
471,1.7739138105810885323361749330869
472,1.7743408779070943587832141523249
473,1.7747670416706761744474739033013
474,1.7751923056905590393890312621110
475,1.7756166737613258130028496428169
476,1.7760401496536229405200432295743
477,1.7764627371143605058917498061842
478,1.7768844398669112269979229211032
479,1.7773052616113072825190330548416
480,1.7777252060244353650038484370333
481,1.7781442767602285109601936862544
482,1.7785624774498582767067174628674
483,1.7789798117019226399327233119450
484,1.7793962831026324466699298270061
485,1.7798118952159978805008105664844
486,1.7802266515840095387438069289634
487,1.7806405557268209643438864219291
488,1.7810536111429272299004961593682
489,1.7814658213093428018767949857223
490,1.7818771896817765479776526986476
491,1.7822877196948060218393483067698
492,1.7826974147620496130751810190667
493,1.7831062782763365375411841429345
494,1.7835143136098757617145414450318
495,1.7839215241144220535308476130102
496,1.7843279131214424039491922320183
497,1.7847334839422785046112061019229
498,1.7851382398683092266902466374478
499,1.7855421841711105980919429302056
500,1.785945320102615409315405091387
501,1.786347650895268193820883607608
502,1.786749179762183037887955531154
503,1.787149909897295687890017694327
504,1.787549844475517798618638995326
505,1.787948986652886169914483598908
506,1.788347339566712701480634665553
507,1.788744906335732913688976184826
508,1.789141690060252674118429547155
509,1.789537693822291360491058797133
510,1.789932920685727513015151980678
511,1.790327373696440206980557358727
512,1.790721055882450045569724810149
513,1.791113970254058388387611237691
514,1.791506119803985491938875301132
515,1.791897507507507936116321504203
516,1.792288136322593546854926062350
517,1.792678009190034889507321745976
518,1.793067129033583118144358484685
519,1.793455498760078962542107203077
520,1.793843121259583709676586276167
521,1.794229999405506974772592236346
522,1.794616136054735537925336400618
523,1.795001534047759683270606456179
