Eigenstate,Potential Energy
1,0.500000000021794108223890886407589034
2,0.64623093779337512774566914829189642
3,0.73633761012285390816428333299415392
4,0.79966527868463028101004901824483407
5,0.8480465767933792966529645600738595
6,0.8870659992032736537234777925121657
7,0.9197208273522521719761288151102250
8,0.9477838476171425391755580324349573
9,0.9723835590041585841136173034370749
10,0.9942802156618329063612092636858459
11,1.0140093877311788470754693599291384
12,1.0319621705168082882635519457502042
13,1.0484326940845159206851046211055398
14,1.0636476561174364381453492440473278
15,1.0777854377302268074489479615966752
16,1.090988908339509757826501470457264
17,1.103374259125377190629254156361057
18,1.115037254037589108833357220626402
19,1.126057752899550934533367878804553
20,1.136503049042249785230708717370615
21,1.146430375385951561638270258817287
22,1.155888815598941033309581526628080
23,1.164920782034046470777661171528947
24,1.173563173129061795806594479240365
25,1.181848290202672972379902281200130
26,1.189804571262045761549442562458787
27,1.197457183965401563962859888860511
28,1.204828508981057266022878902504896
29,1.211938537189377184984770946109092
30,1.218805198524597639595324781830958
31,1.225444636107546173218435021904159
32,1.231871436242377871972672201919714
33,1.238098822540803416505434787295583
34,1.244138820686737240051481787960904
35,1.250002399015099099869972724230762
36,1.255699589045023490726122683359700
37,1.261239589303646780668377838690170
38,1.266630855146223206294931736303490
39,1.271881176780472215254573769577296
40,1.276997747307238860238354341613900
41,1.281987222272798675044128069686640
42,1.286855771973145861829036704184210
43,1.291609127544117273780501851869266
44,1.296252621703110661958763181770935
45,1.300791224870586086089340611648708
46,1.305229577286403106509213694062283
47,1.309572017642569762155047643199681
48,1.313822608676392975247222096200736
49,1.317985160103357479438358974091974
50,1.32206324921493765455146732047244
51,1.32606023942107968856848379382034
52,1.32997929697874627323747641675081
53,1.33382340611546592112659425773954
54,1.33759538272926786050164220993576
55,1.34129788682290797189650936785368
56,1.34493343381021666012410088625172
57,1.34850440481520059035945756594530
58,1.35201305606973303063845030871912
59,1.35546152750291359584251634810535
60,1.35885185060415368053960673342478
61,1.36218595563247964054859731650056
62,1.36546567823624477798240631777746
63,1.36869276554019929550573864355201
64,1.37186888175055490562237980265785
65,1.37499561332314594083508298850289
66,1.37807447373494147146780322609921
67,1.38110690789490064661494296712874
68,1.38409429622640731287431688452179
69,1.38703795845020729479427770041435
70,1.38993915709384345270189816154988
71,1.39279910075098492984831785179952
72,1.39561894711174875842792821975899
73,1.39839980578305898762481317388396
74,1.40114274091626964828737740708241
75,1.40384877365764676772927466696662
76,1.40651888443585509139968241838475
77,1.40915401509929276974801008655800
78,1.41175507091495147042805894346688
79,1.41432292243943255599451301036938
80,1.41685840727181184160028839535351
81,1.41936233169719610572670870013670
82,1.42183547222905307642505291332535
83,1.42427857705770788175838144810697
84,1.42669236741177466141646542223665
85,1.42907753883873276030299399590418
86,1.43143476241034105950493458316916
87,1.43376468585812652925407781981312
88,1.43606793464375971075511576725557
89,1.43834511296874633159311709588555
90,1.44059680472752104270397995538683
91,1.44282357440770781284080520647090
92,1.44502596794102321892994073958468
93,1.44720451350803661565489265436687
94,1.44935972229975823886814266828427
95,1.45149208923880514340194949499352
96,1.45360209366269305373274367335502
97,1.45569019997161786384416292734718
98,1.45775685824291764833903121105804
99,1.45980250481425257466149026374984
100,1.46182756283739376587440303720791
101,1.46383244280438285928267393291845
102,1.46581754304769843147205958422307
103,1.46778325021595754672014966296861
104,1.46972993972657342102580918084801
105,1.47165797619669712024643419311605
106,1.47356771385368044658870070058732
107,1.47545949692621908574305519055975
108,1.47733366001725584739779436745821
109,1.47919052845965523833446102950583
110,1.48103041865559818718116922387349
111,1.48285363840057987870199337858725
112,1.48466048719284422186706725456446
113,1.48645125652903294015394135579871
114,1.48822623018677851477445706871747
115,1.48998568449492976301876453253489
116,1.49172988859205050225994866591757
117,1.49345910467380003715590282395439
118,1.49517358822976317647958624327220
119,1.49687358827026377229243947391512
120,1.49855934754366993194079812727319
121,1.50023110274466078611089682612754
122,1.50188908471390578304527732088346
123,1.50353351862957528609140396762972
124,1.50516462419108357194463697606648
125,1.50678261579543576068463059777114
126,1.50838770270653501140661296785965
127,1.50998008921778573936265690046635
128,1.51155997480830602333813805060582
129,1.51312755429305029875047879352102
130,1.51468301796712505009000192770106
131,1.51622655174456481220465188760462
132,1.51775833729182081272954977711540
133,1.51927855215620280637836196593174
134,1.52078736988950337585466203107762
135,1.52228496016701586579891494727726
136,1.52377148890215342865639673261181
137,1.52524711835686335340776386565851
138,1.52671200724801723611337117958833
139,1.52816631084995544531684591633441
140,1.52961018109334888938515910706245
141,1.53104376666053653537244312898846
142,1.53246721307748905572776906889547
143,1.53388066280254032899778143517307
144,1.53528425531202134103813865718587
145,1.53667812718292684548855249132433
146,1.53806241217273727351533889297941
147,1.53943724129651017985942117140316
148,1.54080274290135655419427980348558
149,1.54215904273840379872419847934384
150,1.54350626403234901287587461404270
151,1.54484452754869849931268667174161
152,1.54617395165878379041633615120269
153,1.54749465240264314490385626441073
154,1.54880674354985241379594918871949
155,1.55011033665838351170294629796055
156,1.55140554113156835976453576306298
157,1.55269246427323934681938297349830
158,1.55397121134111812687831696216289
159,1.5552418855985164257067173812315
160,1.5565045883644151940260825820707
161,1.5577594190619806034259519870379
162,1.5590064752655763460577777346975
163,1.5602458527463270913803084572368
164,1.5614776455162877365216753663676
165,1.5627019458712670504460282108007
166,1.5639188444323562274836801362941
167,1.5651284301862095825143773019714
168,1.5663307905241200766874638268383
169,1.5675260112799347357396489019183
170,1.5687141767668497039963013861323
171,1.5698953698131251284872303914030
172,1.5710696717967577398049908297354
173,1.5722371626791465320066353981229
174,1.5733979210377873850430525925368
175,1.5745520240980306146189660351200
176,1.5756995477639311558065408215459
177,1.5768405666482246409201067857098
178,1.5779751541014585260182666028032
179,1.5791033822403047109492451574115
180,1.5802253219750845993083353327791
181,1.5813410430365292468636184522016
182,1.5824506140018022938052524945023
183,1.5835541023198087300621513853956
184,1.5846515743358137351919401348880
185,1.5857430953153934009372606234440
186,1.5868287294677383050374574107275
187,1.5879085399683337367625875416579
188,1.5889825889810320104536844676598
189,1.5900509376795405981262273636978
190,1.5911136462683417321807258470579
191,1.5921707740030627007381015082167
192,1.5932223792103132177679442011677
193,1.5942685193070081718221575406172
194,1.5953092508191890941205747425728
195,1.5963446294003622783105562044783
196,1.5973747098493672437633264279575
197,1.5983995461277899176903475029439
198,1.5994191913769346980208200721449
199,1.6004336979343682308559386136326
200,1.6014431173500488426607740393245
201,1.6024475004020526035726968757729
202,1.6034468971119093979376656711570
203,1.6044413567595596567563398579476
204,1.6054309278979433669016938239129
205,1.6064156583672313224200102415862
206,1.6073955953087116366122989707930
207,1.6083707851783373855215635785414
208,1.6093412737599496042306248742616
209,1.6103071061781813787980555662145
210,1.6112683269110545294312394349472
211,1.6122249798022762438530869833043
212,1.6131771080732458879843612978255
213,1.6141247543347763718296720088472
214,1.6150679605985450462506262104568
215,1.6160067682882733368508310949078
216,1.6169412182506490694232315557952
217,1.6178713507659954459952672198136
218,1.6187972055586956439146295133897
219,1.6197188218073763109046039530049
220,1.6206362381548624642094911442778
221,1.6215494927179016961126957711459
222,1.6224586230966748831855313748548
223,1.6233636663840869600904093809663
224,1.6242646591748528172290038615984
225,1.6251616375743808787702157360029
226,1.6260546372074578989909244651603
227,1.6269436932267436197681424599338
228,1.6278288403210770994139391106317
229,1.6287101127236018649884647572739
230,1.6295875442197145743194189172756
231,1.6304611681548389769824214745169
232,1.6313310174420355831468624537785
233,1.6321971245694420257753215765060
234,1.6330595216075602622261119105095
235,1.6339182402163837863422552147395
236,1.6347733116523745497784146416115
237,1.6356247667752932126757741676948
238,1.6364726360548844546784695176689
239,1.6373169495774227818537657560421
240,1.6381577370521209829147052389033
241,1.6389950278174055160749673817027
242,1.6398288508470616824668771793691
243,1.6406592347562526168761030494375
244,1.6414862078074137840090801263361
245,1.6423097979160273533836260597287
246,1.6431300326562789713897179346776
247,1.6439469392665983122850681899339
248,1.6447605446550909886586979818544
249,1.6455708754048567898567252109826
250,1.6463779577792046324697540126468
251,1.6471818177267621222875193417610
252,1.6479824808864825256141269180002
253,1.6487799725925542215407054905477
254,1.6495743178792122914259438466526
255,1.6503655414854561250074550480600
256,1.6511536678596731279041853597643
257,1.6519387211641749212476969597508
258,1.6527207252796424774943921042931
259,1.6534997038094869952626228593364
260,1.6542756800841268988924599411595
261,1.6550486771651812757785305841747
262,1.6558187178495844762013780859844
263,1.6565858246736207255373247098486
264,1.6573500199168841989981095208582
265,1.6581113256061630834257810550486
266,1.6588697635192497931733406828959
267,1.6596253551886805526009395379443
268,1.6603781219054043781846923446274
269,1.6611280847223857294349661786224
270,1.6618752644581365520462543675530
271,1.6626196817001869965125883142754
272,1.6633613568084887910503347617670
273,1.6641003099187587112200583077227
274,1.6648365609457593545424128277758
275,1.6655701295865210949645978702528
276,1.6663010353235034948068443024413
277,1.6670292974277036574798567751371
278,1.6677549349617032748977009768575
279,1.6684779667826658720314847634600
280,1.6691984115452763414503814714738
281,1.6699162877046306566536970294442
282,1.6706316135190732604432024307245
283,1.6713444070529853407623447960143
284,1.6720546861795211505184050622001
285,1.6727624685832991786288219227113
286,1.6734677717630441970173482887493
287,1.6741706130341852428319707141809
288,1.6748710095314059376410055035856
289,1.6755689782111517916521197684891
290,1.6762645358540952254623151765742
291,1.6769576990675561502593093992285
292,1.6776484842878809913616596391806
293,1.6783369077827840608526065141795
294,1.6790229856536463162025787464662
295,1.6797067338377735920059004640462
296,1.6803881681106218903719706911088
297,1.6810673040879796616760621255407
298,1.6817441572281163924016064291179
299,1.6824187428338943029095104455876
300,1.6830910760548449057179542747586
301,1.6837611718892108357083440036099
302,1.6844290451859550451677994902041
303,1.6850947106467345367745812838793
304,1.6857581828278422120335677336875
305,1.6864194761421182636659418373505
306,1.6870786048608303751501863539947
307,1.6877355831155199093655584394612
308,1.6883904248998215647639823444677
309,1.6890431440712525883333743472203
310,1.6896937543529718804964789861149
311,1.6903422693355125868450850144944
312,1.6909887024784856898402901242675
313,1.6916330671122559932245030302686
314,1.6922753764395923034167743107593
315,1.6929156435372911275318070184190
316,1.6935538813577752636623160887064
317,1.6941901027306648220271534787765
318,1.6948243203643260282276993692706
319,1.6954565468473949501724967756801
320,1.6960867946502761499251949306960
321,1.6967150761266201794084757047922
322,1.6973414035147760343921060571132
323,1.6979657889392220808017017449955
324,1.6985882444119744304859253136925
325,1.6992087818339745284201290292986
326,1.6998274129964541885707746930623
327,1.7004441495822808991736902531157
328,1.7010590031672805866184512025215
329,1.7016719852215428127945690004785
330,1.7022831071107048375633658635165
331,1.7028923800972159849292563181521
332,1.7034998153415833741315190361836
333,1.7041054239035993941920662453493
334,1.7047092167435491059218750623293
335,1.7053112047234018862981383934095
336,1.7059113986079833732435473669563
337,1.7065098090661305830328416333102
338,1.7071064466718312591579285487832
339,1.7077013219053435171383810703368
340,1.7082944451543018765965889113605
341,1.7088858267148053941545017511968
342,1.7094754767924903942810480250641
343,1.7100634055035874358582831181036
344,1.7106496228759625081528946735481
345,1.7112341388501442755064266337872
346,1.7118169632803348455184585996816
347,1.7123981059354076260603700695636
348,1.7129775764998890828232541534465
349,1.7135553845749279423037468760510
350,1.7141315396792493825474462866149
351,1.7147060512500962992336468354388
352,1.7152789286441573294454555052001
353,1.7158501811384809174837399031634
354,1.7164198179313768371808351728083
355,1.7169878481433055359780533614718
356,1.7175542808177535105357610703039
357,1.7181191249220979529013460321955
358,1.7186823893484599112226502105906
359,1.7192440829145417101328433136035
360,1.7198042143644575687132484782882
361,1.7203627923695491608902913872879
362,1.7209198255291925998549349239852
363,1.7214753223715914421054131235963
364,1.7220292913545607350955136724866
365,1.7225817408663003448446631691019
366,1.7231326792261564411679259760128
367,1.7236821146853740325257336831072
368,1.7242300554278373392121269918622
369,1.7247765095708026374165289226354
370,1.7253214851656192873245323263306
371,1.7258649901984417985574590843250
372,1.7264070325909318894201819697976
373,1.7269476202009505066639250934540
374,1.7274867608232441142343593278605
375,1.7280244621901159425657835448601
376,1.7285607319720936546284750065536
377,1.7290955777785852179305743678368
378,1.7296290071585261498776842558986
379,1.7301610276010199762828893976415
380,1.7306916465359686597834559642960
381,1.7312208713346958735909164548649
382,1.7317487093105602387362828143365
383,1.7322751677195631994626370382519
384,1.7328002537609465004570566617901
385,1.7333239745777828871675046410425
386,1.7338463372575606878477884703388
387,1.7343673488327580266566854170150
388,1.7348870162814106045991994949664
389,1.7354053465276737229838385256513
390,1.7359223464423757384901676849316
391,1.7364380228435632667744144792290
392,1.7369523824970417429767962172175
393,1.7374654321169088126034379388029
394,1.7379771783660791338655450755299
395,1.7384876278568034483340173923914
396,1.7389967871511815707621673573476
397,1.7395046627616689279698093570561
398,1.7400112611515766549074586477483
399,1.7405165887355638136767288170449
400,1.7410206518801260354485688290297
401,1.7415234569040766341835902718813
402,1.7420250100790209373549566344152
403,1.7425253176298266543974561153162
404,1.7430243857350881759566990455162
405,1.7435222205275822693671008314169
406,1.7440188280947212793773265274351
407,1.7445142144790009508266513366723
408,1.7450083856784403764499001274286
409,1.7455013476470169308715823538773
410,1.7459931062950987052510455698581
411,1.7464836674898687025800551477311
412,1.7469730370557443762054786209286
413,1.7474612207747935906199241426698
414,1.7479482243871434283494958107118
415,1.7484340535913861268841145325790
416,1.7489187140449785752671792310568
417,1.7494022113646382188143954256373
418,1.7498845511267325351814215038675
419,1.7503657388676663602755207524112
420,1.7508457800842620459163130434688
421,1.7513246802341364014125127622161
422,1.7518024447360737006405850201198
423,1.7522790789703925907482480642518
424,1.7527545882793105161907933157046
425,1.7532289779673020374426647402718
426,1.7537022533014546512069680211412
427,1.7541744195118195967352244680338
428,1.7546454817917576619267130462334
429,1.7551154452982839015769071227944
430,1.7555843151524041298618019096099
431,1.7560520964394506906937934314023
432,1.7565187942094146554431481968970
433,1.7569844134772697859032873294983
434,1.7574489592232993604160498602609
435,1.7579124363934136868113322613229
436,1.7583748498994662031299572747335
437,1.7588362046195663274783429858786
438,1.7592965053983880390572803179985
439,1.7597557570474748716473401641533
440,1.7602139643455423907415426320007
441,1.7606711320387753141549973187850
442,1.7611272648411228397349598051096
443,1.7615823674345918278422220193563
444,1.7620364444695324579511177350466
445,1.7624895005649256900016887646262
446,1.7629415403086635548283744556877
447,1.7633925682578294428083567368127
448,1.7638425889389716089043685096097
449,1.7642916068483777345810533977133
450,1.7647396264523426990082723140557
451,1.7651866521874370626190608869769
452,1.7656326884607691043420689110504
453,1.7660777396502461555526846096495
454,1.7665218101048316196625617397671
455,1.7669649041448013011916400375938
456,1.7674070260619943412916027681859
457,1.7678481801200634553983936330070
458,1.7682883705547208688800480120172
459,1.7687276015739824645737628617184
460,1.7691658773584097845247006459335
461,1.7696032020613477356194684199853
462,1.7700395798091612121333728189089
463,1.7704750147014692389298742460482
464,1.7709095108113747961862905519905
465,1.7713430721856942943474607974462
466,1.7717757028451838299720800867779
467,1.7722074067847615029535022680641
468,1.7726381879737308107225005045143
469,1.7730680503559975960942104218847
470,1.7734969978502880732653912287082
471,1.7739250343503621990335624573987
472,1.7743521637252266868145688607884
473,1.7747783898193430143248904193700
474,1.7752037164528379288858920542733
475,1.7756281474217053730683645234833
476,1.7760516864980123444450778307111
477,1.7764743374300990224099271726387
478,1.7768961039427778380137022090901
479,1.7773169897375303761610777223642
480,1.7777369984927025047102535827162
481,1.7781561338636962813094865069616
482,1.7785743994831622067159183040100
483,1.7789917989611872045520694932842
484,1.7794083358854811472111866085466
485,1.7798240138215634047446082674924
486,1.7802388363129440014788539483044
487,1.7806528068813062290998742063531
488,1.7810659290266853126442187131620
489,1.7814782062276463574492568795808
490,1.7818896419414594400591421765692
491,1.7823002396042739772371081207499
492,1.7827100026312909611377322110657
493,1.7831189344169330355117681387863
494,1.7835270383350135068452084183497
495,1.7839343177389024827875724339571
496,1.7843407759616933821475764605480
497,1.7847464163163655018320089363054
498,1.7851512420959465858323595109711
499,1.7855552565736728934310580474385
500,1.785958463003148896945293854875
501,1.786360864618502354864263078822
502,1.786762464634542215374085187558
503,1.787163266246910818205450098346
504,1.787563272632238238448203192644
505,1.787962486948291619599613389611
506,1.788360912334125225732416100861
507,1.788758551910229060603736071830
508,1.789155408778675693454574839271
509,1.789551486023263522176284647734
510,1.789946786709662526864278187230
511,1.790341313885555744615147093865
512,1.790735070580780365541691267748
513,1.791128059807467065520566217688
514,1.791520284560178251912366704475
515,1.791911747816045596329591326957
516,1.792302452534905064618418191117
517,1.792692401659430518622615163072
518,1.793081598115267674944826174936
519,1.793470044811165202478758126047
520,1.793857744639105815546176311938
521,1.794244700474434157697346105487
522,1.794630915175985752206866874963
523,1.795016391586213456252392219824
