Eigenstate,Potential Energy
1,0.500000000049455956181585220792807497
2,0.64623093797393745646034552572225418
3,0.73633761065324209532638931685274974
4,0.79966527978937092742124503610685063
5,0.8480465787070219375748431017626444
6,0.8870660021644763760979826580217027
7,0.9197208316016026538159692891896252
8,0.9477838533962495298768559543856155
9,0.9723835665552296228863082302163932
10,0.9942802252274601624244139828646532
11,1.0140093995542229343879176003544691
12,1.0319621848403320068998277241873523
13,1.0484327111517451787765734535693090
14,1.0636476761717368165961349885058830
15,1.0777854610150895619690878637871244
16,1.090988935098543749363654476244203
17,1.103374289602304672504198464604015
18,1.115037288476244100648153135958673
19,1.126057791543879378377231567228381
20,1.136503092136310959574657431063619
21,1.146430423173920401899982333288013
22,1.155888868325111118768152268589190
23,1.164920839942833509886447896262286
24,1.173563236465007490334363410980911
25,1.181848359210449173818834047779357
26,1.189804646186458856167159029421388
27,1.197457265051397039086930674869279
28,1.204828596473724421781102622826007
29,1.211938631333953964193975482201272
30,1.218805299566475554737702413449177
31,1.225444744292275314107107350971486
32,1.231871551815671981227888260735953
33,1.238098945748545022647607847362687
34,1.244138951774982840085096175097029
35,1.250002538230084384839624600472652
36,1.255699736633168608985717546531310
37,1.261239745511561634599971607866564
38,1.266631020220712779006060704762929
39,1.271881350968541924418196047837129
40,1.276997930856099936752244121230588
41,1.281987415429873564602910020129546
42,1.286855974986073647842279334268769
43,1.291609340660759120349820458070854
44,1.296252845171555275857791458320802
45,1.300791458939155196882185004958791
46,1.305229822203656964103063626912752
47,1.309572273657312651216718384100093
48,1.313822876037678746026471854904965
49,1.317985439060495094636368828289976
50,1.32206354001749675195406692038192
51,1.32606054231889615923301302769321
52,1.32997961222192785508146144330858
53,1.33382373395439780781739474554084
54,1.33759572341461832559025008640050
55,1.34129824060563400817679982373059
56,1.34493380094156963423193116367515
57,1.34850478554673191265491916683670
58,1.35201345065329984043995030604319
59,1.35546193619068446210349760929612
60,1.35885227364861431807840217021896
61,1.36218639328643864195920394607075
62,1.36546613075283936136944728065401
63,1.36869323317290106820056618838993
64,1.37186936475317564404952601869849
65,1.37499611194984338670937258037813
66,1.37807498824022514451233485897920
67,1.38110743853363767399912273134778
68,1.38409484325382827557930934902106
69,1.38703852212191209112074398049030
70,1.38993973766580717914151580738659
71,1.39279969847956377954709119977255
72,1.39561956225368593747480217401305
73,1.39840043859549064940466946315135
74,1.40114339165673084614231430754493
75,1.40384944258407742617681640934941
76,1.40651957180660599616080302273496
77,1.40915472117313157684204419928491
78,1.41175579595106873459541362805904
79,1.41432366669744777871177878926699
80,1.41685917101177953895577372264766
81,1.41936311517961189642788609020152
82,1.42183627571485979021252407872419
83,1.42427940080830168850407785326275
84,1.42669321168901122118681028844119
85,1.42907840390493339467064348272318
86,1.43143564852829894439546590174391
87,1.43376559329111290961686851444164
88,1.43606886365553013735023464136493
89,1.43834606382354692018872470215044
90,1.44059777769009475598131168765812
91,1.44282456974330076530640384832503
92,1.44502698591539100513728845973767
93,1.44720555438745066204010228423482
94,1.44936078635101217950685452965164
95,1.45149317672922121999705564486988
96,1.45360320486012854014492790465241
97,1.45569133514447151547984696772553
98,1.45775801766013617671254472283562
99,1.45980368874533714745092263622816
100,1.46182877155240653279286962820485
101,1.46383367657395350408926682165593
102,1.46581880214303075044917070778206
103,1.46778453490883605394622269772673
104,1.46973125028936998077524177743400
105,1.47165931290237760685059614264926
106,1.47356907697581143209468230784590
107,1.47546088673897455570920145216425
108,1.47733507679542394516757461880621
109,1.47919197247864503813283913913639
110,1.48103189019144649638016916919365
111,1.48285513772995806960467245558379
112,1.48466201459306509336181886839438
113,1.48645281227805760959355996346792
114,1.48822781456322334043718982537343
115,1.48998729777807329751107915803018
116,1.49173153106184047722359826302125
117,1.49346077661086037964450671468696
118,1.49517528991540105737272370080280
119,1.49687531998647668711804036923903
120,1.49856110957315281447947166636807
121,1.50023289537081315515862912865345
122,1.50189090822083892271379502967614
123,1.50353537330211946002846726836219
124,1.50516651031479527185941828798718
125,1.50678453365660498956631475345008
126,1.50838965259219260182740552981773
127,1.50998207141571070725933641641020
128,1.51156198960703295766949625470638
129,1.51312960198187678743103413492732
130,1.51468509883611914260341095155497
131,1.51622866608457251930362127368542
132,1.51776048539447364363228323866833
133,1.51928073431392534387455888611330
134,1.52078958639552088973766913866099
135,1.52228721131536196504396842107675
136,1.52377377498767775276801050327863
137,1.52524943967523930336303665263990
138,1.52671436409574974533127413745160
139,1.52816870352438879108711876055612
140,1.52961260989267454519402025881468
141,1.53104623188380106456573194219091
142,1.53246971502460204695608077336868
143,1.53388320177428237389149848309700
144,1.53528683161005205456427755550757
145,1.53668074110979292944484610799408
146,1.53806506403188062362098978597888
147,1.53943993139227603690574994568282
148,1.54080547153900169972234351867848
149,1.54216181022410479570053321785614
150,1.54350907067321049184129468707878
151,1.54484737365276149048347779146641
152,1.54617683753503410222094079078775
153,1.54749757836101978944245178283644
154,1.54880970990125607971449231361996
155,1.55011334371468508497750248710422
156,1.55140858920561749289618552061340
157,1.55269555367887307694398910434112
158,1.55397434239316954330016355883333
159,1.5552450586128233873694275216402
160,1.5565078036578290974386037354457
161,1.5577626769523752015661504316157
162,1.5590097760718566187807835824329
163,1.5602491967884381678632433750149
164,1.5614810331152238702813679220162
165,1.5627053773490806474712062322723
166,1.5639223201121669280275256746910
167,1.5651319503922133970988095511749
168,1.5663343555815985768751760869471
169,1.5675296215152643002349320379750
170,1.5687178325075108206411229990121
171,1.5698990713877117527237696287653
172,1.5710734195349867101814459609320
173,1.5722409569118670433080736861414
174,1.5734017620969905196347327640150
175,1.5745559123168589325948276592677
176,1.5757034834766883445410991554508
177,1.5768445501903852246274913396243
178,1.5779791858096776359278707820212
179,1.5791074624524279167130471653306
180,1.5802294510301578022607686063673
181,1.5813452212748086357608460362496
182,1.5824548417647643636762250203609
183,1.5835583799501603648103277161837
184,1.5846559021775023545921312866225
185,1.5857474737136171726786644517032
186,1.5868331587689564224695680357988
187,1.5879130205202767630075517494463
188,1.5889871211327122895546512298472
189,1.5900555217812627339078242772906
190,1.5911182826717131355043057246808
191,1.5921754630610042058409645681066
192,1.5932271212770697683824584389574
193,1.5942733147381595777775055659551
194,1.5953140999716608591365994478989
195,1.5963495326324364997001785382063
196,1.5973796675206935847670670373698
197,1.5984045585993966531735587016940
198,1.5994242590112398342713184794712
199,1.6004388210951907002272486218617
200,1.6014482964026197738134210989204
201,1.6024527357130266680733140379710
202,1.6034521890493762339836940657789
203,1.6044467056930553708012294157351
204,1.6054363341984621139636435618469
205,1.6064211224072369658648130424256
206,1.6074011174621494882092086542941
207,1.6083763658206460265787661193073
208,1.6093469132680727886252744015506
209,1.6103128049305800187239418722675
210,1.6112740852877187646957011596458
211,1.6122307981847375955629625825651
212,1.6131829868445894974693694553237
213,1.6141306938796533256608958767974
214,1.6150739613031847882193780487508
215,1.6160128305404961677833365260019
216,1.6169473424398787357146321675556
217,1.6178775372832718177558674618604
218,1.6188034547966874836307005533609
219,1.6197251341603941335254530483495
220,1.6206426140188714895813396070993
221,1.6215559324905348946904549843487
222,1.6224651271772461159623466376819
223,1.6233702351736042136953121673554
224,1.6242712930760315351526329895477
225,1.6251683369916573896888768423422
226,1.6260614025470029431692756624861
227,1.6269505248964759745310634291708
228,1.6278357387306773046889246303029
229,1.6287170782845260499303725942377
230,1.6295945773452083860397987832465
231,1.6304682692599516124171174708802
232,1.6313381869436339251060269796546
233,1.6322043628862248842314566851016
234,1.6330668291600727219071498588189
235,1.6339256174270316617077192024276
236,1.6347807589454389484687455820379
237,1.6356322845769452085362958254308
238,1.6364802247931998714716708175836
239,1.6373246096823970887851455830496
240,1.6381654689556843031104219233753
241,1.6390028319534377491610131122177
242,1.6398367276514077424124885447185
243,1.6406671846667377862769229462216
244,1.6414942312638591859979162952381
245,1.6423178953602655423700616832671
246,1.6431382045321696438433047001976
247,1.6439551860200441387892717038344
248,1.6447688667340535684770576627881
249,1.6455792732593727292661020079947
250,1.6463864318614017481296907695648
251,1.6471903684908757709282695033172
252,1.6479911087888720613407375008293
253,1.6487886780917195820644453772407
254,1.6495831014358107145495326763698
255,1.6503744035623189967047583348106
256,1.6511626089218229633509816134366
257,1.6519477416788424801739894105425
258,1.6527298257162840152454192666415
259,1.6535088846398016509705689519256
260,1.6542849417820742221769181832447
261,1.6550580202069988934100406379781
262,1.6558281427138059001781345508890
263,1.6565953318410933040420622419725
264,1.6573596098707872117182990384066
265,1.6581209988320259827379390133690
266,1.6588795205049705927086678141627
267,1.6596351964245443647271709994239
268,1.6603880478841021019567839687595
269,1.6611380959390328905846896660653
270,1.6618853614102922965991505025397
271,1.6626298648878732396386456298997
272,1.6633716267342095227742114742810
273,1.6641106670875194606340723834893
274,1.6648470058650868141859010796410
275,1.6655806627664829070517469576623
276,1.6663116572767282010049500203984
277,1.6670400086694008139599599218063
278,1.6677657360096837343991813921558
279,1.6684888581573622347032657840802
280,1.6692093937697635762513043866139
281,1.6699273613046468951162960236977
282,1.6706427790230407646255762596797
283,1.6713556649920316472351660031671
284,1.6720660370875003922550627095468
285,1.6727739129968135866898534784653
286,1.6734793102214657839414689028188
287,1.6741822460796776696698267328329
288,1.6748827377089465665903255757019
289,1.6755808020685539262762343712249
290,1.6762764559420305404979273184757
291,1.6769697159395773130432290920931
292,1.6776605985004444769306714250701
293,1.6783491198952731627953020474196
294,1.6790352962283943553669638720660
295,1.6797191434400873251920303777145
296,1.6804006773088051211642599592125
297,1.6810799134533570555969214993889
298,1.6817568673350574985930738174288
299,1.6824315542598377845778880612387
300,1.6831039893803229816024233627455
301,1.6837741876978739348629965225385
302,1.6844421640645966773739055520408
303,1.6851079331853163809285816087401
304,1.6857715096195194248849232250331
305,1.6864329077832650113084265276123
306,1.6870921419510655896991814918397
307,1.6877492262577332732846628341344
308,1.6884041747001997253340429917515
309,1.6890570011393056047885564216058
310,1.6897077193015599063824011596709
311,1.6903563427808727901867829137142
312,1.6910028850402594137395960962483
313,1.6916473594135161595387769444095
314,1.6922897791068710622044471407921
315,1.6929301572006077549837954073932
316,1.6935685066506643112724213956819
317,1.6942048402902045197889417479408
318,1.6948391708311669446810118632915
319,1.6954715108657889121576193649852
320,1.6961018728681054249396050685274
321,1.6967302691954269234969410817580
322,1.6973567120897920085387998147565
323,1.6979812136793986388304948803286
324,1.6986037859800127815130560673792
325,1.6992244408963562769424160263962
326,1.6998431902234721553126032769284
327,1.7004600456480702258545351362283
328,1.7010750187498501278447400652774
329,1.7016881210028068183202523082020
330,1.7022993637765149282052225533512
331,1.7029087583373934254655874914583
332,1.7035163158499516465558592718304
333,1.7041220473780170747373007629714
334,1.7047259638859430493141824977711
335,1.7053280762398007207457054873900
336,1.7059283952085513097099126971747
337,1.7065269314652015423919135685063
338,1.7071236955879433208742753042580
339,1.7077186980612736931637083622448
340,1.7083119492771012142225494996239
341,1.7089034595358344116112993023387
342,1.7094932390474548529202283180877
343,1.7100812979325744528096036420726
344,1.7106676462234770133962193293539
345,1.7112522938651458173524810000205
346,1.7118352507162747485441265157465
347,1.7124165265502665055993394725369
348,1.7129961310562147201667399110839
349,1.7135740738398735248212707831360
350,1.7141503644246121129952121649089
351,1.7147250122523563785736335865510
352,1.7152980266845173175576469761046
353,1.7158694170029054762125164096331
354,1.7164391924106328602166558843348
355,1.7170073620330026701353596499745
356,1.7175739349183850730514856633728
357,1.7181389200390822494400260916570
358,1.7187023262921819593374023253203
359,1.7192641625003953729978883316045
360,1.7198244374128881040075108000594
361,1.7203831597060961897794225486687
362,1.7209403379845335010866826044224
363,1.7214959807815851763015074279955
364,1.7220500965602921043942443902141
365,1.7226026937141246931184286801707
366,1.7231537805677448001124978769147
367,1.7237033653777587189912364738757
368,1.7242514563334580092205632527785
369,1.7247980615575528023854446106678
370,1.7253431891068932980941518623952
371,1.7258868469731823028960291747729
372,1.7264290430836777687620413437972
373,1.7269697853018852979150674081391
374,1.7275090814282449225623307319073
375,1.7280469392008028511736809641953
376,1.7285833662958796375972900903579
377,1.7291183703287265623012686146081
378,1.7296519588541733932292221007415
379,1.7301841393672693661533701371677
380,1.7307149193039141413704087264138
381,1.7312443060414816122593095917170
382,1.7317723068994336839546523929119
383,1.7322989291399286968833726036805
384,1.7328241799684194589527840504750
385,1.7333480665342445077330660758060
386,1.7338705959312132613767287093009
387,1.7343917751981808077021237294429
388,1.7349116113196162683317006397402
389,1.7354301112261654126630833653729
390,1.7359472817952047108732783657484
391,1.7364631298513871429917349495780
392,1.7369776621671833725155078750986
393,1.7374908854634157581508311109030
394,1.7380028064097837848768587647652
395,1.7385134316253837713051760959879
396,1.7390227676792225043051340551163
397,1.7395308210907244309065601279192
398,1.7400375983302324157205205703028
399,1.7405431058195006297765859817077
400,1.7410473499321838708447883495649
401,1.7415503369943193642720826424038
402,1.7420520732848017896643656655655
403,1.7425525650358543542699300033882
404,1.7430518184334938062701760381618
405,1.7435498396179868535453205402599
406,1.7440466346843040970699768050431
407,1.7445422096825685957836232922358
408,1.7450365706184965662585747404612
409,1.7455297234538330783692009555024
410,1.7460216741067852615752179846155
411,1.7465124284524472819691151361320
412,1.7470019923232206728162984624943
413,1.7474903715092310977845674167996
414,1.7479775717587379708528255201633
415,1.7484635987785412170057611216709
416,1.7489484582343816034957787280961
417,1.7494321557513374903085007001877
418,1.7499146969142151632230756271495
419,1.7503960872679370281359694298754
420,1.7508763323179226487292980907793
421,1.7513554375304665798288801926565
422,1.7518334083331122782236300834412
423,1.7523102501150199272523662352919
424,1.7527859682273317890569804323168
425,1.7532605679835314640366921705775
426,1.7537340546598006645206845162780
427,1.7542064334953709874746622246574
428,1.7546777096928707001098253173091
429,1.7551478884186704509739683777654
430,1.7556169748032207688196303139293
431,1.7560849739413888531000737963155
432,1.7565518908927918058073741429034
433,1.7570177306821216427499666461930
434,1.7574824982994731824149738566954
435,1.7579461987006626362975511689546
436,1.7584088368075448019035838931588
437,1.7588704175083270200108287266682
438,1.7593309456578788784757766113519
439,1.7597904260780383441156309526399
440,1.7602488635579153941094675683626
441,1.7607062628541903070040117231288
442,1.7611626286914101772111089379638
443,1.7616179657622833009329437718110
444,1.7620722787279660531342176378731
445,1.7625255722183515864736046137730
446,1.7629778508323513767978038456848
447,1.7634291191381767846304000853920
448,1.7638793816736138511231896856592
449,1.7643286429462991692465618502606
450,1.7647769074339889829357686561820
451,1.7652241795848290175712931763321
452,1.7656704638176178834287292521575
453,1.7661157645220697954623420010364
454,1.7665600860590729986717892650727
455,1.7670034327609475232278377480427
456,1.7674458089316975666680762855991
457,1.7678872188472631991853547366796
458,1.7683276667557677882303121514030
459,1.7687671568777636566819425489381
460,1.7692056934064756172639815801489
461,1.7696432805080402332778909344978
462,1.7700799223217440190502358054063
463,1.7705156229602591842241479983111
464,1.7709503865098750831638514807624
465,1.7713842170307293385805188876473
466,1.7718171185570357704548623778052
467,1.7722490950973084111595781614729
468,1.7726801506345866228187492200182
469,1.7731102891266537940030514780444
470,1.7735395145062571407125414099385
471,1.7739678306813228791753055971487
472,1.7743952415351710685006028665864
473,1.7748217509267254745266475825356
474,1.7752473626907259593051185919376
475,1.7756720806379323194303816647858
476,1.7760959085553320874844996301999
477,1.7765188502063426300704749293683
478,1.7769409093310122189055582913745
479,1.7773620896462189648526165002689
480,1.7777823948458680099767656225520
481,1.7782018286010855290151484623251
482,1.7786203945604131095742697869972
483,1.7790380963499978915876731548720
484,1.7794549375737812863358018186017
485,1.7798709218136877524644015577163
486,1.7802860526298082143627198441461
487,1.7807003335605849722691237561017
488,1.7811137681229927011839246310807
489,1.7815263598127187672933956215651
490,1.7819381121043407255752572835232
491,1.7823490284515031334113769806390
492,1.7827591122870922689634361936493
493,1.7831683670234087298922059197524
494,1.7835767960523390070471349447200
495,1.7839844027455242262263263736358
496,1.7843911904545293030373821918432
497,1.7847971625110081970134402323867
498,1.7852023222268692108730563895565
499,1.7856066728944378329077266124501
500,1.786010217786619253634129814135
501,1.786412960157056303414022856873
502,1.786814903240290266889584019920
503,1.787216050251916043053827718503
504,1.787616404388739495492444816270
505,1.788015968828929840985320113383
506,1.788414746732172807288921492153
507,1.788812741239822408877750470100
508,1.789209955475050981374129440881
509,1.789606392542995706342291689078
510,1.790002055530907680489851683189
511,1.790396947508296761176766426749
512,1.790791071527076089275892904560
513,1.791184430621704905990046456305
514,1.791577027809330340981894938201
515,1.791968866089928547033972324291
516,1.792359948446443392572261494036
517,1.792750277844923787811076267736
518,1.793139857234661430959331211559
519,1.793528689548325757505788855708
520,1.793916777702098950695497846829
521,1.794304124595807809558432259848
522,1.794690733113056751860236080558
523,1.795076606121358390325169499815
