Eigenstate,Potential Energy
1,0.500000000019120422520880608955831456
2,0.64623093777592271420369345870540213
3,0.73633761007158891259371883040513176
4,0.79966527857785132285375323125825434
5,0.8480465766084166741950030485381347
6,0.8870659989170611622510502181565184
7,0.9197208269415378708315279347730844
8,0.9477838470585767231179167861689484
9,0.9723835582743347569514191071643212
10,0.9942802147373086384857968632537433
11,1.0140093865884871632934381930060749
12,1.0319621691324642300510943243818606
13,1.0484326924350204814166768691547630
14,1.0636476541792789865014929380821009
15,1.0777854354798865988071593759012411
16,1.090988905753456872803057348325435
17,1.103374256180073101024129055442928
18,1.115037250709486993735502040405760
19,1.126057749165095824354793415580384
20,1.136503044877878584387320807106516
21,1.146430370768092983817035360227793
22,1.155888810504015472562097568480053
23,1.164920776438465824685477407081402
24,1.173563167009229252287310914794735
25,1.181848283534982768512709321253036
26,1.189804564022882920581681559973014
27,1.197457176131141615092332757854982
28,1.204828500528065950426117291186468
29,1.211938528094010150742909838269214
30,1.218805188763200127565535412220676
31,1.225444625656452695448249619501005
32,1.231871425077911883914376911375118
33,1.238098810639276984028256574449332
34,1.244138808024450702049470720035098
35,1.250002385568340727108180909946886
36,1.255699574790069141445963756778836
37,1.261239574216759553376881952409474
38,1.266630839203653090086067640811266
39,1.271881159958455737949459946731041
40,1.276997729581998734581668654422157
41,1.281987203620543443153832217457977
42,1.286855752370069538063699349853120
43,1.291609106966398986161532816569469
44,1.296252600126914292262609490795652
45,1.300791202272059908706208524336642
46,1.305229553641679426149468641776527
47,1.309571992927764550471538122434458
48,1.313822582867605506430895915665413
49,1.317985133176669964835369798363241
50,1.32206322114641487634217483280946
51,1.32606021018676863254211732754237
52,1.32997926655467576069055763349487
53,1.33382337447764623990835531615505
54,1.33759534985369039522547762529409
55,1.34129785268554483333289148147473
56,1.34493339838702031378724275375658
57,1.34850436808210348429729539002936
58,1.35201301800264722243312403022180
59,1.35546148807773037882646610651863
60,1.35885180979674320923056506314190
61,1.36218591341869055530516873497022
62,1.36546563459190382888049575664538
63,1.36869272044111096543484896152688
64,1.37186883517250103259969798545989
65,1.37499556524188533953426322607459
66,1.37807442412620955395850304046707
67,1.38110685673440904230836189718821
68,1.38409424348984348766930032353664
69,1.38703790411323416941789438275951
70,1.38993910113209902023784907749330
71,1.39279904314008187244600543049196
72,1.39561888782727406318455304038294
73,1.39839974480057356163244117403531
74,1.40114267821130793283653273462932
75,1.40384870920571635166025605070643
76,1.40651881821243632359248705603426
77,1.40915394707983837074144166070948
78,1.41175500107488614315833062336899
79,1.41432285075415259564339804785570
80,1.41685833371668474454263837193255
81,1.41936225624756017756694373010557
82,1.42183539486021703911202339155770
83,1.42427849774495047976781037937914
84,1.42669228613034426699000248323152
85,1.42907745556384697773274263451037
86,1.43143467711718632845216736243805
87,1.43376459852185772709068954016369
88,1.43606784523949975391623102192945
89,1.43834502147158577592913155846771
90,1.44059671111251768282019416621562
91,1.44282347864988628041266590833401
92,1.44502587001537457998181134236520
93,1.44720441338951796679013867351594
94,1.44935961996329230243822644168733
95,1.45149198465927986160210098856677
96,1.45360198681496118161169735723558
97,1.45569009083049656121532052582271
98,1.45775674678318807058033788557683
99,1.45980239101065946239119597062426
100,1.46182744666464503348980199514200
101,1.46383232423714918234881071880793
102,1.46581742206061283294731106729475
103,1.46778312678361498200549525342380
104,1.46972981382353036182450814072005
105,1.47165784779747113722075828030371
106,1.47356758293274979080027193791090
107,1.47545936345802226886325110104697
108,1.47733352397619122067461073049891
109,1.47919038982008057030211941333140
110,1.48103027739183024009869240295044
111,1.48285349448689398370686887151825
112,1.48466034060347385283005057416442
113,1.48645110723816928622096619934948
114,1.48822607816857005158151891774479
115,1.48998552972348182256558102088332
116,1.49172973104142484142810512578418
117,1.49345894431801440485712138153421
118,1.49517342504279087941964410171527
119,1.49687342222603323933621364322108
120,1.49855917861606427706380565350058
121,1.50023093090751736992262006060304
122,1.50188890994101577286948276985147
123,1.50353334089468321458857341750670
124,1.50516444346788689426154893248617
125,1.50678243205758441011603205597144
126,1.50838751592763095355385025003495
127,1.50997989937138252477403250511668
128,1.51155978186790833861568343585165
129,1.51312735823211351610773146510854
130,1.51468281875905477534530054317852
131,1.51622634936271643119436485408806
132,1.51775813170949903612554899815311
133,1.51927834334666121289399927325987
134,1.52078715782594395382336676124361
135,1.52228474482258855310947204224051
136,1.52377127024995565102886245739252
137,1.52524689636993956099386384383064
138,1.52671178189935843840516437116393
139,1.52816608211249874434730761742486
140,1.52960994893997701120424666450438
141,1.53104353106407735978214070982457
142,1.53246697401071514425945784914617
143,1.53388042023816845111524971315667
144,1.53528400922271199854933785624693
145,1.53667787754128379514922197558013
146,1.53806215895130704780745844023991
147,1.53943698446778160592732770207790
148,1.54080248243776027092125165296393
149,1.54215877861231177193211768688565
150,1.54350599621607404863055325700174
151,1.54484425601449375531725815990668
152,1.54617367637884228547506830312863
153,1.54749437334909726643859408145822
154,1.54880646069477342339730206305047
155,1.55011004997378104869821407083255
156,1.55140525058938994278426213216798
157,1.55269216984536987334429632954820
158,1.55397091299937937074832134159467
159,1.5552415833146665325734783715683
160,1.5565042821101481747306166203217
161,1.5577591088089258252825120642796
162,1.5590061609852980220252551636903
163,1.5602455344103237671021669521663
164,1.5614773230959917752153838956917
165,1.5627016193380441156227934237658
166,1.5639185137575047634791699991514
167,1.5651280953409602928110260174766
168,1.5663304514796354000087503399284
169,1.5675256680073083198966903045534
170,1.5687138292371058774669303810331
171,1.5698950179972183697075896675002
172,1.5710693156655721441535899003380
173,1.5722368022034952764606348611702
174,1.5733975561884121904864083290290
175,1.5745516548456012057819718457136
176,1.5756991740790447188161114809956
177,1.5768401885014052784400608102310
178,1.5779747714631567099586900016705
179,1.5791029950808967327238743592754
180,1.5802249302648720176187967890963
181,1.5813406467457383329891672564942
182,1.5824502131005834743765212640047
183,1.5835536967782360272973020894080
184,1.5846511641238842045734171924943
185,1.5857426804030265663072161545960
186,1.5868283098247755910897762645392
187,1.5879081155645378989092870378474
188,1.5889821597860865620432497972063
189,1.5900505036630492349913896305143
190,1.5911132073998277544929659909692
191,1.5921703302519684321459711017087
192,1.5932219305459994217962295317183
193,1.5942680656987534655086816825645
194,1.5953087922361893588672521196905
195,1.5963441658117300679252208207200
196,1.5973742412241311896686326504239
197,1.5983990724348941312758630707222
198,1.5994187125852381701143300419846
199,1.6004332140126442282896927432031
200,1.6014426282669843019083668526639
201,1.6024470061262475214319798796969
202,1.6034463976118762192349728321986
203,1.6044408520037226590471557006244
204,1.6054304178546380421425926576278
205,1.6064151430047037555866679206837
206,1.6073950745951178812380613596615
207,1.6083702590817428361309733995545
208,1.6093407422483283656420227045040
209,1.6103065692194156322692381353883
210,1.6112677844729338956219937590005
211,1.6122244318524971425781253029443
212,1.6131765545794108947300944728135
213,1.6141241952643935710079926385414
214,1.6150673959190273811626841181785
215,1.6160061979669379563335930761478
216,1.6169406422547166711514398833304
217,1.6178707690625896164110894377749
218,1.6187966181148421947572785256887
219,1.6197182285900026123117973232727
220,1.6206356391307967743625324747356
221,1.6215488878538724873967151801105
222,1.6224580123593101648361646603600
223,1.6233630497399135972980347421024
224,1.6242640365902958466714285207565
225,1.6251610090157628205444097228252
226,1.6260540026409980649142758696160
227,1.6269430526185574180193965572487
228,1.6278281936371753354837930912748
229,1.6287094599298900389095769423360
230,1.6295868852819921741453069613948
231,1.6304605030387987684845141357712
232,1.6313303461132628956987158146656
233,1.6321964469934140343928196789221
234,1.6330588377496452657321433662916
235,1.6339175500418404816241771073621
236,1.6347726151263513021063613682402
237,1.6356240638628273220495548019180
238,1.6364719267209014181706265764064
239,1.6373162337867355519160878066628
240,1.6381570147694292216151496444179
241,1.6389942990072948452317982013975
242,1.6398281154740029296465308654401
243,1.6406584927846010572209460809042
244,1.6414854592014083778610603042013
245,1.6423090426397899796695030079136
246,1.6431292706738136567332461738900
247,1.6439461705417904558113257396965
248,1.6447597691517065824553262506720
249,1.6455700930865416350567385820750
250,1.6463771686094835509201356871825
251,1.6471810216690381637676241011645
252,1.6479816779040361705675919288974
253,1.6487791626485425792842339844237
254,1.6495735009366682937981424447432
255,1.6503647175072877154204864158499
256,1.6511528368086624457607394777648
257,1.6519378830029774816854564706471
258,1.6527198799707863464199347047020
259,1.6534988513153719596363165319104
260,1.6542748203670236322255363693889
261,1.6550478101872304988033868478953
262,1.6558178435727961126756334709740
263,1.6565849430598730531419611901661
264,1.6573491309279229952896480584318
265,1.6581104292036007668021283656358
266,1.6588688596645645588125449717695
267,1.6596244438432155033319138012637
268,1.6603772030303666502483876906569
269,1.6611271582788456130943677736734
270,1.6618743304070266070030257054474
271,1.6626187400023011620879981225566
272,1.6633604074244814910876065814437
273,1.6640993528091439536650238374869
274,1.6648355960709098256589183344183
275,1.6655691569066672481408055529859
276,1.6663000547987326339081443409400
277,1.6670283090179590147037923791419
278,1.6677539386267830830857899590004
279,1.6684769624822224313926912124536
280,1.6691973992388150806502923517921
281,1.6699152673515091882234157102422
282,1.6706305850785004304611484910643
283,1.6713433704840202727621442309901
284,1.6720536414410722835755656843561
285,1.6727614156341232995782053906280
286,1.6734667105617454667534132647926
287,1.6741695435392142166431100528796
288,1.6748699317010585795289491993497
289,1.6755678920035684825870674539604
290,1.6762634412272597655236837453675
291,1.6769565959792947546120580927372
292,1.6776473726958612800171662239317
293,1.6783357876445140421630979995762
294,1.6790218569264733640374962533079
295,1.6797055964788834165579752368211
296,1.6803870220770375025404928355832
297,1.6810661493365603309744294582068
298,1.6817429937155565983355871462719
299,1.6824175705167226797723532923724
300,1.6830898948894231807478816253858
301,1.6837599818317327605535317591134
302,1.6844278461924453206035032610609
303,1.6850935026730477306164987689335
304,1.6857569658296616701911711235881
305,1.6864182500749550142787073780195
306,1.6870773696800220257495479199450
307,1.6877343387762295370046258014523
308,1.6883891713570365990567136387360
309,1.6890418812797836873441337650090
310,1.6896924822674517994206035674706
311,1.6903409879103950394206006750237
312,1.6909874116680442024300245228336
313,1.6916317668705827515078013906188
314,1.6922740667205969916290353539590
315,1.6929143242946997601897067551826
316,1.6935525525451290097121039026210
317,1.6941887643013188213524898508635
318,1.6948229722714482004535790698704
319,1.6954551890439647957002997175300
320,1.6960854270890835431343090229589
321,1.6967136987602641539586414326540
322,1.6973400162956635605602298935413
323,1.6979643918195668347865368372633
324,1.6985868373437955556129525660256
325,1.6992073647690953881787349335118
326,1.6998259858865011114150601751750
327,1.7004427123786819150175418582676
328,1.7010575558212641549550345220987
329,1.7016705276841365423695613217477
330,1.7022816393327341975308598906216
331,1.7028909020293030074182322343506
332,1.7034983269341453481505778630804
333,1.7041039251068475507990678933590
334,1.7047077075074872945845484205456
335,1.7053096849978252423712863560260
336,1.7059098683424769764873208570751
337,1.7065082682100681070962190226963
338,1.7071048951743736119508812077625
339,1.7076997597154374720150040249629
340,1.7082928722206786942713282327657
341,1.7088842429859794352725583630740
342,1.7094738822167577225633086836408
343,1.7100618000290244117405800343102
344,1.7106480064504243728383178942631
345,1.7112325114212637253489852454710
346,1.7118153247955205966553909397372
347,1.7123964563418429692097108272567
348,1.7129759157445304281625102871192
349,1.7135537126045033543446002733725
350,1.7141298564402571049208056323625
351,1.7147043566888032692982685563433
352,1.7152772227065976826328768252661
353,1.7158484637704544812911579086632
354,1.7164180890784476147227910650011
355,1.7169861077508001790071144804026
356,1.7175525288307597818412560677963
357,1.7181173612854631779944368528244
358,1.7186806140067894192152222504225
359,1.7192422958121972637168240388670
360,1.7198024154455557831459104187019
361,1.7203609815779599118903098113894
362,1.7209180028085374203130281478448
363,1.7214734876652419075123394769947
364,1.7220274446056368375896372716680
365,1.7225798820176688557797722142371
366,1.7231308082204292621015420810296
367,1.7236802314649065345270311493852
368,1.7242281599347266903872937566675
369,1.7247746017468861185489920911689
370,1.7253195649524725955259072942550
371,1.7258630575373773388242729954913
372,1.7264050874229970539907256933096
373,1.7269456624669259420678647139565
374,1.7274847904636419759273455287428
375,1.7280224791451781370399316279788
376,1.7285587361817900688882874947274
377,1.7290935691826119362234314396483
378,1.7296269856963036575663492296254
379,1.7301589932116913507465826917448
380,1.7306895991583977482327805805816
381,1.7312188109074654576813852774796
382,1.7317466357719701858629724396363
383,1.7322730810076286006183399250583
384,1.7327981538133957945346682596298
385,1.7333218613320559715861489488925
386,1.7338442106508070153812253475051
387,1.7343652088018346883412101748977
388,1.7348848627628803985967406226872
389,1.7354031794578032092753319495852
390,1.7359201657571332792725594291112
391,1.7364358284786170524333230828682
392,1.7369501743877578035060589195451
393,1.7374632101983490143408782774247
394,1.7379749425729991614134077627147
395,1.7384853781236507715309977930586
396,1.7389945234120933965728056720882
397,1.7395023849504701371552455088124
398,1.7400089692017777233406198673405
399,1.7405142825803587181633990885975
400,1.7410183314523901439144518888972
401,1.7415211221363645800860813029507
402,1.7420226609035644781766249667639
403,1.7425229539785325140773119863845
404,1.7430220075395358711132122881968
405,1.7435198277190219191660884296861
406,1.7440164206040713988957090694221
407,1.7445117922368462277619813946440
408,1.7450059486150294310239193333428
409,1.7454988956922600587743290488113
410,1.7459906393785656034706962758407
411,1.7464811855407861779617804033412
412,1.7469705400029940365813531580014
413,1.7474587085469095183501584018633
414,1.7479456969123098361131692286581
415,1.7484315107974349955567575404079
416,1.7489161558593872737200553524880
417,1.7493996377145271054689547555430
418,1.7498819619388625411508955441854
419,1.7503631340684365539233843656066
420,1.7508431595997071786597700024042
421,1.7513220439899244345977162744885
422,1.7517997926575033133137476768991
423,1.7522764109823906681456284378757
424,1.7527519043064296187682865859993
425,1.7532262779337178502639349108173
426,1.7536995371309634135074919175480
427,1.7541716871278355114768608586890
428,1.7546427331173102851563515156111
429,1.7551126802560155114002011677375
430,1.7555815336645670748414419289928
431,1.7560492984279047174788401953451
432,1.7565159795956242154353845157014
433,1.7569815821823013207629217942018
434,1.7574461111678185662081126979004
435,1.7579095714976827565912156567445
436,1.7583719680833410477650335853425
437,1.7588333058024937744999311719541
438,1.7592935894994030093354267075618
439,1.7597528239851975336781681184887
440,1.7602110140381752923350553044860
441,1.7606681644041004913090060824755
442,1.7611242797964989024778456569111
443,1.7615793648969510228257717862307
444,1.7620334243553777075715945166083
445,1.7624864627903276078253834273221
446,1.7629384847892574370949938566143
447,1.7633894949088122357835617916632
448,1.7638394976750988518501644125844
449,1.7642884975839604781099572592663
450,1.7647364991012443985850458446887
451,1.7651835066630704469707079134256
452,1.7656295246760930185348330804838
453,1.7660745575177623784913342490694
454,1.7665186095365816557655209027313
455,1.7669616850523631459917022324512
456,1.7674037883564792207101542152436
457,1.7678449237121125384379202905541
458,1.7682850953545019534765957057034
459,1.7687243074911866363488410089102
460,1.7691625643022480481724734286265
461,1.7695998699405476186628435519410
462,1.7700362285319633407790166952892
463,1.7704716441756238857496961734326
464,1.7709061209441383993493402155661
465,1.7713396628838259481238458981188
466,1.7717722740149417462266189304444
467,1.7722039583318994433443930340857
468,1.7726347198034944893163358147633
469,1.7730645623731210521060578699935
470,1.7734934899589900136290737113450
471,1.7739215064543423105040586326070
472,1.7743486157276619173010211041199
473,1.7747748216228838231492487304452
474,1.7752001279596045056590809465314
475,1.7756245385332838248719213687329
476,1.7760480571154508510029057144734
477,1.7764706874539039589313704874762
478,1.7768924332729098653851227123862
479,1.7773132982734004981599120458887
480,1.7777332861331680919113356493968
481,1.7781524005070570613500931418708
482,1.7785706450271562205816667169545
483,1.7789880233029867285424031053813
484,1.7794045389216885802390471808687
485,1.7798201954482071206209020690962
486,1.7802349964254741658284192530031
487,1.7806489453745905805513581028403
488,1.7810620457950049079321830821044
489,1.7814743011646912800630794170427
490,1.7818857149403244720683750479951
491,1.7822962905574542339190230177007
492,1.7827060314306774880286577889657
493,1.7831149409538083674987416985281
494,1.7835230225000471889107098000234
495,1.7839302794221465520150455074715
496,1.7843367150525778105913710602355
497,1.7847423327036935998500481251595
498,1.7851471356678903654758541297393
499,1.7855511272177683914802598875652
500,1.785954310606291457175634852899
501,1.786356689066941869122811660557
502,1.786758265813878323040115439157
503,1.787159044042088063605227368493
504,1.787559026927541185787892989544
505,1.787958217627339924975874157863
506,1.788356619279868665774479355882
507,1.788754235004942517295653234585
508,1.789151067903954094680986351932
509,1.789547121060016737529388523782
510,1.789942397538110218244445824142
511,1.790336900385222171151795322451
512,1.790730632630489142355623094430
513,1.791123597285335875842756666164
514,1.791515797343613512068983092324
515,1.791907235781737073096436194375
516,1.792297915558820444442729588752
517,1.792687839616809928203239926377
518,1.793077010880618152656319000409
519,1.793465432258255120118594373131
520,1.793853106640959249877550645778
521,1.794240036903325211254065184138
522,1.794626225903432822819971452322
523,1.795011676482973454752180320378
