Eigenstate,Potential Energy
1,0.500000000018173454424720009779191046
2,0.64623093776974140628743339244753394
3,0.73633761005343184815973939416079572
4,0.79966527854003231306090950300125918
5,0.8480465765429065914443034356503249
6,0.8870659988156904747599656025913709
7,0.9197208267960712998497342473174986
8,0.9477838468607444082756232007107578
9,0.9723835580158467759210546897592040
10,0.9942802144098624019135108164476405
11,1.0140093861837714557497586454832741
12,1.0319621686421615418598787080907959
13,1.0484326918508084100474788019691147
14,1.0636476534928311025096833711876952
15,1.0777854346828729887610962070461036
16,1.090988904837544479325384196905098
17,1.103374255136925930873017219036954
18,1.115037249530766237404479816368643
19,1.126057747842459914735645140918966
20,1.136503043402983212459783458482512
21,1.146430369132591083386454775466694
22,1.155888808699557182276653913944760
23,1.164920774456698433087196064281484
24,1.173563164841797129994819315267045
25,1.181848281173527290503735649185719
26,1.189804561459042380758048233161338
27,1.197457173356551134755249788917234
28,1.204828497534357381891302054502216
29,1.211938524872811977035140001152798
30,1.218805185306137358918429732213397
31,1.225444621955146763175470152124457
32,1.231871421123980532097971947478853
33,1.238098806424334159377971779589362
34,1.244138803540106442216084522905207
35,1.250002380806201047678917272634951
36,1.255699569741735921806925533437379
37,1.261239568873830421593390254033258
38,1.266630833557721306924681941098259
39,1.271881154001110080143728686985343
40,1.276997723304823377426121685320095
41,1.281987197015117842496496043575481
42,1.286855745427968311755785128870548
43,1.291609099679191795013399674103466
44,1.296252592486165720547218876922057
45,1.300791194269329344244741791588115
46,1.305229545268520940008322798149179
47,1.309571984175726776295341596789712
48,1.313822573728231519432341046351044
49,1.317985123641497160459407186359974
50,1.32206321120697484861935974154806
51,1.32606019983458705214354426012384
52,1.32997925578127225269482137759525
53,1.33382336327453426128924591533299
54,1.33759533821237711206764126435834
55,1.34129784059753099778140510812176
56,1.34493338584380014073594566993780
57,1.34850435507516452781975609608828
58,1.35201300452347025195927690727099
59,1.35546147411778925506722411523297
60,1.35885179534750475985207129168020
61,1.36218589847161445035377586791895
62,1.36546561913844245595907342449844
63,1.36869270447270930463057249584763
64,1.37186881868059653116308237930679
65,1.37499554821790778630885942076632
66,1.37807440656158095356036334831194
67,1.38110683862054348905410951775828
68,1.38409422481814703925138311830519
69,1.38703788487510472032538459916100
70,1.38993908131892617492095664727054
71,1.39279902274324681822228131998702
72,1.39561886683814944288460402482556
73,1.39839972321052334598282795946103
74,1.40114265601168729257738631346185
75,1.40384868638787152939503122903651
76,1.40651879476770450536714298201598
77,1.40915392299954755735026783502662
78,1.41175497635035502117350811094539
79,1.41432282537669040816532273578456
80,1.41685830767759116166793926892391
81,1.41936222953812516657106685682336
82,1.42183536747172073434317041704371
83,1.42427846966866305224896284243840
84,1.42669225735752579372570761245199
85,1.42907742608574731071726989284371
86,1.43143464692504496337559828896842
87,1.43376456760690367173945419417710
88,1.43606781359295139626455241880673
89,1.43834498908465075191780075288510
90,1.44059667797639274381905153211416
91,1.44282344475575716036312673136078
92,1.44502583535441586221573284791269
93,1.44720437795289295052129021415942
94,1.44935958374215286892258939353337
95,1.45149194764476633996318708847141
96,1.45360194899820221432704687818477
97,1.45569005220260896926030136007572
98,1.45775670733527671822534963428463
99,1.45980235073381712164833114532250
100,1.46182740554995224820500881841363
101,1.46383228227567413193555910538831
102,1.46581737924341119575774124474936
103,1.46778308310172979833500140622476
104,1.46972976926799189654567321562076
105,1.47165780235929674204253979050246
106,1.47356753660294376614830847985446
107,1.47545931622757572537712880436117
108,1.47733347583608194031791113234363
109,1.47919034076127286708103758027425
110,1.48103022740527482038498634529310
111,1.48285344356352780616089412512897
112,1.48466028873421998791957661611089
113,1.48645105441393677533147477376660
114,1.48822602438025376571364787127504
115,1.48998547496196232061535518658178
116,1.49172967529756822804556538189366
117,1.49345888758267218787893669603378
118,1.49517336730679982687128139393690
119,1.49687336348021523599919675083675
120,1.49855911885122618060358178443799
121,1.50023087011445086657252268970515
122,1.50188884811049723266624943788160
123,1.50353327801747354615486339018320
124,1.50516437953473139913087032521642
125,1.50678236705921263659546494958724
126,1.50838744985475655011993071928772
127,1.50997983221470309299713237709197
128,1.51155971361810528560819249794318
129,1.51312728887985190649133073820440
130,1.51468274829498318273258041785601
131,1.51622627777746678918001701672974
132,1.51775805899368648878234212599102
133,1.51927826949088396476871788474356
134,1.52078708282078311942785503137345
135,1.52228466865860800590190458443133
136,1.52377119291770187188035007856213
137,1.52524681785994148613545671650333
138,1.52671170220212730685028260845597
139,1.52816600121852794478462647626970
140,1.52960986683974192835601366849593
141,1.53104344774803522022287407430743
142,1.53246688946930486168996299417357
143,1.53388033446181047108684090213560
144,1.53528392220180814263314013802702
145,1.53667778926621710454538937063369
146,1.53806206941244162638911951030303
147,1.53943689365546246271402220699683
148,1.54080239034231316197662521705778
149,1.54215868522404304168058255438510
150,1.54350590152527047058760081724635
151,1.54484416001142237222808160264376
152,1.54617357905375024885611436328677
153,1.54749427469221167551663173256874
154,1.54880636069630116344058364269284
155,1.55010994862390862873424013588360
156,1.55140514787828333269864356174165
157,1.55269206576317434035518836414901
158,1.55397080753621931525084601155594
159,1.5552414764606453233485349064553
160,1.5565041738553479835124256800318
161,1.5577589991434074606792522949702
162,1.5590060498991007627870329606627
163,1.5602454218934651947306397270158
164,1.5614772091384676059091955674306
165,1.5627015039298280315530442577854
166,1.5639183968885482433890643676031
167,1.5651279770011924419338018147480
168,1.5663303316589627792979644292218
169,1.5675255466956147745629134236944
170,1.5687137064242523648148474710726
171,1.5698948936730427862674648464758
172,1.5710691898198891521010134651405
173,1.5722366748260961293184693991627
174,1.5733974272690645581027541159157
175,1.5745515243740489985779669275635
176,1.5756990420450079112973485777175
177,1.5768400548945797319653305633825
178,1.5779746362732139947597654251140
179,1.5791028582974839491699562329628
180,1.5802247918776116167192529783362
181,1.5813405067442279361281051504517
182,1.5824500714743956922727569129850
183,1.5835535535169182781831560777904
184,1.5846510192169585315858235800219
185,1.5857425338399894540845058753279
186,1.5868281615950977815675071617441
187,1.5879079656576642063084140788508
188,1.5889820081914356870439271285867
189,1.5900503503700135780855813653665
190,1.5911130523977732285090605584618
191,1.5921701735302342739385400480517
192,1.5932217720938980030939907183207
193,1.5942679055055701029137089241330
194,1.5953086302911821229984209032667
195,1.5963440021041295916988311482271
196,1.5973740757431404757090947106276
197,1.5983989051696883584492975117891
198,1.5994185435249644991778637190599
199,1.6004330431464216066492191385848
200,1.6014424555839032674774444249293
201,1.6024468316153700055845343577797
202,1.6034462212622353488443689723714
203,1.6044406738043225576042076943771
204,1.6054302377944536299449997259776
205,1.6064149610726805489922972822454
206,1.6073948907801717909744907324000
207,1.6083700733727599646536110946723
208,1.6093405546341648035330678675581
209,1.6103063796888972536697434545919
210,1.6112675930148561526891881698285
211,1.6122242384556248589600789324543
212,1.6131763592324780580498313840351
213,1.6141239979561031243490216484584
214,1.6150671966380510135479058806699
215,1.6160059967019158921894704075326
216,1.6169404389942574587492471074722
217,1.6178705637952699152770474415136
218,1.6187964108292065620432387213909
219,1.6197180192745632881181683846363
220,1.6206354277740334660050204029130
221,1.6215486744442321526083961961061
222,1.6224577968852067938963937985345
223,1.6233628321897279940795836443719
224,1.6242638169523754085971633576446
225,1.6251607872784213174448479598809
226,1.6260537787925154167771813499632
227,1.6269428266471794716226135157162
228,1.6278279655311136399023956649308
229,1.6287092296773216198883124124758
230,1.6295866528710593073273381411476
231,1.6304602684576087514873467026660
232,1.6313301093498878190280990967277
233,1.6321962080358905511854001868655
234,1.6330585965859743603175409022741
235,1.6339173066599872368971006097645
236,1.6347723695142446656993175412706
237,1.6356238160083598712966009358554
238,1.6364716766119291238525870928103
239,1.6373159814110775407775440462155
240,1.6381567601148675376434780657085
241,1.6389940420615742096884252708164
242,1.6398278562248304998405170670751
243,1.6406582312196461840149171883970
244,1.6414851953083023618994698532371
245,1.6423087764061258263190632245864
246,1.6431290020871458297253838409473
247,1.6439458995896346295763322282471
248,1.6447594958215393931378700899916
249,1.6455698173658004302023136883695
250,1.6463768904855661378219305791361
251,1.6471807411293025564631633226680
252,1.6479813949358003354745442557935
253,1.6487788772390841794646066971326
254,1.6495732130732244318399608114340
255,1.6503644271770546749261005087351
256,1.6511525439987954314307046220355
257,1.6519375877005903579868938091767
258,1.6527195821629513748281891860041
259,1.6534985509891195344386220462995
260,1.6542745175093420148753525090909
261,1.6550475047850655508139159431942
262,1.6558175356130510270410065131070
263,1.6565846325294080842744357331873
264,1.6573488178135551874610946171439
265,1.6581101134921036810780072858232
266,1.6588685413426679984664270433271
267,1.6596241228976052377285460027842
268,1.6603768794476841371832144013882
269,1.6611268320456877195772973726440
270,1.6618740015099453284741226875931
271,1.6626184084278033400527482714612
272,1.6633600731590285291592167454284
273,1.6640990158391515320011581104648
274,1.6648352563827476137802165320038
275,1.6655688144866586161183442559712
276,1.6662997096331543619069452093767
277,1.6670279610930410008693478979599
278,1.6677535879287080497605453346013
279,1.6684766089971256296492123112723
280,1.6691970429527839931277986277651
281,1.6699149082505832302542731875307
282,1.6706302231486706494737067258763
283,1.6713430057112290459463439969082
284,1.6720532738112130137974948940884
285,1.6727610451330401095297168997402
286,1.6734663371752328913228373893170
287,1.6741691672530168934929437353698
288,1.6748695525008709378662664607136
289,1.6755675098750344301123340072969
290,1.6762630561559723735434712209926
291,1.6769562079507959413010947860675
292,1.6776469816956414918151222678990
293,1.6783353936580119332911307010346
294,1.6790214599390754741195629161482
295,1.6797051964759238463320523598948
296,1.6803866190437975876442999351025
297,1.6810657432582683137904965489946
298,1.6817425845773872978799854065527
299,1.6824171583037971596117388831901
300,1.6830894795868084149289685303758
301,1.6837595634244412975292800670893
302,1.6844274246654349451398737561095
303,1.6850930780112211236637909980648
304,1.6857565380178660667036211117204
305,1.6864178190979818589660038025845
306,1.6870769355226066267437148753684
307,1.6877339014230507174255595190059
308,1.6883887307927163464595579166120
309,1.6890414374888868010316756444955
310,1.6896920352344855356033346068272
311,1.6903405376198087542074970969760
312,1.6909869581042289926323609787035
313,1.6916313100178710932386248866963
314,1.6922736065632623766806455287373
315,1.6929138608169563301711681813293
316,1.6935520857311311879287270119895
317,1.6941882941351609424094196214577
318,1.6948224987371641375648255576415
319,1.6954547121255275856850280366937
320,1.6960849467704050090815709597625
321,1.6967132150251945255418444899346
322,1.6973395291279910919823148198369
323,1.6979639012030174203368553479425
324,1.6985863432620323428164411225571
325,1.6992068672057183885179832260863
326,1.6998254848250468086056349712504
327,1.7004422078026228708168291940422
328,1.7010570477140086124844800443826
329,1.7016700160290280269303429664891
330,1.7022811241130511148925339508774
331,1.7028903832282582395599503507532
332,1.7034978045348858464340417917542
333,1.7041033990924539265525742049381
334,1.7047071778609734070768414417623
335,1.7053091517021377841541306329662
336,1.7059093313804950560854128942791
337,1.7065077275646028290226081907095
338,1.7071043508281676540262990259233
339,1.7076992116511646599690676896691
340,1.7082923204209435736032478062613
341,1.7088836874333168403492116559318
342,1.7094733228936323429319278593874
343,1.7100612369178303556331868826952
344,1.7106474395334847278451744977967
345,1.7112319406808301162375943748765
346,1.7118147502137727403116447790388
347,1.7123958779008882266777137201530
348,1.7129753334264033537591670130405
349,1.7135531263911652418247952124109
350,1.7141292663135955306691113694063
351,1.7147037626306316325224671194609
352,1.7152766246986547425347802154189
353,1.7158478617944038911896405104212
354,1.7164174831158774531039761698355
355,1.7169854977832224774761765881713
356,1.7175519148396100499503536029737
357,1.7181167432520999249208127976877
358,1.7186799919124936722635425149558
359,1.7192416696381720836191464463784
360,1.7198017851729257761328958721365
361,1.7203603471877707385068702623509
362,1.7209173642817553009511928491512
363,1.7214728449827531246342229473200
364,1.7220267977482472346127071984564
365,1.7225792309661033325967789294943
366,1.7231301529553312672069672242082
367,1.7236795719668375537216679359325
368,1.7242274961841657320324914943678
369,1.7247739337242291953414520090652
370,1.7253188926380322027641471480815
371,1.7258623809113819291372617070557
372,1.7264044064655905084988617599582
373,1.7269449771581670379466309128571
374,1.7274841007835038503430797588640
375,1.7280217850735477474274396417156
376,1.7285580376984676495394135455972
377,1.7290928662673104511554433587526
378,1.7296262783286482496386727307522
379,1.7301582813712187869943864378082
380,1.7306888828245558613854850213772
381,1.7312180900596125838333512023598
382,1.7317459103893745982644106567181
383,1.7322723510694679395530266700773
384,1.7327974192987564932515099504322
385,1.7333211222199326782510660622196
386,1.7338434669201020110154008048587
387,1.7343644604313573007115767121097
388,1.7348841097313464120243134476184
389,1.7354024217438342703265362918762
390,1.7359194033392562982981802144624
391,1.7364350613352636009199076849634
392,1.7369494024972635072037555226181
393,1.7374624335389529421315495245076
394,1.7379741611228432098826025484477
395,1.7384845918607790452068181590570
396,1.7389937323144515837943957963194
397,1.7395015889959048815334371124003
398,1.7400081683680359907728134614344
399,1.7405134768450871593641737878911
400,1.7410175207931344524234027473814
401,1.7415203065305688457137459220832
402,1.7420218403285705358490481941314
403,1.7425221284115792880394360671647
404,1.7430211769577587144510121384245
405,1.7435189920994519486065624742164
406,1.7440155799236348248440642458177
407,1.7445109464723636795343925610513
408,1.7450050977432152772340029119926
409,1.7454980396897217228313626082156
410,1.7459897782218028741467943552516
411,1.7464803192061905149850004925121
412,1.7469696684668478712113124632434
413,1.7474578317853855488920849825842
414,1.7479448149014703183263756278072
415,1.7484306235132310279124431160311
416,1.7489152632776580774634096526036
417,1.7493987398109992994399219777258
418,1.7498810586891494113173015679358
419,1.7503622254480373175800753319897
420,1.7508422455840062432465814288264
421,1.7513211245541906510888321423312
422,1.7517988677768892241304150926346
423,1.7522754806319317495439049704468
424,1.7527509684610435176526981088943
425,1.7532253365682036153777987279483
426,1.7536985902200007209497136256350
427,1.7541707346459838844951612359962
428,1.7546417750390083081656634225374
429,1.7551117165555800381749092289955
430,1.7555805643161924308294519242682
431,1.7560483234056618961851136795032
432,1.7565149988734600688217550257750
433,1.7569805957340377436107719601163
434,1.7574451189671516743895948649813
435,1.7579085735181820591947198339377
436,1.7583709642984486130193695739301
437,1.7588322961855233894415915489638
438,1.7592925740235393331625932689161
439,1.7597518026234952447345616644355
440,1.7602099867635582286660075684459
441,1.7606671311893607847319029065216
442,1.7611232406142961061080723967029
443,1.7615783197198112319989575254813
444,1.7620323731556926741021596312855
445,1.7624854055403538475410047322991
446,1.7629374214611153305860092670136
447,1.7633884254744851223050962193759
448,1.7638384221064321163150197009882
449,1.7642874158526606311089387820770
450,1.7647354111788781493713050460547
451,1.7651824125210637693433827301020
452,1.7656284242857302095572345246366
453,1.7660734508501851099779483157083
454,1.7665174965627880184712659195324
455,1.7669605657432066864365174058437
456,1.7674026626826679705711304250510
457,1.7678437916442080364403115674105
458,1.7682839568629182597147363803822
459,1.7687231625461893389668513138964
460,1.7691614128739532623341622888325
461,1.7695987119989209777393732914078
462,1.7700350640468189796821078249800
463,1.7704704731166234163375499770322
464,1.7709049432807898778314939603830
465,1.7713384785854828343905676339414
466,1.7717710830508018550273519491330
467,1.7722027606710038872394357187809
468,1.7726335154147266133247223216015
469,1.7730633512252053599720872745718
470,1.7734922720204910856287174170054
471,1.7739202816936637127120878898914
472,1.7743473841130451022386289495539
473,1.7747735831224070217310020382110
474,1.7751988825411816103573231707490
475,1.7756232861646632640157071295475
476,1.7760467977642144541279656845187
477,1.7764694210874658130962633273295
478,1.7768911598585151623682241413415
479,1.7773120177781243724506496231031
480,1.7777319985239144494084773930264
481,1.7781511057505573986784661054066
482,1.7785693430899684349384568633199
483,1.7789867141514939179822520150775
484,1.7794032225220978343072369201557
485,1.7798188717665483012418673317563
486,1.7802336654275986783568179746581
487,1.7806476070261701348912069051547
488,1.7810607000615302696288639939793
489,1.7814729480114710112717564304112
490,1.7818843543324836623015302253277
491,1.7822949224599332204747870341558
492,1.7827046558082305660001031666975
493,1.7831135577710024892637523875557
494,1.7835216317212606530005394470333
495,1.7839288810115676812588989072229
496,1.7843353089742036194326809393344
497,1.7847409189213284507295127886254
498,1.7851457141451446141749407493501
499,1.7855496979180570213174835985143
500,1.785952873492832701947127515425
501,1.786355244102755824677101756208
502,1.786756812961785547375982718420
503,1.787157583264708165380335977125
504,1.787557558187291401124584715008
505,1.787956740886433682449123759158
506,1.788355134500314139465757156160
507,1.788752742148541167795381859245
508,1.789149566932299197920416937284
509,1.789545611934491901322179035425
510,1.789940880219887886416092550635
511,1.790335374835262115134028200507
512,1.790729098809536940121547452295
513,1.791122055153921378057106388460
514,1.791514246862049295326125594862
515,1.791905676910116880117726800887
516,1.792296348257017611103031273874
517,1.792686263844475797255452825011
518,1.793075426597180474020259515228
519,1.793463839422916437600220978246
520,1.793851505212695274182018344450
521,1.794238426840883179155411220475
522,1.794624607165329842347719539050
523,1.795010049027494836254349988012
