Eigenstate,Potential Energy
1,0.500000000114357480059274793803528623
2,0.64623093839758318607091093888793482
3,0.73633761189767820794277077104656946
4,0.79966528238142054780808166906354028
5,0.8480465831970513797334670418124765
6,0.8870660091125278086147282394913081
7,0.9197208415722909978385135180728501
8,0.9477838669566401357893505420707036
9,0.9723835842738567924058546011948825
10,0.9942802476738339866034800900050701
11,1.0140094272985660152765536496491942
12,1.0319622184534333312309377312946329
13,1.0484327512048777764920519618079011
14,1.0636477232366121345661629874284008
15,1.0777855156638339943032151405720139
16,1.090988997903689092514590553082901
17,1.103374361136787645486764268573460
18,1.115037369313411951860189823917481
19,1.126057882257499692606083142009562
20,1.136503193300584435424488445526062
21,1.146430535363495777174572806648162
22,1.155888992115101681080384134653321
23,1.164920975908834799569597521484144
24,1.173563385183115916254841734935091
25,1.181848521257281340143302226267028
26,1.189804822139171451963569892041984
27,1.197457455487707180681329936570993
28,1.204828801971930365096602770078458
29,1.211938852472956124175926116561530
30,1.218805536925797783630501109842815
31,1.225444998452086401293988053252885
32,1.231871823356807345609293075303370
33,1.238099235252528574839074367233725
34,1.244139259824048996573591672293368
35,1.250002865407200220014504293637610
36,1.255700083522056133922805184521552
37,1.261240112696720193819416883573669
38,1.266631408287441558290565604342473
39,1.271881760502962564275660060682909
40,1.276998362445179247316979646167241
41,1.281987869661446338753759637338137
42,1.286856452448865570121718536135968
43,1.291609841944409769931709387060903
44,1.296253370866641222361000531723596
45,1.300792009637213188285454060826515
46,1.305230398497207206400173599440886
47,1.309572876139882179774243481729373
48,1.313823505303824888880349304106553
49,1.317986095705829028196658349248349
50,1.32206422463870714978690457510079
51,1.32606125551377293476075303933803
52,1.32998035458938599919069153812519
53,1.33382450609450132249392809192127
54,1.33759652592860425481361442536437
55,1.34129907409593656740633368849148
56,1.34493466601184443990495535874805
57,1.34850568280188031319585779132375
58,1.35201438069949335034996946750473
59,1.35546289963538930076331129024302
60,1.35885327110061605495460397996699
61,1.36218742535586694995688706273381
62,1.36546719805119288012208328561574
63,1.36869433631307237913256028092327
64,1.37187050434947635908814757407461
65,1.37499728861802935256163614506845
66,1.37807620259752176445858962250014
67,1.38110869119876534918958903847805
68,1.38409613484702796785257172275922
69,1.38703985326497100939467264304693
70,1.38994110898208459145688408601104
71,1.39280111059401695287376448290225
72,1.39562101579289620741814445854137
73,1.39840193418768962197781489747913
74,1.40114492993182673379664158480210
75,1.40385102417368152030970795512967
76,1.40652119734405927834562102848222
77,1.40915639129353147105135054679225
78,1.41175751129129600271400698378335
79,1.41432542789619356166163385842762
80,1.41686097870957254578016081010629
81,1.41936497001884574370759763828057
82,1.42183817833982049421234247020617
83,1.42428135186519531247301287509300
84,1.42669521182599168026115948768845
85,1.42908045377213042085467937470945
86,1.43143774877784621412015860067283
87,1.43376774457717633640329818365479
88,1.43607106663433633213034473566229
89,1.43834831915341182186261707893665
90,1.44060008603145243481683783031018
91,1.44282693175873240181420527975553
92,1.44502940226965404708121479369578
93,1.44720802574750816227097741843212
94,1.44936331338606231733534890198975
95,1.45149576011072700884975133446506
96,1.45360584526184772427635301768630
97,1.45569403324248665854245202331218
98,1.45776077413288494501589864697749
99,1.45980650427364279077150355290551
100,1.46183164681950856562587641467050
101,1.46383661226553859026500524223544
102,1.46582179894726379406748352103543
103,1.46778759351639149961403512849967
104,1.46973437139346332616500585888847
105,1.47166249719879713062936017417343
106,1.47357232516295014030710553248430
107,1.47546419951786234973127169472891
108,1.47733845486976001438204868594753
109,1.47919541655483048051214729216465
110,1.48103540097861717019763289038200
111,1.48285871594001767953073945229714
112,1.48466566094071851423848072579353
113,1.48645652748084445121683970805172
114,1.48823159934155175671526359781518
115,1.48999115285525404340360773100370
116,1.49173545716412121690660724099493
117,1.49346477446746024938447575454257
118,1.49517936025854548663350721176697
119,1.49687946355143248146462426164345
120,1.49856532709826350388425005699259
121,1.50023718759753461135747225704318
122,1.50189527589377524930173850386655
123,1.50353981716905915902831071100261
124,1.50517103112674769054023050030199
125,1.50678913216783705133385930533885
126,1.50839432956026582505349677854742
127,1.50998682760151851596351015438310
128,1.51156682577483828801318292553981
129,1.51313451889934999403197706960684
130,1.51469009727437620872652436268371
131,1.51623374681821357503365007388797
132,1.51776564920162179618369203838757
133,1.51928598197626582424441743559802
134,1.52079491869834051995969025782386
135,1.52229262904758895035364603257536
136,1.52377927894192180304205330895271
137,1.52525503064783208825110981287984
138,1.52672004288678568755242347488076
139,1.52817447093776620241952351274806
140,1.52961846673613710974353807353430
141,1.53105217896897967395625135800511
142,1.53247575316705699214373076029696
143,1.53388933179354589836430950416321
144,1.53529305432967127374940705726184
145,1.53668705735737312120714975271938
146,1.53807147463912889479973673162575
147,1.53944643719504537089939496199439
148,1.54081207337733539019624226567451
149,1.54216850894228127155861193361254
150,1.54351586711978853866851592579083
151,1.54485426868062587373532441732905
152,1.54618383200144159750396515769592
153,1.54750467312764562530098865948807
154,1.54881690583424079840934688721866
155,1.55012064168468182681534558687423
156,1.55141599008783970974240354322813
157,1.55270305835314268062589310985448
158,1.55398195174396549468445078087970
159,1.5552527735293307319746654205714
160,1.5565156250339884535228079159240
161,1.5577706056869327067090013770650
162,1.5590178130684143410620632434955
163,1.5602573429555049878209414957864
164,1.5614892893662668399180724073186
165,1.5627137446025768326617899431028
166,1.5639307992916557407694515184039
167,1.5651405424263494241330204916884
168,1.5663430614042049112972180868279
169,1.5675384420653863828061700223284
170,1.5687267687294707976030490024076
171,1.5699081242311633570134251535717
172,1.5710825899549706730412904214860
173,1.5722502458688670433817189476271
174,1.5734111705569896767395555903279
175,1.5745654412513968534628678884430
176,1.5757131338629187279229373329967
177,1.5768543230111340332581517453949
178,1.5779890820535018429594631115242
179,1.5791174831136748343279750513783
180,1.5802395971090250002884535399332
181,1.5813554937774044582327984195445
182,1.5824652417031690513680312464864
183,1.5835689083424877919348636435799
184,1.5846665600479623879256024160563
185,1.5857582620925786615216738522437
186,1.5868440786930108279650259872494
187,1.5879240730323024354634217068199
188,1.5889983072819394025438422283537
189,1.5900668426233388840459739156397
190,1.5911297392687696169367908120140
191,1.5921870564817229686028899995371
192,1.5932388525967510699301211740287
193,1.5942851850387903371271596038273
194,1.5953261103419837231853764223807
195,1.5963616841680196314474747848305
196,1.5973919613240011832973385102372
197,1.5984169957798602154099811988183
198,1.5994368406853301686584679123883
199,1.6004515483864907026542338398930
200,1.6014611704418979762423298764516
201,1.6024657576383115704966944179634
202,1.6034653600060314304954205779221
203,1.6044600268338554807266909171691
204,1.6054498066836695291637016804117
205,1.6064347474046794254952528338560
206,1.6074148961472984923901437273742
207,1.6083902993766961006045392320382
208,1.6093610028860216095219185922856
209,1.6103270518093094161449521659771
210,1.6112884906340766083298374452864
211,1.6122453632136205814167870761085
212,1.6131977127790268455788442750304
213,1.6141455819508914019809508743814
214,1.6150890127507726636390828912364
215,1.6160280466123721274159748093104
216,1.6169627243924577518188757382147
217,1.6178930863815339998521454744707
218,1.6188191723142675195911344314294
219,1.6197410213796717356332163807137
220,1.6206586722310628597755760370002
221,1.6215721629957852234388487304478
222,1.6224815312847231294326546404814
223,1.6233868142015927841304381500468
224,1.6242880483520293695922162897357
225,1.6251852698524718124225485811013
226,1.6260785143388487875537928738107
227,1.6269678169750746000535939704656
228,1.6278532124613567554169470133344
229,1.6287347350423223707480449758573
230,1.6296124185149681133364855344151
231,1.6304862962364354561652377815385
232,1.6313564011316216595401854523104
233,1.6322227657006214646227704963868
234,1.6330854220260156452120147428980
235,1.6339444017799995891628162365949
236,1.6347997362313616085003924050804
237,1.6356514562523145986558443573202
238,1.6364995923251827781369352376330
239,1.6373441745489489445222317090198
240,1.6381852326456644005111866369266
241,1.6390227959667258316977834055499
242,1.6398568934990219923441692073536
243,1.6406875538709542302607615031601
244,1.6415148053583325393665248653343
245,1.6423386758901515133852522656287
246,1.6431591930542487195997816890109
247,1.6439763841028468748041965528539
248,1.6447902759579874043786175514691
249,1.6456008952168503533714656034049
250,1.6464082681569710340937337624592
251,1.6472124207413513100393397979867
252,1.6480133786234683144418182871088
253,1.6488111671521856754916983445520
254,1.6496058113765669048991519879128
255,1.6503973360505948296661927123623
256,1.6511857656377971522816463021370
257,1.6519711243157845305360980021397
258,1.6527534359806976214785244628992
259,1.6535327242515698928369546317150
260,1.6543090124746065880894217635219
261,1.6550823237273801587329935035510
262,1.6558526808229468889844706498572
263,1.6566201063138835633099481077344
264,1.6573846224962496274630403054839
265,1.6581462514134733680963505515676
266,1.6589050148601642785250465491921
267,1.6596609343858548237342095171400
268,1.6604140312986716381983433808352
269,1.6611643266689404262941800285516
270,1.6619118413327202893226890489599
271,1.6626565958952767629834018642379
272,1.6633986107344875447618829364117
273,1.6641379060041883542551866021710
274,1.6648745016374561353748326859054
275,1.6656084173498334759433507241405
276,1.6663396726424925229862363071632
277,1.6670682868053458776965341021472
278,1.6677942789200962246964814847755
279,1.6685176678632361987572453682126
280,1.6692384723089905825528302307141
281,1.6699567107322087249971196400641
282,1.6706724014112046771746662709824
283,1.6713855624305482590667616178133
284,1.6720962116838042143843155026230
285,1.6728043668762262615576975200834
286,1.6735100455274020664342173156524
287,1.6742132649738541968037286213121
288,1.6749140423715934613673668765748
289,1.6756123946986292820768994441339
290,1.6763083387574378332527253789720
291,1.6770018911773857893189281425311
292,1.6776930684171125669820045853558
293,1.6783818867668749685679079598278
294,1.6790683623508492643909588554904
295,1.6797525111293928022817873202691
296,1.6804343489012727308373305674641
297,1.6811138913058517691434143390716
298,1.6817911538252403407690031394266
299,1.6824661517864118759596042211328
300,1.6831389003632830337283237810369
301,1.6838094145787592564011384651171
302,1.6844777093067477506897100125679
303,1.6851437992741350695911960774648
304,1.6858076990627328738398575199006
305,1.6864694231111933026567991399759
306,1.6871289857168932182698122790152
307,1.6877864010377845074555958899240
308,1.6884416830942179198580141769323
309,1.6890948457707365337080604851720
310,1.6897459028178391854798718461171
311,1.6903948678537174598052932361262
312,1.6910417543659637542330664476680
313,1.6916865757132518130661863962532
314,1.6923293451269915360696720143376
315,1.6929700757129573832499788872837
316,1.6936087804528917529347699448712
317,1.6942454722060808733888596442704
318,1.6948801637109085608739462102407
319,1.6955128675863849874190239806076
320,1.6961435963336504613031486114446
321,1.6967723623374581409695799759599
322,1.6973991778676317986283473428355
323,1.6980240550805021494563429720233
324,1.6986470060203207254467203453813
325,1.6992680426206530578483912208476
326,1.6998871767057494074279727276012
327,1.7005044199918958653610548023131
328,1.7011197840887430160503939812463
329,1.7017332805006171388836855180241
330,1.7023449206278103827978738056271
331,1.7029547157678513544859749525875
332,1.7035626771167571837811477044015
333,1.7041688157702674471257702114972
334,1.7047731427250581355538398094064
335,1.7053756688799399845883690783446
336,1.7059764050370372266307893316988
337,1.7065753619029496406833795307962
338,1.7071725500898989609058864428725
339,1.7077679801168557112383005974755
340,1.7083616624106525602134826227013
341,1.7089536073070799124031148730358
342,1.7095438250519662365697271993388
343,1.7101323258022427713220468939551
344,1.7107191196269926050589908037335
345,1.7113042165084859526937231626104
346,1.7118876263431991071945675959078
347,1.7124693589428206346177830743112
348,1.7130494240352416277656700283531
349,1.7136278312655335668840496005331
350,1.7142045901969113333295337579562
351,1.7147797103116834674789119069262
352,1.7153532010121893570230242741037
353,1.7159250716217226438886653766696
354,1.7164953313854422682409333711539
355,1.7170639894712715189179402201343
356,1.7176310549707833042734093214925
357,1.7181965369000748867652027177828
358,1.7187604442006313296950363634733
359,1.7193227857401734057773369824352
360,1.7198835703134989100985498352403
361,1.7204428066433091271126275897345
362,1.7210005033810269381729024815968
363,1.7215566691076011702489810845337
364,1.7221113123343022149863253435339
365,1.7226644415035071597925928312720
366,1.7232160649894733140653820225650
367,1.7237661910991030281763525971219
368,1.7243148280726965996953206471851
369,1.7248619840846979053152627271189
370,1.7254076672444284777184937219457
371,1.7259518855968128869484949942658
372,1.7264946471230943891716849507389
373,1.7270359597415408161440750903537
374,1.7275758313081450206379323335451
375,1.7281142696173105763641300632563
376,1.7286512824025341957696731883050
377,1.7291868773370766622865654115390
378,1.7297210620346254520122704082479
379,1.7302538440499508924102528752860
380,1.7307852308795526228091394374628
381,1.7313152299622992403667614613284
382,1.7318438486800582581464043094878
383,1.7323710943583210586826097035599
384,1.7328969742668178157068904136963
385,1.7334214956201260145136449757901
386,1.7339446655782732391191403212117
387,1.7344664912473299853213811021568
388,1.7349869796799964465166341389351
389,1.7355061378761839573178490161112
390,1.7360239727835882947342551948127
391,1.7365404912982551648353044294472
392,1.7370557002651414945711604389350
393,1.7375696064786700138809600925982
394,1.7380822166832757211670056056066
395,1.7385935375739471013620090427519
396,1.7391035757967617601778418118272
397,1.7396123379494161175463141523527
398,1.7401198305817491819021752232695
399,1.7406260601962589850116397826763
400,1.7411310332486159916561249197070
401,1.7416347561481695478801301761257
402,1.7421372352584481282699005756053
403,1.7426384768976562187201466221937
404,1.7431384873391657439944477391963
405,1.7436372728119995222470742563833
406,1.7441348395013128727839378589642
407,1.7446311935488705115784631281064
408,1.7451263410535162560901208166306
409,1.7456202880716384194053438307716
410,1.7461130406176334277291422857170
411,1.7466046046643619414145237753199
412,1.7470949861436010829487841720192
413,1.7475841909464938724592385021107
414,1.7480722249239923167822076789674
415,1.7485590938872984589772356985581
416,1.7490448036082998416088380976767
417,1.7495293598200022567302775174126
418,1.7500127682169569710751138026450
419,1.7504950344556867310819190271898
420,1.7509761641551055566378192493628
421,1.7514561628969363036209512800128
422,1.7519350362261253056564589960797
423,1.7524127896512519610248802070589
424,1.7528894286449369092534486721756
425,1.7533649586442452086091583614821
426,1.7538393850510881542814301157059
427,1.7543127132326212559676485438692
428,1.7547849485216384238124133011378
429,1.7552560962169663115728950546861
430,1.7557261615838517168719171726994
431,1.7561951498543495812746646305399
432,1.7566630662277087801615524751766
433,1.7571299158707510821836718126326
434,1.7575957039182544196092484143720
435,1.7580604354733283381545978000442
436,1.7585241156077895738394701427753
437,1.7589867493625359664300997911911
438,1.7594483417479177414991055300013
439,1.7599088977441068941800602172602
440,1.7603684223014657994881382497034
441,1.7608269203409122647009533406856
442,1.7612843967542846451298472809469
443,1.7617408564047067308066893261424
444,1.7621963041269470855056977274485
445,1.7626507447277822331434981368123
446,1.7631041829863547827045589190623
447,1.7635566236545337301802342376868
448,1.7640080714572702276964452240014
449,1.7644585310929567350216420857452
450,1.7649080072337817834866294817844
451,1.7653565045260879359651500930618
452,1.7658040275907258679605079793082
453,1.7662505810234103998139648330309
454,1.7666961693950749593357064661388
455,1.7671407972522281926500729608306
456,1.7675844691173081178738129293275
457,1.7680271894890386188459717939412
458,1.7684689628427847803706550223704
459,1.7689097936309096887187817377289
460,1.7693496862831324539681576852184
461,1.7697886452068854227961643428617
462,1.7702266747876739185263566307144
463,1.7706637793894372410190299853020
464,1.7710999633549092214491932911763
465,1.7715352310059824404195269524077
466,1.7719695866440733856449998936736
467,1.7724030345504879813662056946926
468,1.7728355789867926631734257714122
469,1.7732672241951836396923656394830
470,1.7736979743988620374413068028325
471,1.7741278338024093751109249345941
472,1.7745568065921678517612428959129
473,1.7749848969366209948093951869206
474,1.7754121089867823753019616834942
475,1.7758384468765815256413659811813
476,1.7762639147232597953755364388778
477,1.7766885166277667096952668432071
478,1.7771122566751617486104797318707
479,1.7775351389350206890668253384854
480,1.7779571674618471688544803545564
481,1.7783783462954882995113196753362
482,1.7787986794615581859228105190072
483,1.7792181709718650348690378954160
484,1.7796368248248449884842353706808
485,1.7800546450060044904668517938436
486,1.7804716354883661162748113950783
487,1.7808878002329250789014900525575
488,1.7813031431891113867040571078361
489,1.7817176682952612795488046976357
490,1.7821313794790962235706744714317
491,1.7825442806582120362192359344216
492,1.7829563757405771884083717676528
493,1.7833676686250407398961931814458
494,1.7837781632018515067698433701470
495,1.7841878633531871833911687257322
496,1.7845967729536972195845340026417
497,1.7850048958710557228808730052201
498,1.7854122359665289449240104284931
499,1.7858187970955554945563945312510
500,1.786224583108342086263064781709
501,1.786629597850471283258371713763
502,1.787033845163529440704393969400
503,1.787437328885747106780304190155
504,1.787840052852660556679319275931
505,1.788242020897788182331717803067
506,1.788643236853328390057459962698
507,1.789043704550877825983031823567
508,1.789443427822170593633032880175
509,1.789842410499837775012918229738
510,1.790240656418194448253744539695
511,1.790638169414048635917793104951
512,1.791034953327537354302517281820
513,1.791431012002989721072588483422
514,1.791826349289819215258715499313
515,1.792220969043446962428400785448
516,1.792614875126255840094657677390
517,1.793008071408578154695073744203
518,1.793400561769720449983476114530
519,1.793792350099024107697484819750
520,1.794183440296966587877162524890
521,1.794573836276302213378402325063
522,1.794963541963249011218071647792
523,1.795352561298720420200942053555
