Eigenstate,Potential Energy
1,0.500000000013783734983575693829732177
2,0.64623093774108764603517029650291399
3,0.73633760996926392471000088350021438
4,0.79966527836472066764666755974322335
5,0.8480465762392321128334698001384956
6,0.8870659983457834130529083523139830
7,0.9197208261217573982311501549866464
8,0.9477838459436894260161004193037570
9,0.9723835568176238494804380030957379
10,0.9942802128919863790275502973640731
11,1.0140093843077176820013679388677249
12,1.0319621663693767245639519081128926
13,1.0484326891427171690849056710933403
14,1.0636476503108400390820901068540534
15,1.0777854309883732568413335369179545
16,1.090988900591913416661074521375607
17,1.103374250301528078325684250617506
18,1.115037244066953948174170389748265
19,1.126057741711573681157437770885965
20,1.136503036566351793646584158707534
21,1.146430361551531489445468698801442
22,1.155888800335374553260312676554841
23,1.164920765270685839355268475960684
24,1.173563154795235312986808209124405
25,1.181848270227684357682681345832516
26,1.189804549575173464846841500351595
27,1.197457160495898024814092824778879
28,1.204828483658148131938723240643290
29,1.211938509942260496571050449598310
30,1.218805169282442988716581870282690
31,1.225444604799493838972851049639113
32,1.231871402797537938250210921649014
33,1.238098786888254874123883958629219
34,1.244138782755527075866412206448508
35,1.250002358734241374789374480769392
36,1.255699546343498408195824250313343
37,1.261239544110399746906251905401799
38,1.266630807390163883322585488251114
39,1.271881126390473567591429534276353
40,1.276997694212136195974704321296614
41,1.281987166401388681889350399436859
42,1.286855713254185638632801513982489
43,1.291609065906323357944015322265896
44,1.296252557075158053086411907350748
45,1.300791157181107266175735126793714
46,1.305229506463987056910472663870627
47,1.309571943615760977554503316937695
48,1.313822531373690474793180071085498
49,1.317985079453213815204069011743672
50,1.32206316514575791744413792696194
51,1.32606015186122051179431008466897
52,1.32997920585651483341268641487946
53,1.33382331135911893710995819660530
54,1.33759528426701059001135666472749
55,1.34129778458289320596355259944228
56,1.34493332772054371542477733841761
57,1.34850429480391429946172367949292
58,1.35201294206482273018948015242531
59,1.35546140943231211271880192478641
60,1.35885172839573631597542297426278
61,1.36218582921406315225389770013502
62,1.36546554753558636025698193252357
63,1.36869263048499555735276956242861
64,1.37186874226844084686121443803841
65,1.37499546934169392621011633294745
66,1.37807432518166020274775465078981
67,1.38110675469723413267448272750014
68,1.38409413831173383774791980341376
69,1.38703779574583838369027886374443
70,1.38993898952702283596309917582145
71,1.39279892824888750484391127653756
72,1.39561876960147954936018942740698
73,1.39839962319165210323273078292529
74,1.40114255317068723742828532373337
75,1.40384858068477797281849848612848
76,1.40651868616251499968729618873465
77,1.40915381145222136241093017244399
78,1.41175486182081256945491117250430
79,1.41432270782481276883997733987137
80,1.41685818706321950358496801063294
81,1.41936210582106022015794761241613
82,1.42183524061172225241353428107531
83,1.42427833962544926970482628612854
84,1.42669212409077288614224371880559
85,1.42907728955508885179798021563332
86,1.43143450709007138126552874553017
87,1.43376442442716170418387299892709
88,1.43606766702794354460031365679055
89,1.43834483909383473388443281003230
90,1.44059652451918094517642882551743
91,1.44282328779151608530240659212316
92,1.44502567484246558255009559727255
93,1.44720421385250655364285437846645
94,1.44935941601255590451173674332458
95,1.45149177624513626543638507426188
96,1.45360177388766783900913828737961
97,1.45568987334024989726707978175156
98,1.45775652468012279004214153917739
99,1.45980216424484785439016502765838
100,1.46182721518609627454384895710823
101,1.46383208799580863767996104109320
102,1.46581718100636135607018187216673
103,1.46778288086626821257203664466285
104,1.46972956299283802170595099814067
105,1.47165759200311632480762017164537
106,1.47356732212434827350112132187999
107,1.47545909758512177378281813765684
108,1.47733325298827072345170980529079
109,1.47919011366654958208771455100534
110,1.48102999602202809265433524962366
111,1.48285320785008911260361239225196
112,1.48466004864886307872781363710486
113,1.48645080991487709420823069649126
114,1.48822577542564786855510694276454
115,1.48998522150990729263015621879329
116,1.49172941730610109929490985742512
117,1.49345862500976934722136782913961
118,1.49517310011037643429585216395286
119,1.49687309161812463333067984921538
120,1.49855884228125930056326588308049
121,1.50023058879433564017806662351356
122,1.50188856199789799495396263209787
123,1.50353298706999044020770307275463
124,1.50516408370989977839536074107586
125,1.50678206631450246547063871401120
126,1.50838714414757180280131047207260
127,1.50997952150238115055869204723190
128,1.51155939785791633130513141284646
129,1.51312696802899831926640958668418
130,1.51468242231059892890868378586337
131,1.51622594661661681232151353120852
132,1.51775772261336609770769377175148
133,1.51927792784801821969676050473388
134,1.52078673587222621624001426625287
135,1.52228431636114265850254537577991
136,1.52377083522803869263738595808128
137,1.52524645473471836438320303005403
138,1.52671133359790878543648532124550
139,1.52816562709180459464347922203764
140,1.52960948714692972108887856508313
141,1.53104306244547489866834818231383
142,1.53246649851326130846480464128722
143,1.53387993780847207507918791284984
144,1.53528351980728616342934799395015
145,1.53667738108654503477172467423945
146,1.53806165540357455194942580222884
147,1.53943647377327642090439210279903
148,1.54080196454260449745800369743848
149,1.54215825346252776029011276970580
150,1.54350546375758359096942849671215
151,1.54484371619311727526424982963886
152,1.54617312914029802487802851425715
153,1.54749381863900046927747597491402
154,1.54880589845863551682903339485906
155,1.55010948015700882120960516723796
156,1.55140467313728471942751700697180
157,1.55269158470312668802957387937679
158,1.55397032011208613556759555517976
159,1.5552409826273032041298387733741
160,1.5565036735675859174469890439313
161,1.5577584923559261716636465104581
162,1.5590055365665120298465991256345
163,1.5602449019702911734992359585861
164,1.5614766825791401476469603854473
165,1.5627009706886879996811656895946
166,1.5639178569198448275204919459362
167,1.5651274302590824693787170283620
168,1.5663297780975100240226357171193
169,1.5675249862687892635805324640458
170,1.5687131390859296819867260797124
171,1.5698943193770033734929143346776
172,1.5710686085198176078740776443675
173,1.5722360864755805046295362888131
174,1.5733968318215956496629788782989
175,1.5745509217830196393442815819061
176,1.5756984322637122582756984022696
177,1.5768394378762125512696704401650
178,1.5779740119708699439041944466848
179,1.5791022266641568565712358405133
180,1.5802241528661937583868187557917
181,1.5813398603075093095185601681702
182,1.5824494175650632872856622676600
183,1.5835528920875553452748348067678
184,1.5846503502200438469777098991300
185,1.5857418572278965820424516182763
186,1.5868274773200943337283368918723
187,1.5879072736719110980298149741100
188,1.5889813084469863907536648763419
189,1.5900496428188133736058676476279
190,1.5911123369916584503317349600131
191,1.5921694502209315554266085748254
192,1.5932210408330235175848691547318
193,1.5942671662446288016994123786998
194,1.5953078829815669701577432775695
195,1.5963432466971207957564256360337
196,1.5973733121899047180962114417419
197,1.5983981334212780187407533047780
198,1.5994177635323168770796956959235
199,1.6004322548603581407112314650486
200,1.6014416589551287505048069721981
201,1.6024460265944717967223530908210
202,1.6034454077996825823089657528745
203,1.6044398518504653480347457006690
204,1.6054294072995222743488515657111
205,1.6064141219867847252574418727880
206,1.6073940430532997529220122643371
207,1.6083692169547777336031895440359
208,1.6093396894748153563542366274504
209,1.6103055057377997072914168133493
210,1.6112667102215049450398558876072
211,1.6122233467693889263108774342943
212,1.6131754586026000087324926095877
213,1.6141230883316984088204926097596
214,1.6150662779681070907733347223277
215,1.6160050689352913923149591774751
216,1.6169395020796813420356500247231
217,1.6178696176813406272658976342347
218,1.6187954554643911849256686489560
219,1.6197170546071966882774880684249
220,1.6206344537523174377034694017231
221,1.6215476910162345577883297541915
222,1.6224568039988606980659911090394
223,1.6233618297928307982529709623819
224,1.6242628049925879772586283445088
225,1.6251597657032671025065975076613
226,1.6260527475493795774999371840721
227,1.6269417856833079904680750625959
228,1.6278269147936124342864168137546
229,1.6287081691131556498034334462328
230,1.6295855824270516788030808408998
231,1.6304591880804398158564487303995
232,1.6313290189860942679666918455069
233,1.6321951076318645074948643947522
234,1.6330574860879624644155717692153
235,1.6339161860140897289852853679294
236,1.6347712386664144635743170076444
237,1.6356226749044016437717661162411
238,1.6364705251974983597566211366524
239,1.6373148196316796134966130624441
240,1.6381555879158567651728897468047
241,1.6389928593881529101597735448107
242,1.6398266630220480424900169459329
243,1.6406570274323980355582704517344
244,1.6414839808813291282784819393956
245,1.6423075512840122897849592998892
246,1.6431277662143199812234411827440
247,1.6439446529103666963963139761308
248,1.6447582382799408617944345367500
249,1.6455685489058230645092537698035
250,1.6463756110510009921239801492538
251,1.6471794506637789839887104473028
252,1.6479800933827849917724177838860
253,1.6487775645418800208877816566045
254,1.6495718891749697090387960327251
255,1.6503630920207219213134344156478
256,1.6511511975271904465808356092189
257,1.6519362298563511859302777947613
258,1.6527182128885472772032928008707
259,1.6534971702268499584621941553355
260,1.6542731252013355560920393703159
261,1.6550461008732789105858483601793
262,1.6558161200392679647377229253656
263,1.6565832052352383641232537419478
264,1.6573473787404335200176346913670
265,1.6581086625812886592763757390134
266,1.6588670785352410282082645953011
267,1.6596226481344694629697637973551
268,1.6603753926695633594770254381084
269,1.6611253331931253120317698722761
270,1.6618724905233031440822353415318
271,1.6626168852472606143525643856003
272,1.6633585377245807771814959160160
273,1.6640974680906094394614358250048
274,1.6648336962597359224719617209426
275,1.6655672419286150034636045632062
276,1.6662981245793283146204860449695
277,1.6670263634824926826919563268546
278,1.6677519777003071632168878713550
279,1.6684749860895502717852055967809
280,1.6691954073045195051822543732719
281,1.6699132597999210412190547596071
282,1.6706285618337071134964594108807
283,1.6713413314698642735293930371756
284,1.6720515865811496967461942852450
285,1.6727593448517823396031644466368
286,1.6734646237800849725395569914496
287,1.6741674406810821480436650211869
288,1.6748678126890505055857012451227
289,1.6755657567600260614613567264223
290,1.6762612896742692160528238954906
291,1.6769544280386853194273005747004
292,1.6776451882892036801589324545046
293,1.6783335866931189231284849459471
294,1.6790196393513897331945598219449
295,1.6797033622008970718610955408271
296,1.6803847710166694524802735238878
297,1.6810638814140652056951599003399
298,1.6817407088509210518527972924026
299,1.6824152686296637832224174036394
300,1.6830875758993868066010871697917
301,1.6837576456578919577215348027697
302,1.6844254927536986803713835172542
303,1.6850911318880177433293616942270
304,1.6857545776166930726243655162760
305,1.6864158443521131276203375226319
306,1.6870749463650910841233580586441
307,1.6877318977867110064607194685430
308,1.6883867126101474869569654566292
309,1.6890394046924548420687224503108
310,1.6896899877563262003212245882266
311,1.6903384753918260769457035010318
312,1.6909848810580939483462698081097
313,1.6916292180850202191418510860222
314,1.6922714996748963860529205939390
315,1.6929117389040387182723622242612
316,1.6935499487243868299590184406700
317,1.6941861419650746834550795670715
318,1.6948203313339793744687574958600
319,1.6954525294192448407804556104773
320,1.6960827486907804957271565658632
321,1.6967110015017387053955946925173
322,1.6973373000899672239514482971237
323,1.6979616565794401011401442007961
324,1.6985840829816660390950153888663
325,1.6992045911970759604301606044510
326,1.6998231930163880248406744616942
327,1.7004399001219529149621769691656
328,1.7010547240890765806802502610498
329,1.7016676763873254167446192390222
330,1.7022787683818103053501257185079
331,1.7028880113344509622569342671254
332,1.7034954164052216476699773721537
333,1.7041009946533786204112017768377
334,1.7047047570386675193862233229720
335,1.7053067144225149872560062632436
336,1.7059068775692005943432509509660
337,1.7065052571470119349973267963180
338,1.7071018637293839552477350629565
339,1.7076967077960185762310094034031
340,1.7082897997339907047091171197017
341,1.7088811498388363442346929980664
342,1.7094707683156253040904955719509
343,1.7100586652800181437698378449436
344,1.7106448507593073466827646377603
345,1.7112293346934445423999240215688
346,1.7118121269360512522066181568840
347,1.7123932372554167233032257836086
348,1.7129726753354796633536428422006
349,1.7135504507767974202840404072005
350,1.7141265730975001496498934698952
351,1.7147010517342320571531735926784
352,1.7152738960430793986522877395842
353,1.7158451153004845220212135355560
354,1.7164147187041473653122130897648
355,1.7169827153739147764842293904290
356,1.7175491143526558644641742926675
357,1.7181139246071266205641672097318
358,1.7186771550288230542410271809117
359,1.7192388144348185883218086604519
360,1.7197989115685946515999073954619
361,1.7203574551008562136565538146844
362,1.7209144536303387434934055495845
363,1.7214699156846011875756346644112
364,1.7220238497208099912659370104730
365,1.7225762641265124000030144167284
366,1.7231271672203979178814292967222
367,1.7236765672530508156303568759095
368,1.7242244724076904767077629846519
369,1.7247708908009042140432296433690
370,1.7253158304833682705928593614578
371,1.7258592994405598570036523715662
372,1.7264013055934591828550021725373
373,1.7269418567992414481817134632254
374,1.7274809608519631037467409747927
375,1.7280186254832330716223253997558
376,1.7285548583628803822841639086445
377,1.7290896670996100174180501762844
378,1.7296230592416501258396478693003
379,1.7301550422773924523179562115278
380,1.7306856236360227360563058555029
381,1.7312148106881439542554893668013
382,1.7317426107463895289179869613908
383,1.7322690310660311715435539245246
384,1.7327940788455763294055863566797
385,1.7333177612273588546512739027335
386,1.7338400852981235548665076951077
387,1.7343610580896003744288933607313
388,1.7348806865790721434342276256220
389,1.7353989776899365688682673173052
390,1.7359159382922596571148802500070
391,1.7364315752033208847261086665589
392,1.7369458951881537258150850204192
393,1.7374589049600790095420393793255
394,1.7379706111812296887732584851574
395,1.7384810204630698767685840397133
396,1.7389901393669078027475112151755
397,1.7394979744044023162238207192883
398,1.7400045320380629482254126734188
399,1.7405098186817420951719252635883
400,1.7410138407011236253495079681402
401,1.7415166044142039568835010165045
402,1.7420181160917663524069961468477
403,1.7425183819578512511457892465034
404,1.7430174081902205314905438557326
405,1.7435152009208131694821324534879
406,1.7440117662361984022252918526603
407,1.7445071101780235129312395890555
408,1.7450012387434537407638565223904
409,1.7454941578856071765466203921779
410,1.7459858735139871587891067266443
411,1.7464763914949064300310252212794
412,1.7469657176519066360734445695952
413,1.7474538577661742471365609368576
414,1.7479408175769493247698405094451
415,1.7484266027819314184566108749765
416,1.7489112190376790215265114111733
417,1.7493946719600054348419897367365
418,1.7498769671243682014752674025337
419,1.7503581100662563908670549506798
420,1.7508381062815707143687709970952
421,1.7513169612270004243315906207982
422,1.7517946803203962783242504004719
423,1.7522712689411374045992440619167
424,1.7527467324304956825112292892102
425,1.7532210760919940172265292408078
426,1.7536943051917621155427326703658
427,1.7541664249588872474262339195817
428,1.7546374405857600069337472705498
429,1.7551073572284189848830169693800
430,1.7555761800068872153556243225949
431,1.7560439140055078996631817529117
432,1.7565105642732765572675350748550
433,1.7569761358241649415280822604854
434,1.7574406336374478181891633615163
435,1.7579040626580204302567419501063
436,1.7583664277967145502296164092416
437,1.7588277339306112810291166089016
438,1.7592879859033495876651612405096
439,1.7597471885254312409167439798844
440,1.7602053465745232442130103525652
441,1.7606624647957549035402243327214
442,1.7611185479020131039930674367245
443,1.7615736005742354406370170836887
444,1.7620276274616958230238189463893
445,1.7624806331822918839894225870769
446,1.7629326223228252170534350011230
447,1.7633835994392816115583880701603
448,1.7638335690571045037192279284671
449,1.7642825356714694840560800274517
450,1.7647305037475520136197681476248
451,1.7651774777207958520717966351840
452,1.7656234619971750389338654613091
453,1.7660684609534551710457675817040
454,1.7665124789374503651462948771077
455,1.7669555202682795294152446605660
456,1.7673975892366172409408616316248
457,1.7678386901049439247843738164805
458,1.7682788271077917305020672348679
459,1.7687180044519886200140634037438
460,1.7691562263169003091255777257735
461,1.7695934968546679123885636423991
462,1.7700298201904445043165988195684
463,1.7704652004226292006859515674734
464,1.7708996416230969207901183507015
465,1.7713331478374277993446829725712
466,1.7717657230851333786998376676401
467,1.7721973713598788618372555442184
468,1.7726280966297064417516572647940
469,1.7730579028372521838734921211224
470,1.7734867938999639860322765814196
471,1.7739147737103148830257284399723
472,1.7743418461360159933644959464763
473,1.7747680150202244590523321068206
474,1.7751932841817538823520670969858
475,1.7756176574152761822489937783943
476,1.7760411384915273843723074245736
477,1.7764637311575076773264522566136
478,1.7768854391366804113751001739557
479,1.7773062661291689288153429678394
480,1.7777262158119516205762566111376
481,1.7781452918390537598686507278091
482,1.7785634978417396816241150900154
483,1.7789808374287006876709526844227
484,1.7793973141862414973511746449759
485,1.7798129316784667204030985387772
486,1.7802276934474619368505024596997
487,1.7806416030134762326269007726498
488,1.7810546638751007873673088595491
489,1.7814668795094467424113855500676
490,1.7818782533723202120063992225241
491,1.7822887888983965718523991387549
492,1.7826984895013926130347227374544
493,1.7831073585742365362078570424409
494,1.7835153994892368799239384815091
495,1.7839226155982485754521773940481
496,1.7843290102328393723581980243842
497,1.7847345867044523202103030859896
498,1.7851393483045682515085430893573
499,1.7855432983048657629985506110909
500,1.785946439957380825679587256940
501,1.786348776494661769352829149728
502,1.786750311129927096694466443103
503,1.787151047057217594779430564000
504,1.787550987451550587690044689849
505,1.787950135469069177466185300279
506,1.788348494247192203273384348284
507,1.788746066904762766599838935080
508,1.789142856542194962221278458585
509,1.789538866241617045600352592801
510,1.789934099067017089729695563259
511,1.790328558064384362264377668272
512,1.790722246261850322907665458131
513,1.791115166669827856553498349845
514,1.791507322281149418414386714797
515,1.791898716071204465199211756552
516,1.792289350998074382495558501240
517,1.792679230002665982912725753535
518,1.793068356008845360189604325901
519,1.793456731923568881029118752573
520,1.793844360637014171480552363614
521,1.794231245022707892917074677869
522,1.794617387937654583627269519789
523,1.795002792222463002996495685977
