Eigenstate,Potential Energy
1,0.500000000032616430302285794782124969
2,0.64623093786401761497387115986532038
3,0.73633761033036055356184230780706953
4,0.79966527911684304165891167332451514
5,0.8480465775420604925231263684311199
6,0.8870660003617917104287181475596962
7,0.9197208290147287963728143607325982
8,0.9477838498780969373827745485309450
9,0.9723835619583419132741972571346885
10,0.9942802194041441509090168033716960
11,1.0140093923566190259021000638900232
12,1.0319621761204541946925221260325925
13,1.0484327007615044961441500166654324
14,1.0636476639629552655150240027124712
15,1.0777854468395082962652015247891128
16,1.090988918807827648497275405252697
17,1.103374271048044567118057780445153
18,1.115037267509957422940912048251141
19,1.126057768017009727011078339504909
20,1.136503065900226898452935405866923
21,1.146430394079913706474834895974565
22,1.155888836224394616148771959959422
23,1.164920804686538614962927676687891
24,1.173563197904181510678701633742168
25,1.181848317196052436030172284146289
26,1.189804600569361692363968230344002
27,1.197457215682376662379858634075980
28,1.204828543203461712477187938664924
29,1.211938574013030183326906414867868
30,1.218805238045368997716169376400553
31,1.225444678421357914434705818894947
32,1.231871481445205872105241181195787
33,1.238098870728679062632840792988294
34,1.244138871955749107729877200756294
35,1.250002453461394646239424507425976
36,1.255699646764810761415947402574272
37,1.261239650393196128803522816837086
38,1.266630919701869022215299106735229
39,1.271881244898614665807604559431563
40,1.276997819084345636705660048675970
41,1.281987297805406748925722142649609
42,1.286855851357863247841697559600148
43,1.291609210877624799536034887344737
44,1.296252709082163743878131265909327
45,1.300791316392016511183522588003405
46,1.305229673047120819720122504459450
47,1.309572117739564659002177057715419
48,1.313822713206736699569763028218755
49,1.317985269164205226059773368103737
50,1.32206336290352997672511412686767
51,1.32606035783474431008985193954980
52,1.32997942021489990513161845900897
53,1.33382353427161608283913340847612
54,1.33759551590301470553878888494401
55,1.34129802511194611787425391675560
56,1.34493357731233702319954480025840
57,1.34850455362829222402836010365340
58,1.35201321029178496889282628214309
59,1.35546168723201670069058579357801
60,1.35885201593850249389791647695018
61,1.36218612667037424052271201417412
62,1.36546585507609263955841684848873
63,1.36869294828051715567999557517349
64,1.37186907048997063300146235169153
65,1.37499580816040040974212347141059
66,1.37807467476889044059497871004414
67,1.38110711522451664226522481319120
68,1.38409450995078151683855343237027
69,1.38703817866855143691239605129559
70,1.38993938390549170815937804098998
71,1.39279933425539582126141288647549
72,1.39561918740850706277301691556829
73,1.39840005297187764806920982239789
74,1.40114299509699169098056269631374
75,1.40384903493024722361512970755502
76,1.40651915290044292311170704714070
77,1.40915429085611280365087972836368
78,1.41175535406438633387013158891024
79,1.41432321308200461983706236278659
80,1.41685870550818516809030887164906
81,1.41936263762817840178122168270183
82,1.42183578595559765239578716354613
83,1.42427889868091561574661870065671
84,1.42669269703289596920875083704919
85,1.42907787655916957099922328802034
86,1.43143510833164879691113732501647
87,1.43376504008201609911300958886865
88,1.43606829727209949388848979796233
89,1.43834548410356418303002275450362
90,1.44059718447100629687075458311696
91,1.44282396286221329488828022648035
92,1.44502636520906726227464560073925
93,1.44720491969230508581145670340764
94,1.44936013750310656365074956792694
95,1.45149251356426034957333183143730
96,1.45360252721345581017978496162753
97,1.45569064285106453135983324273994
98,1.45775731055460233609089140367843
99,1.45980296666190920342767750465266
100,1.46182803432493813812851561736340
101,1.46383292403591473620959621287147
102,1.46581803412750361699732804135626
103,1.46778375124850997863600745505760
104,1.46973045081653726929773239595809
105,1.47165849744892889258440233753809
106,1.47356824537323110136810777851406
107,1.47546003881833615236070310272374
108,1.47733421238738555414896967295001
109,1.47919109141344464789769588702200
110,1.48103099229889733979782308080696
111,1.48285422283944394313840174839641
112,1.48466108253353565424754117666677
113,1.48645186287802365075350793982810
114,1.48822684765075204286079140311187
115,1.48998631318078345983337604726307
116,1.49173052860689772222923769958542
117,1.49345975612497233742330993882681
118,1.49517425122481252485068194650940
119,1.49687426291696476368533900168492
120,1.49856003395002201343494728416173
121,1.50023180101889049068786217440486
122,1.50188979496446897211579227054551
123,1.50353424096515940090353247836754
124,1.50516535872060989396856087622050
125,1.50678336262806168107016991378548
126,1.50838846195165630961026897364243
127,1.50998086098503887104153875120604
128,1.51156075920757041760889162349517
129,1.51312835143445066491188700008844
130,1.51468382796103369390861817393246
131,1.51622737470160396186350815353343
132,1.51775917332286495454072324858978
133,1.51927940137238103036067895429815
134,1.52078823240220173127870759194673
135,1.52228583608787972680211462983095
136,1.52377237834308987003161141935017
137,1.52524802143004353666963651236868
138,1.52671292406587880594730020044984
139,1.52816724152520493651625129779727
140,1.52961112573896414438338830343548
141,1.53104472538976913247640697475827
142,1.53246818600386674816120022359575
143,1.53388165003986949486268139094312
144,1.53528525697438944430386029489523
145,1.53667914338470490811857302890647
146,1.53806344302858235884272393040654
147,1.53943828692136788732269092823379
148,1.54080380341046352554613737507918
149,1.54216011824729023582651729525131
150,1.54350735465684120719501444125904
151,1.54484563340492137323016369217688
152,1.54617507286316345047061731311230
153,1.54749578907190944707988531765743
154,1.54880789580104154097993359860990
155,1.55011150460884056342071825745119
156,1.55140672489894995432276323060846
157,1.55269366397551623596968745174894
158,1.55397242709657782312527629669109
159,1.5552431175257658423816862997193
160,1.5565058365823832982495792907112
161,1.5577606836899210820823477151729
162,1.5590077564230702849069733108462
163,1.5602471505532856674318956761022
164,1.5614789600929549237981706963482
165,1.5627032773382223392627130446561
166,1.5639201929105173573734092159903
167,1.5651297957968352889268542428959
168,1.5663321733888128515934661310402
169,1.5675274115206436022715155294780
170,1.5687155945058730052572953412242
171,1.5698968051731133306631034652819
172,1.5710711249007162497123989471611
173,1.5722386336504385292138458863877
174,1.5733994100001366686996224544545
175,1.5745535311755244651320850300008
176,1.5757010730810232115027981071786
177,1.5768421103297377898325462808014
178,1.5779767162725878129397291026568
179,1.5791049630266202598940218842696
180,1.5802269215025345515254374408360
181,1.5813426614314427145459945237328
182,1.5824522513908923296404465451972
183,1.5835557588301753127711223684535
184,1.5846532500949467712039009239546
185,1.5857447904511757423496457395664
186,1.5868304441084487840111712939363
187,1.5879102742426502165041725764779
188,1.5889843430180344529370364969277
189,1.5900527116087141487078421117517
190,1.5911154402195798212637725229013
191,1.5921725881066701626417241367734
192,1.5932242135970094269597123798688
193,1.5942703741079301966726778199348
194,1.5953111261658948683407071367560
195,1.5963465254248337902329962716616
196,1.5973766266840137436316435533581
197,1.5984014839054511431199259295710
198,1.5994211502308841177975453370176
199,1.6004356779983163072398504141601
200,1.6014451187581463123633544822544
201,1.6024495232888937775777486028232
202,1.6034489416125354803374178951491
203,1.6044434230094620827755954617270
204,1.6054330160330671602845290779332
205,1.6064177685239784723548381335781
206,1.6073977276239444943727690779582
207,1.6083729397893820810022121987842
208,1.6093434508045994825576805019666
209,1.6103093057947004571974675676408
210,1.6112705492381809745375251846239
211,1.6122272249792258696440885755979
212,1.6131793762397156745287026528856
213,1.6141270456309480050353841318550
214,1.6150702751650884788048464068193
215,1.6160091062663503705423797233986
216,1.6169435797819169590413978634589
217,1.6178737359926105249998235000722
218,1.6187996146233169720738955947186
219,1.6197212548531693441000657274704
220,1.6206386953255027466071933269182
221,1.6215519741575785749034970145713
222,1.6224611289500952460980089602351
223,1.6233661967964789958820474141642
224,1.6242672142919697993631148844416
225,1.6251642175425049724879554270461
226,1.6260572421734039919895654812019
227,1.6269463233378631766986273504847
228,1.6278314957252620404127904786813
229,1.6287127935692884684609313259822
230,1.6295902506558874041927727153222
231,1.6304639003310348346502052940308
232,1.6313337755083474843270180748827
233,1.6321999086765232025070470661300
234,1.6330623319066281902323819083624
235,1.6339210768592242379870281134238
236,1.6347761747913456728495203904818
237,1.6356276565633296352268412875368
238,1.6364755526455014161650653852996
239,1.6373198931247202908013845435082
240,1.6381607077107880013582145428286
241,1.6389980257427241710114490045116
242,1.6398318761949115045659623801369
243,1.6406622876831148066943229120950
244,1.6414892884703755059566215505667
245,1.6423129064727860576947759497658
246,1.6431331692651467443503049225664
247,1.6439501040865062549724104448747
248,1.6447637378455936244523393506827
249,1.6455740971261365009802783144557
250,1.6463812081920761258270088754036
251,1.6471850969926769248580808853364
252,1.6479857891675335096766022371198
253,1.6487833100514801599938048504762
254,1.6495776846794024434805869984407
255,1.6503689377909548525253487938607
256,1.6511570938351845426613628874618
257,1.6519421769750675634035933843879
258,1.6527242110919540255501540419435
259,1.6535032197899290077947691182012
260,1.6542792264000895883509473323634
261,1.6550522539847383146410861624557
262,1.6558223253414978357784198688756
263,1.6565894630073455477250887802014
264,1.6573536892625737012799530377724
265,1.6581150261346734974251220517036
266,1.6588734954021453370640723718124
267,1.6596291185982384376844344937776
268,1.6603819170146198499454719484592
269,1.6611319117049771433900425168932
270,1.6618791234885504847063024213292
271,1.6626235729536033917762165447700
272,1.6633652804608261423558752722160
273,1.6641042661466792797822801702851
274,1.6648405499266744240050959447838
275,1.6655741514985962628028078294550
276,1.6663050903456640008164395481415
277,1.6670333857396397496946688861446
278,1.6677590567438756132784050183893
279,1.6684821222163109702736564855957
280,1.6692026008124120472624128115784
281,1.6699205109880616708590898185714
282,1.6706358710023966952648822642305
283,1.6713486989205963176505845264947
284,1.6720590126166184378871285204069
285,1.6727668297758908698692118068831
286,1.6734721678979534291609348453417
287,1.6741750442990559562392805703330
288,1.6748754761147086770957457654829
289,1.6755734803021895492444454698403
290,1.6762690736430093256488183207968
291,1.6769622727453321774910756787730
292,1.6776530940463547606760056998833
293,1.6783415538146476318275385487446
294,1.6790276681524540506780410569722
295,1.6797114529979482559787919273406
296,1.6803929241274608004769243159708
297,1.6810720971576608766680057996891
298,1.6817489875477049500599827887456
299,1.6824236106013485027888683628740
300,1.6830959814690226381735934654245
301,1.6837661151498759576302788748724
302,1.6844340264937838028606649471349
303,1.6850997302033220364257418091160
304,1.6857632408357089382160562927864
305,1.6864245728047166463275901323404
306,1.6870837403825514055450819435979
307,1.6877407577016998053883702657633
308,1.6883956387567484861529033722866
309,1.6890483974061734022119510685075
310,1.6896990473740989777294441030841
311,1.6903476022520307496886798093219
312,1.6909940755005590113722029974862
313,1.6916384804510348490436890270553
314,1.6922808303072203761086523088616
315,1.6929211381469124843996122423940
316,1.6935594169235414882303572183612
317,1.6941956794677421998272977422312
318,1.6948299384889027873858530762513
319,1.6954622065766885573168510320364
320,1.6960924962025406619444043109093
321,1.6967208197211536515925124927992
322,1.6973471893719279854949034803243
323,1.6979716172804010155702711083896
324,1.6985941154596554202061930886179
325,1.6992146958117068500359096202403
326,1.6998333701288690229380751572738
327,1.7004501500950990890186750159800
328,1.7010650472873204547733027974050
329,1.7016780731767280412919627476176
330,1.7022892391300724081761080482467
331,1.7028985564109241817482370746953
332,1.7035060361809198487816055846776
333,1.7041116895009892942916914687875
334,1.7047155273325632673989374319380
335,1.7053175605387650901814923202616
336,1.7059177998855826675557430798050
337,1.7065162560430236704169414607920
338,1.7071129395862549508782208906565
339,1.7077078609967222541009029888112
340,1.7083010306632563180437620495176
341,1.7088924588831610746943498077703
342,1.7094821558632864499191518026197
343,1.7100701317210853997076909536209
344,1.7106563964856551765049003264388
345,1.7112409600987646449524885853161
346,1.7118238324158651218211744643248
347,1.7124050232070883054792038277568
348,1.7129845421582281066085491550705
349,1.7135623988717099250800400927873
350,1.7141386028675449153160258048047
351,1.7147131635842713277312827811683
352,1.7152860903798826086053397355107
353,1.7158573925327415427525562504112
354,1.7164270792424818534545009900889
355,1.7169951596308976249268370793256
356,1.7175616427428187570988737992713
357,1.7181265375469756917388971657620
358,1.7186898529368526539225092062481
359,1.7192515977315251539786267938389
360,1.7198117806764906878285558447886
361,1.7203704104444843805840343317785
362,1.7209274956362860550013517785807
363,1.7214830447815133204022515219702
364,1.7220370663394057060531896295655
365,1.7225895686995980753690911734226
366,1.7231405601828821986093740698719
367,1.7236900490419593760761106278645
368,1.7242380434621809005432039357448
369,1.7247845515622809914617490347616
370,1.7253295813950979141174304153795
371,1.7258731409482861370501762486533
372,1.7264152381450184842161801013794
373,1.7269558808446782486101137536544
374,1.7274950768435455758279780274006
375,1.7280328338754688091432333681036
376,1.7285691596125322523136935534158
377,1.7291040616657121393332037959642
378,1.7296375475855239785409709638909
379,1.7301696248626631108943170608228
380,1.7307003009286352391722045905506
381,1.7312295831563798035488163117187
382,1.7317574788608833217100528955755
383,1.7322839952997873681786215497197
384,1.7328091396739861565510618042946
385,1.7333329191282173459058444708643
386,1.7338553407516467300377829524936
387,1.7343764115784425588579855110329
388,1.7348961385883434287607234620306
389,1.7354145287072204166438814901057
390,1.7359315888076306466912199261978
391,1.7364473257093626068572741853147
392,1.7369617461799768234332429908428
393,1.7374748569353393671800713895403
394,1.7379866646401467721257112512945
395,1.7384971759084452238994727522739
396,1.7390063973041436684706144811707
397,1.7395143353415204711989170069294
398,1.7400209964857236343313346617828
399,1.7405263871532631387361123702622
400,1.7410305137124997098310945392875
401,1.7415333824841260566262412909255
402,1.7420349997416413290969385254859
403,1.7425353717118216146272207091112
404,1.7430345045751843666137199245657
405,1.7435324044664442306751507989032
406,1.7440290774749663775030320273209
407,1.7445245296452144590736405463351
408,1.7450187669771906914165626606962
409,1.7455117954268709250173961914401
410,1.7460036209066372173347874617654
411,1.7464942492857021674503316529235
412,1.7469836863905285954429200463217
413,1.7474719380052456455483507772628
414,1.7479590098720577369523002917023
415,1.7484449076916506461810830578437
416,1.7489296371235911507259219774507
417,1.7494132037867230823904034130083
418,1.7498956132595569536003632485511
419,1.7503768710806574351913773584348
420,1.7508569827490236675995581494593
421,1.7513359537244663576425932795594
422,1.7518137894279809424988738902187
423,1.7522904952421146570274959392639
424,1.7527660765113311181601641627939
425,1.7532405385423688057276155841625
426,1.7537138866045970465671038094209
427,1.7541861259303669865439222039985
428,1.7546572617153575641806536273960
429,1.7551272991189203982858025548690
430,1.7555962432644164516923305555889
431,1.7560640992395519747651641433949
432,1.7565308720967108781969544162559
433,1.7569965668532788729931408649994
434,1.7574611884919704755887212001216
435,1.7579247419611467017751246410117
436,1.7583872321751313504327575703595
437,1.7588486640145240384425676543045
438,1.7593090423265089688462029306099
439,1.7597683719251601135633281924261
440,1.7602266575917438818837133029027
441,1.7606839040750164345919989324345
442,1.7611401160915192073754850468186
443,1.7615952983258722912151421301899
444,1.7620494554310602891345531207103
445,1.7625025920287199799709351216532
446,1.7629547127094208135208886083166
447,1.7634058220329454062344214259763
448,1.7638559245285632556629906337783
449,1.7643050246953055141703413553812
450,1.7647531270022329743524255937907
451,1.7652002358887047692643846052253
452,1.7656463557646406288074851337703
453,1.7660914910107824353532635514033
454,1.7665356459789514675568963011154
455,1.7669788249923049562382796500152
456,1.7674210323455872493346265713187
457,1.7678622723053802816351931589009
458,1.7683025491103497452013602576635
459,1.7687418669714894744010366479629
460,1.7691802300723636879062964080738
461,1.7696176425693449373848568858455
462,1.7700541085918509759406214474951
463,1.7704896322425791500810219430455
464,1.7709242175977364761228126367154
465,1.7713578687072693697783207250053
466,1.7717905895950901596258363766204
467,1.7722223842592996649867645851094
468,1.7726532566724108538579425680432
469,1.7730832107815660576035986849228
470,1.7735122505087552669539284651943
471,1.7739403797510297764265857540877
472,1.7743676023807154747908992433089
473,1.7747939222456211324837360687336
474,1.7752193431692491899818636858146
475,1.7756438689509979698933149309559
476,1.7760675033663678265818171280725
477,1.7764902501671615663309691880283
478,1.7769121130816838140450365331699
479,1.7773330958149382158805524681024
480,1.7777532020488228723988160869775
481,1.7781724354423225531242007376545
482,1.7785907996317012613042559734055
483,1.7790082982306905288793468026825
484,1.7794249348306762614252859403669
485,1.7798407130008856099549576329019
486,1.7802556362885684543824702659294
487,1.7806697082191803474407301604283
488,1.7810829322965615155490239630693
489,1.7814953120031151447401534733464
490,1.7819068507999828147004753757188
491,1.7823175521272192151336170192850
492,1.7827274194039647325597103960618
493,1.7831364560286158824846315300967
494,1.7835446653789946809019073215368
495,1.7839520508125151475453478174499
496,1.7843586156663501852338930553530
497,1.7847643632575945207491528164831
498,1.7851692968834276524163077951844
499,1.7855734198212743016267230486189
500,1.785976735328964498688303502277
501,1.786379246644889048929019620966
502,1.786780956988157834115780091264
503,1.787181869558752417198738228260
504,1.787581987537680794094198545006
505,1.787981314087127139848198983506
506,1.788379852350602279142221438858
507,1.788777605453092729036578665337
508,1.789174576501207953780316860469
509,1.789570768583324062442167965026
510,1.789966184769730002461051236096
511,1.790360828112769480057175432199
512,1.790754701646982507557384660418
513,1.791147808389245193236102355028
514,1.791540151338908449995265131169
515,1.791931733477935997046756996089
516,1.792322557771039864851697073759
517,1.792712627165814477974157194360
518,1.793101944592871101155693809983
519,1.793490512965969430478500414307
520,1.793878335182149186544419286590
521,1.794265414121858504824684960865
522,1.794651752649083399310946366504
523,1.795037353611474736553177519350
