Eigenstate,Potential Energy
1,0.500000000045043204177752828645639912
2,0.64623093794513324105480148062729203
3,0.73633761056863171764407934586629415
4,0.79966527961313626114986270028448283
5,0.8480465784017454213250587107403011
6,0.8870660016920843225921977909864363
7,0.9197208309237126662592053321355534
8,0.9477838524743152512550291482115833
9,0.9723835653506079180263878241374792
10,0.9942802237014450992879879001555767
11,1.0140093976680641358166739233210209
12,1.0319621825552450376393403867918073
13,1.0484327084289175963345103253504596
14,1.0636476729723317264877868079774435
15,1.0777854573002476672621746718074794
16,1.090988930829384454268289160744707
17,1.103374284739926570480220225033801
18,1.115037282981725049600278139793338
19,1.126057785378276291256243248607776
20,1.136503085260659394056970955422582
21,1.146430415549234005125703496146768
22,1.155888859912380965458440700473673
23,1.164920830703027360616266276583028
24,1.173563226359068989018426842175458
25,1.181848348199296998202811476410394
26,1.189804634230985831456800136207487
27,1.197457252112469222261595477133279
28,1.204828582512180162282042321570541
29,1.211938616310602945326544560901467
30,1.218805283442097819130172787781158
31,1.225444727027620275824864021185373
32,1.231871533371457426580236535115455
33,1.238098926085456101296054049937964
34,1.244138930853671047732024981052095
35,1.250002516011166538519825317621011
36,1.255699713077225815782184910332342
37,1.261239720579138254446521398345271
38,1.266630993872315382112834912453999
39,1.271881323164638243754703081357594
40,1.276997901557117815940720451974188
41,1.281987384596199901508288092154476
42,1.286855942578053334090688642986231
43,1.291609306638693976962882490163470
44,1.296252809495702985153036204601114
45,1.300791421569728230759257032868037
46,1.305229783100821508809746114100988
47,1.309572232781187528667339982900897
48,1.313822833348334331727116833796761
49,1.317985394517952232255979199108501
50,1.32206349358172566456748288450694
51,1.32606049394981535725083925034563
52,1.32997956187940304087208166486484
53,1.33382368159824077701823025250226
54,1.33759566900458586509823489877962
55,1.34129818410142679080183134655867
56,1.34493374230283110999170598152265
57,1.34850472473304719668480494507308
58,1.35201338762419459748740005508210
59,1.35546187090562378757285877676457
60,1.35885220606700161558872075281830
61,1.36218632336761449737472975843636
62,1.36546605845608041325998307403643
63,1.36869315845741887468644510478086
64,1.37186928757811554598397134567313
65,1.37499603227428336714904964583127
66,1.37807490602317468442521344888811
67,1.38110735373403660415719883038226
68,1.38409475583054562458228025906651
69,1.38703843203374492949539984571684
70,1.38993964487147945946041109842815
71,1.39279960293772517250886233503959
72,1.39561946392291066388748926269360
73,1.39840033743427630801233826766711
74,1.40114328762349723723435622650728
75,1.40384933563716537091840314378331
76,1.40651946190427615158211609552841
77,1.40915460827356324642308210595073
78,1.41175568001235867438238443469986
79,1.41432354767760899890034866988943
80,1.41685904886874010087570971891684
81,1.41936298987121370486289622675212
82,1.42183614719885738098844955394076
83,1.42427926904236101127788049463091
84,1.42669307663070841736815848950270
85,1.42907826551175357040724014970441
86,1.43143550675763493855263775119889
87,1.43376544810026405668127848425335
88,1.43606871500170102518697212333332
89,1.43834591166384614258039629249086
90,1.44059762198153365987716925472131
91,1.44282441044279219270887695383563
92,1.44502682297974802955271751867172
93,1.44720538777338531941985714565627
94,1.44936061601513419360437991437002
95,1.45149300262803672206580259952753
96,1.45360302695003878290151270004272
97,1.45569115338177158125612538411387
98,1.45775783200101367971973564850061
99,1.45980349914587093007822814857468
100,1.46182857796856535586245268616592
101,1.46383347896159473098880149194679
102,1.46581860045789902506254340492253
103,1.46778432910656197230232977995038
104,1.46973104032546875633417423179413
105,1.47165909873224772934586608307614
106,1.47356885855473331984945720290562
107,1.47546066402210920134388573439125
108,1.47733484973781155461538565209342
109,1.47919174103520366287936488048848
110,1.48103165431697065884213491477441
111,1.48285489737911738156259234234621
112,1.48466176972040286736037601467796
113,1.48645256283798946322292732999386
114,1.48822756051003579340773915542481
115,1.48998703906592236143323068996950
116,1.49173126764475023800383970891508
117,1.49346050844272157240784862446198
118,1.49517501694996963382107038814281
119,1.49687504217737237523328829112590
120,1.49856082687385767047931307190759
121,1.50023260773467010761223376774535
122,1.50189061560105030872383166671851
123,1.50353507565174555338507790119520
124,1.50516620758675280307094559327315
125,1.50678422580366565767078978576372
126,1.50838933956698157788795479518859
127,1.50998175317070512944584948495160
128,1.51156166609456041782801115499014
129,1.51312927315411380904143189648373
130,1.51468476464508965002526007972499
131,1.51622832648214629820889716418771
132,1.51776014033236479252301122249046
133,1.51928038374369071658240101185103
134,1.52078923026855852880161192101710
135,1.52228684958290952586133126065204
136,1.52377340760081091841296471884786
137,1.52524906658487018996605732510649
138,1.52671398525262529791176169533987
139,1.52816831887908916973066042819251
140,1.52961221939561150146452725999368
141,1.53104583548521630804197969592967
142,1.53246931267456560178084849137636
143,1.53388279342269092522074833548250
144,1.53528641720662728480254163403109
145,1.53668032060407984415211144271862
146,1.53806463737324586697520509378511
147,1.53943949852990619660395223279622
148,1.54080503242190160120245066672472
149,1.54216136480109578556457527624981
150,1.54350861889292871035979104978587
151,1.54484691546365613305959357299386
152,1.54617637288536566969173343208002
153,1.54749710719885832709353810426203
154,1.54880923217447940488309089289564
155,1.55011285937097700311773861207177
156,1.55140809819246600197928751155162
157,1.55269505594356856006467934885541
158,1.55397383788280294935948356773437
159,1.5552445472742843997027164960025
160,1.5565072854378042902563766696958
161,1.5577621517973461840739927120154
162,1.5590092439280981668432663816536
163,1.5602486576020163430754685154379
164,1.5614804868319941263104326551379
165,1.5627048239146859235283921834671
166,1.5639217594720357293308240777097
167,1.5651313824915578621837441628266
168,1.5663337803654125316106434474872
169,1.5675290389283212983993049439673
170,1.5687172424943621709122995157786
171,1.5698984738926845319354711521795
172,1.5710728145021817626965046644266
173,1.5722403442851569663579919885417
174,1.5734011418200176344731673596861
175,1.5745552843330332413111411300519
176,1.5757028477291854723785077188651
177,1.5768439066221443476488312528819
178,1.5779785343633993938701820986376
179,1.5791068030705723108707495101573
180,1.5802287836549420782354136830766
181,1.5813445458482051509136568413183
182,1.5824541582284984391182216349479
183,1.5835576882457081217626829600685
184,1.5846552022460885349480249497696
185,1.5857467654962129435958295399067
186,1.5868324422062771648212078990334
187,1.5879122955527798435171757521583
188,1.5889863877005948164386835603829
189,1.5900547798244592958480112861174
190,1.5911175321298935237699673326733
191,1.5921747038735711193791238518111
192,1.5932263533831565016921806359114
193,1.5942725380766276913824324592336
194,1.5953133144810978324681142210887
195,1.5963487382511533662011682954419
196,1.5973788641867225490244689119869
197,1.5984037462504886898856429666276
198,1.5994234375848622688536942801391
199,1.6004379905285247708592989114525
200,1.6014474566325581747246942238190
201,1.6024518866761710738673611980564
202,1.6034513306820348047944374860259
203,1.6044458379312402380747789562497
204,1.6054354569778868466561516400439
205,1.6064202356633140168447157449444
206,1.6074002211299876206497171973731
207,1.6083754598350477201241140090103
208,1.6093459975635316251120396326938
209,1.6103118794412780472359124331573
210,1.6112731499475238457286596896742
211,1.6122298529272007240729757897501
212,1.6131820316029421045759504486044
213,1.6141297285868045587731596630224
214,1.6150729858917187693516545333437
215,1.6160118449426692298231157250256
216,1.6169463465876166364037180301645
217,1.6178765311081669311426219784585
218,1.6188024382299959687483827691965
219,1.6197241071330330800488808716325
220,1.6206415764614160402116345443982
221,1.6215548843332153440142854749772
222,1.6224640683499449855293894370055
223,1.6233691656058533030548310332182
224,1.6242702126970089485866914891288
225,1.6251672457301845383770603844489
226,1.6260603003315415225164239267162
227,1.6269494116551249163866827840132
228,1.6278346143911697041836242942334
229,1.6287159427742260666512697269347
230,1.6295934305911081192639467946596
231,1.6304671111886679501185692104125
232,1.6313370174814053664486807746192
233,1.6322031819589083352567864783398
234,1.6330656366931402641219666128786
235,1.6339244133455672932741686318631
236,1.6347795431741352976948529897911
237,1.6356310570401002193619523486010
238,1.6364789854147134606412879521865
239,1.6373233583857677743944300504048
240,1.6381642056640058042113287353891
241,1.6390015565893955561046447370687
242,1.6398354401372756576063888224500
243,1.6406658849243744350289247567346
244,1.6414929192147044971149179374470
245,1.6423165709253371981762854311266
246,1.6431368676320594992781069800267
247,1.6439538365749146092409146610483
248,1.6447675046636339860045583220637
249,1.6455778984829556668567747299637
250,1.6463850442978393116359395451583
251,1.6471889680585758583230389123179
252,1.6479896954057945889261804975618
253,1.6487872516753726772642385982437
254,1.6495816619032468749105563331183
255,1.6503729508301312147293915810004
256,1.6511611429061408167763656064374
257,1.6519462622953281873103385289807
258,1.6527283328801284549801187783892
259,1.6535073782657203470402621471185
260,1.6542834217843032913047670776545
261,1.6550564864992909569003538517722
262,1.6558265952094259585554408388356
263,1.6565937704528145743165192256688
264,1.6573580345108869268543455136739
265,1.6581194094122811528974683060756
266,1.6588779169366537278347175853961
267,1.6596335786184191580289021145602
268,1.6603864157504190738505796669326
269,1.6611364493875249926410665383058
270,1.6618837003501704750389180856825
271,1.6626281892278219579167773153928
272,1.6633699363823822427827693425414
273,1.6641089619515340820512130336884
274,1.6648452858520210714904493724190
275,1.6655789277828697237174242413334
276,1.6663099072285510003823499859303
277,1.6670382434620887863475228810083
278,1.6677639555481070597982735726074
279,1.6684870623458272607458263752417
280,1.6692075825120079507823287845472
281,1.6699255345038346529062954089470
282,1.6706409365817573676815770694756
283,1.6713538068122789781720265607500
284,1.6720641630706917001815456485851
285,1.6727720230437683850571106606923
286,1.6734774042324046997945143224022
287,1.6741803239542172437347320805637
288,1.6748807993460940036231061519841
289,1.6755788473667017950914360475776
290,1.6762744847989514230874222369077
291,1.6769677282524184021879543298920
292,1.6776585941657221217003609729463
293,1.6783470988088673613228516551247
294,1.6790332582855431942765878170462
295,1.6797170885353813650513804340800
296,1.6803986053361817273231806888728
297,1.6810778243060946737661216103227
298,1.6817547609057698745082477505266
299,1.6824294304404681270854184746089
300,1.6831018480621380684943638892767
301,1.6837720287714581607798012951956
302,1.6844399874198460430843331914019
303,1.6851057387114324232867385927910
304,1.6857692972050030867553804590670
305,1.6864306773159104507400726529953
306,1.6870898933179539276198011155197
307,1.6877469593452262789772298070383
308,1.6884018893939334389465611238801
309,1.6890546973241838961184756983720
310,1.6897053968617479691669722027537
311,1.6903540015997905711195383173732
312,1.6910005250005749754229419937893
313,1.6916449803971389765716665784678
314,1.6922873809949452495932345283566
315,1.6929277398735052280531790682672
316,1.6935660699879778762417414526188
317,1.6942023841707408941683008086592
318,1.6948366951329397066291677349471
319,1.6954690154660113779321370263428
320,1.6960993576431834535580193102691
321,1.6967277340209516477144425150066
322,1.6973541568405324912369865236807
323,1.6979786382292944538970954336777
324,1.6986011902021665182818638428865
325,1.6992218246630259672479089883182
326,1.6998405534060636222013700403062
327,1.7004573881171293529819814974277
328,1.7010723403750550485715335588581
329,1.7016854216529600235096184282142
330,1.7022966433195352917075427123152
331,1.7029060166403081462625597956754
332,1.7035135527788881065223897470963
333,1.7041192627981946109635524575307
334,1.7047231576616646399159703935452
335,1.7053252482344445830754911761496
336,1.7059255452845624098657617351702
337,1.7065240594840830149052332870348
338,1.7071208014102477974417256028156
339,1.7077157815465945392720544297890
340,1.7083090102840636724986750392808
341,1.7089004979220866507124990576767
342,1.7094902546696589207632325264259
343,1.7100782906463971329192187239280
344,1.7106646158835805831364168564862
345,1.7112492403251787067850012658379
346,1.7118321738288620986418116632681
347,1.7124134261670006245218565901783
348,1.7129930070276454362883006232972
349,1.7135709260154984351801918755273
350,1.7141471926528667258161688951542
351,1.7147218163806041484930287602017
352,1.7152948065590395721624412161618
353,1.7158661724688912324828638932365
354,1.7164359233121685294406223589868
355,1.7170040682130616498445762009005
356,1.7175706162188172245030722314648
357,1.7181355763006032591493153382576
358,1.7186989573543625831439165552612
359,1.7192607682016505611228495557093
360,1.7198210175904660055399224505025
361,1.7203797141960670350028750498697
362,1.7209368666217783600358332369363
363,1.7214924833997845919129665657967
364,1.7220465729919145985912824179885
365,1.7225991437904151441444596971455
366,1.7231502041187126894025048561271
367,1.7236997622321662458440661232999
368,1.7242478263188080715089548094082
369,1.7247944045000768415136981448781
370,1.7253395048315390063856062162265
371,1.7258831353036011915650337105576
372,1.7264253038422125945970484378113
373,1.7269660183095573467697606655356
374,1.7275052865047411477233059358692
375,1.7280431161644628646430977014387
376,1.7285795149636825522981461793534
377,1.7291144905162776831825416300240
378,1.7296480503756907552166992554845
379,1.7301802020355701168597576694922
380,1.7307109529304007664458068747987
381,1.7312403104361280012303382462282
382,1.7317682818707710343661775308319
383,1.7322948744950312545233390800798
384,1.7328200955128900919050419927987
385,1.7333439520722001119676665881581
386,1.7338664512652699955515211376878
387,1.7343876001294391548117996373255
388,1.7349074056476459218039215417463
389,1.7354258747489899844623805378319
390,1.7359430143092862591349345819842
391,1.7364588311516105166684401066974
392,1.7369733320468403704790316071727
393,1.7374865237141891001500610813756
394,1.7379984128217308917120770327458
395,1.7385090059869203515358557997826
396,1.7390183097771059447647881374370
397,1.7395263307100369882550277666195
398,1.7400330752543642062185835657212
399,1.7405385498301324144224379523984
400,1.7410427608092696329646090769466
401,1.7415457145160686766110032316927
402,1.7420474172276619679749843163987
403,1.7425478751744923943456626974562
404,1.7430470945407781013230794795170
405,1.7435450814649686887735851697768
406,1.7440418420401989182117466174326
407,1.7445373823147370483993324736786
408,1.7450317082924253024290735620072
409,1.7455248259331153274445609343592
410,1.7460167411531011615504126494560
411,1.7465074598255439680088214897683
412,1.7469969877808921193893490862119
413,1.7474853308072977108135627842922
414,1.7479724946510259262206789582784
415,1.7484584850168615417013478946180
416,1.7489433075685089956176263514259
417,1.7494269679289888740821156047225
418,1.7499094716810279751223727352920
419,1.7503908243674472301325574037986
420,1.7508710314915424646266541357159
421,1.7513500985174619505691769531195
422,1.7518280308705800319845045978296
423,1.7523048339378646600803785336013
424,1.7527805130682424517112629913839
425,1.7532550735729576506402106089209
426,1.7537285207259285985454415998583
427,1.7542008597640992005039554588078
428,1.7546720958877853987469397306016
429,1.7551422342610205671830121048930
430,1.7556112800118926889051138153093
431,1.7560792382328808204468238514118
432,1.7565461139811879924166429453399
433,1.7570119122790658845228630393421
434,1.7574766381141423730439692122535
435,1.7579402964397397745384076696137
436,1.7584028921751916869055148187170
437,1.7588644302061565892916559240830
438,1.7593249153849271830308059832319
439,1.7597843525307361550529411825078
440,1.7602427464300594351030697467415
441,1.7607001018369141067565330043202
442,1.7611564234731545360123024151818
443,1.7616117160287663652958794808104
444,1.7620659841621529923825822927270
445,1.7625192325004238650422089024230
446,1.7629714656396756158985418790537
447,1.7634226881452732068190647833564
448,1.7638729045521243011868265242713
449,1.7643221193649547047108900753467
450,1.7647703370585770273705363954514
451,1.7652175620781600697478580065998
452,1.7656637988394917752561669494652
453,1.7661090517292414914985732870321
454,1.7665533251052179298759248485620
455,1.7669966232966264474825292705551
456,1.7674389506043209484650500856249
457,1.7678803113010551007246281371681
458,1.7683207096317292640412315295332
459,1.7687601498136356437268201352188
460,1.7691986360367013123367877006563
461,1.7696361724637269493555588056433
462,1.7700727632306245120987832103098
463,1.7705084124466524418033607583457
464,1.7709431241946465660098797346420
465,1.7713769025312506661803427986505
466,1.7718097514871438414566436610525
467,1.7722416750672639492898872368984
468,1.7726726772510321387983194741249
469,1.7731027619925709537747825017298
470,1.7735319332209235301082381539736
471,1.7739601948402681549588320925780
472,1.7743875507301324855339016653594
473,1.7748140047456027786064479292734
474,1.7752395607175356350152489041457
475,1.7756642224527611821512716688180
476,1.7760879937342902084908138883682
477,1.7765108783215155834299300373043
478,1.7769328799504126386751688326229
479,1.7773540023337374008432958585680
480,1.7777742491612230701253179860153
481,1.7781936240997732961717232644811
482,1.7786121307936558202702633606536
483,1.7790297728646918641053799917621
484,1.7794465539124440851490629905471
485,1.7798624775144045758647384604963
486,1.7802775472261774918228934614344
487,1.7806917665816631578258243972832
488,1.7811051390932382488492494231678
489,1.7815176682519352742259139703716
490,1.7819293575276192284494257274045
491,1.7823402103691635431374304008674
492,1.7827502302046239286045629329704
493,1.7831594204414100803216392767439
494,1.7835677844664563445739064748720
495,1.7839753256463895360957261327769
496,1.7843820473276971523868978064952
497,1.7847879528368916705235222983626
498,1.7851930454806748720151852981191
499,1.7855973285460996933332627346499
500,1.786000805300731732892173791956
501,1.786403478992806160816349120909
502,1.786805352851387486963678080787
503,1.787206430086523655637848619698
504,1.787606713889402311134195833449
505,1.788006207432502081898431032680
506,1.788404913869744613708008504811
507,1.788802836336645200230211094670
508,1.789199977950461651251275098952
509,1.789596341810339629809632981365
510,1.789991930997460511818932926733
511,1.790386748575184999617837477217
512,1.790780797589196390010813296264
513,1.791174081067642112917005922653
514,1.791566602021274217483779492080
515,1.791958363443589180369310911144
516,1.792349368310965246998191158782
517,1.792739619582798381018847928877
518,1.793129120201638607840295751897
519,1.793517873093323534709929306676
520,1.793905881167111904860298730326
521,1.794293147315813981495520139168
522,1.794679674415923038378599473928
523,1.795065465327744394744978690979
