Eigenstate,Potential Energy
1,0.500000000035244871969948149532591819
2,0.64623093788117472869569499922086824
3,0.73633761038075826502907643871603633
4,0.79966527922181593211370778821216701
5,0.8480465777238954882334506254909420
6,0.8870660006431660818974442183815048
7,0.9197208294185030990853580229561774
8,0.9477838504272286704269729971620517
9,0.9723835626758453805168152865795431
10,0.9942802203130700979834307201167874
11,1.0140093934800435867655932431749307
12,1.0319621774814725822195543643291535
13,1.0484327023832272754113039839382040
14,1.0636476658685061134502401286720497
15,1.0777854490520226580144445263819689
16,1.090988921350451957088108991539248
17,1.103374273943935829565229083170997
18,1.115037270782283052122957980589345
19,1.126057771688947542874799151272756
20,1.136503069994965248695555089562787
21,1.146430398620651673348287365590125
22,1.155888841234342286549135705443911
23,1.164920810188917397844506132799682
24,1.173563203922224490429520407439626
25,1.181848323753004753582118634147433
26,1.189804607688480947990428074594089
27,1.197457223386933335674102277740833
28,1.204828551516739596110293226837597
29,1.211938582958326827988773780025787
30,1.218805247645996166236695623605725
31,1.225444688700642043525227655206632
32,1.231871492426488540494794984279732
33,1.238098882435317464628889275332124
34,1.244138884411116531429629481374695
35,1.250002466688880955770590473827121
36,1.255699660787822882705458874415235
37,1.261239665235158538467334860904462
38,1.266630935386224239237673514673851
39,1.271881261448823745738620174943176
40,1.276997836523888668154417530206034
41,1.281987316157783352166251658872132
42,1.286855870646593075380908750826159
43,1.291609231126248038519586897879657
44,1.296252730314241620232043527589105
45,1.300791338631131795407549267744546
46,1.305229696316878334264116840895363
47,1.309572142063591787169398938719990
48,1.313822738608683895901824585996999
49,1.317985295667746528166970612862107
50,1.32206339053236351853361114671121
51,1.32606038661259283648375031968337
52,1.32997945016551128797356266968176
53,1.33382356541876383835794328911757
54,1.33759554827049851307677505182932
55,1.34129805872359233999048491199887
56,1.34493361219199922712846153749213
57,1.34850458979985170449586900436192
58,1.35201324777915127229440042495222
59,1.35546172605912815063799477892753
60,1.35885205612932671814305127510835
61,1.36218616824890869926861541915998
62,1.36546589806636515516907248912406
63,1.36869299270658644380171982643102
64,1.37186911637592683510988887987453
65,1.37499585553036562712981871085666
66,1.37807472364701926981563949987039
67,1.38110716563499671205124403670141
68,1.38409456191783402650951524304807
69,1.38703823221643169629274412232695
70,1.38993943905848967902411685128925
71,1.39279939103783666032930397719073
72,1.39561924584475166626723559266162
73,1.39840011308632319786593583304368
74,1.40114305691407220236642955968791
75,1.40384909847443409467487049392697
76,1.40651921819624548576772632612982
77,1.40915435792807887637686642359663
78,1.41175542293710277610116252870309
79,1.41432328378009788809897900258898
80,1.41685877805632187387144990656520
81,1.41936271205106587116991384587276
82,1.42183586227798448750725534413955
83,1.42427897692759225796326697179098
84,1.42669277722869526425800778428147
85,1.42907795872896733589342027867774
86,1.43143519250036438877411229649669
87,1.43376512627461298591837475994284
88,1.43606838551358582713473638139564
89,1.43834557441899337237785404378575
90,1.44059727688547758676826513663891
91,1.44282405740087234320981470465808
92,1.44502646189710672099938534205254
93,1.44720501855496518376799386435710
94,1.44936023856567569135411446547013
95,1.45149261685207564618114940777117
96,1.45360263275190375259443401773198
97,1.45569075066558152550370566892891
98,1.45775742067067531038202162307583
99,1.45980307910507620448323846085403
100,1.46182814912078892872387151786948
101,1.46383304121009139552080841307982
102,1.46581815370570114315520613929463
103,1.46778387325647689361998625904715
104,1.46973057528007622619810577452710
105,1.47165862439389728526159114929061
106,1.47356837482554167653787663643016
107,1.47546017080395762413444407604214
108,1.47733434693234322105835428410233
109,1.47919122854382101243324307518284
110,1.48103113204083273049109898228100
111,1.48285436521913713921780327914358
112,1.48466122757724451289782050762529
113,1.48645201061206573700941090417494
114,1.48822699810150526216538242004345
115,1.48998646637468669329186809438702
116,1.49173068457045146458933235773984
117,1.49345991488473933781330226743688
118,1.49517441280741843030678478156276
119,1.49687442734909876549991887758382
120,1.49856020125843749635758966895515
121,1.50023197123040568501143056493970
122,1.50188996810596760867982273473630
123,1.50353441706359136904761808379113
124,1.50516553780299190246854032183909
125,1.50678354472147792209022557638600
126,1.50838864708325912570425507901681
127,1.50998104918204942523715630799669
128,1.51156095049727936660846868232295
129,1.51312854584421883544387392803978
130,1.51468402551829276226413630115937
131,1.51622757543385713665247851662734
132,1.51775937725768766270248681192652
133,1.51927960853742160646414286315811
134,1.52078844282518211014741412813523
135,1.52228604979659613949987278528981
136,1.52377259536541354324455228317874
137,1.52524824179392139552090065521196
138,1.52671314779933418028081352168955
139,1.52816746865633827068628533329055
140,1.52961135629595371058696024835604
141,1.53104495940087174766577361201205
142,1.53246842349741849457406481863628
143,1.53388189104428644420799729408316
144,1.53528550151816838564138938426926
145,1.53667939149642407947067850958720
146,1.53806369473690218257720063402371
147,1.53943854225503170934569274155307
148,1.54080406239829835834461498937241
149,1.54216038091820750539986733528855
150,1.54350762103983750391595686574799
151,1.54484590352907920667524397549457
152,1.54617534675765200826092753510872
153,1.54749606676598535777310990362333
154,1.54880817732404964105494816928288
155,1.55011178999021466839647839157067
156,1.55140701416821363405350859129304
157,1.55269395716228359415873779817354
158,1.55397272423055428110020146404311
159,1.5552434186367489271738786159869
160,1.5565061417002634350216288774929
161,1.5577609928446823909470274112877
162,1.5590080696447913821819428370356
163,1.5602474678721404713746448167620
164,1.5614792815392134648660669324416
165,1.5627036029422515749434507384856
166,1.5639205227027819916314532536478
167,1.5651301298078985963119650652993
168,1.5663325116493375060576672698562
169,1.5675277540613925107413499903944
170,1.5687159413577101460086008118928
171,1.5698971563670045965459002576892
172,1.5710714804677302962739082765862
173,1.5722389936217476277681480083842
174,1.5733997744070175643927584557056
175,1.5745539000493592400519216410545
176,1.5757014464533001528833740299569
177,1.5768424882320522634030670522711
178,1.5779770987366431414687394488909
179,1.5791053500842286069799061161969
180,1.5802273131856178106846380330581
181,1.5813430577720334036509299589795
182,1.5824526524211344907595566178590
183,1.5835561645823254174638685805040
184,1.5846536606013746313240870337337
185,1.5857452057443654264108987464769
186,1.5868308642209995391688529922126
187,1.5879106992072773962085169758814
188,1.5889847728675704503127954333092
189,1.5900531463761093357162460714410
190,1.5911158799379034937030730325998
191,1.5921730328091114910431496086441
192,1.5932246633168784134360891536334
193,1.5942708288786586377776497830095
194,1.5953115860210373239968742968066
195,1.5963469903980685587878494659098
196,1.5973770968091438431008337834060
197,1.5984019592164052986778089626308
198,1.5994216307617177555755418655785
199,1.6004361637832125544938066053686
200,1.6014456098314170040715034367904
201,1.6024500196849804695316085208004
202,1.6034494433660104687883955202429
203,1.6044439301550294307008071335528
204,1.6054335286055637303358001257426
205,1.6064182865583749665555517810317
206,1.6073982511553465006277722774727
207,1.6083734688530311264866380730174
208,1.6093439854358740940512228096082
209,1.6103098460291172284311040900996
210,1.6112710951113956406205854708372
211,1.6122277765270343886399110273991
212,1.6131799334980553162480684207493
213,1.6141276086358984471173524374106
214,1.6150708439528729101554595961863
215,1.6160096808733366022021643587547
216,1.6169441602446185425535539362155
217,1.6178743223476878783514739977562
218,1.6188002069075785132835419962309
219,1.6197218531035726325250910376130
220,1.6206392995791556320460589068088
221,1.6215525844517403545678495280565
222,1.6224617453221778295307732648965
223,1.6233668192840480778983114109262
224,1.6242678429327460410912903258696
225,1.6251648523743651905895780501947
226,1.6260578832343823561367482328715
227,1.6269469706661524153890919696446
228,1.6278321493592146552030715486811
229,1.6287134535474179566991802519921
230,1.6295909170168694903334612219128
231,1.6304645731137087102338501223612
232,1.6313344547517170567086814672049
233,1.6322005944197583524185079016684
234,1.6330630241890660382635234477907
235,1.6339217757203704200728724623119
236,1.6347768802708756248502815444270
237,1.6356283687010898866891096907025
238,1.6364762714815108933534315327529
239,1.6373206186991716290900992265096
240,1.6381614400640488670743296637797
241,1.6389987649153385928209127053397
242,1.6398326222276012144954571711551
243,1.6406630406167805908826819677275
244,1.6414900483460985652304857765414
245,1.6423136733318293780641102121356
246,1.6431339431489564775203609572451
247,1.6439508850367131089698899160489
248,1.6447645259040142644641882090423
249,1.6455748923347749605049556933158
250,1.6463820105931252282387639601768
251,1.6471859066285197154860630760853
252,1.6479866060807446985015400993167
253,1.6487841342848275750659973925393
254,1.6495785162758484951643525154142
255,1.6503697767936580086757776328764
256,1.6511579402875008148405110916708
257,1.6519430309205520042444628193620
258,1.6527250725743622373778390573097
259,1.6535040888532186626152455173954
260,1.6542801030884219593191927465865
261,1.6550531383424798191215112897710
262,1.6558232174132215901116091067872
263,1.6565903628378329338161634002629
264,1.6573545968968159451250362556225
265,1.6581159416178732596937925198930
266,1.6588744187797183158564887927882
267,1.6596300499158149835837827229263
268,1.6603828563180465934870128645816
269,1.6611328590403186350697528350511
270,1.6618800789020908476532259344884
271,1.6626245364918479872140710404419
272,1.6633662521705032479807012035637
273,1.6641052460747417811844370668630
274,1.6648415381203015192652368061856
275,1.6655751480051951803927056589572
276,1.6663060952128717309372354943267
277,1.6670343990153247891863304993327
278,1.6677600784761397242358183298086
279,1.6684831524534909525059911819607
280,1.6692036396030815247342272442690
281,1.6699215583810328922529641754861
282,1.6706369270467223488066782584473
283,1.6713497636655713603405401424134
284,1.6720600861117819392809801764479
285,1.6727679120710278705556526486300
286,1.6734732590430968140827830523578
287,1.6741761443444883430078919336864
288,1.6748765851109643194494172886146
289,1.6755745983000562558035551193439
290,1.6762702006935303941219012111223
291,1.6769634088998083444880243672191
292,1.6776542393563461672859335648605
293,1.6783427083319758051210059047151
294,1.6790288319292039012948244695807
295,1.6797126260864700919643631400145
296,1.6803941065803723575326009857306
297,1.6810732890278493649814573233419
298,1.6817501888883291178849952471103
299,1.6824248214658407169445929429640
300,1.6830972019110909816361102404767
301,1.6837673452235063443906492360119
302,1.6844352662532421102260501684073
303,1.6851009797031562549419886307735
304,1.6857645001307513393922064661402
305,1.6864258419500859683447492788021
306,1.6870850194336550571342076774082
307,1.6877420467142360880639144191014
308,1.6883969377867088349908009635524
309,1.6890497065098446453632714583804
310,1.6897003666080656148626522199306
311,1.6903489316731772495560078341785
312,1.6909954151660721286977935029796
313,1.6916398304184059609335368889247
314,1.6922821906342478381843834226788
315,1.6929225088917040068608991685939
316,1.6935607981445165320527445715511
317,1.6941970712236343933050710818662
318,1.6948313408387623632315178867685
319,1.6954636195798848105316368802379
320,1.6960939199187644286763848724460
321,1.6967222542104198092018898568992
322,1.6973486346945779740482232099875
323,1.6979730734971053809879861082509
324,1.6985955826314163792907909006743
325,1.6992161739998608776103126038465
326,1.6998348593950894613269517538891
327,1.7004516505013987801077944065594
328,1.7010665588960543948849169192546
329,1.7016795960505960591171408044626
330,1.7022907733321218660077290141624
331,1.7029001020045527002613321781173
332,1.7035075932298780556103881226469
333,1.7041132580693835966559712141169
334,1.7047171074848586490353922931303
335,1.7053191523397879328382432258285
336,1.7059194034005235973122485819018
337,1.7065178713374404290937645790747
338,1.7071145667260752928047682375334
339,1.7077095000482468685125103511317
340,1.7083026816931617773823756863547
341,1.7088941219585028090909712592029
342,1.7094838310515017481389501017196
343,1.7100718190899964368425607681035
344,1.7106580961034720687015489321103
345,1.7112426720340885314676014511704
346,1.7118255567376912746987114295125
347,1.7124067599848092671486297356639
348,1.7129862914616368557064193234739
349,1.7135641607710030708009631870782
350,1.7141403774333259206028419550481
351,1.7147149508875537616181373411653
352,1.7152878904920934280312761897854
353,1.7158592055257244041668298352434
354,1.7164289051885004545392359835472
355,1.7169969986026390767663488177436
356,1.7175634948133969871290661122976
357,1.7181284027899348778145928089040
358,1.7186917314261706898445382645448
359,1.7192534895416171468264941793356
360,1.7198136858822124874495308359369
361,1.7203723291211361415931630128445
362,1.7209294278596158316517122944233
363,1.7214849906277206946893134697156
364,1.7220390258851454494214585599573
365,1.7225915420219838443941439688355
366,1.7231425473594902650327323621643
367,1.7236920501508323915755290051889
368,1.7242400585818316966257108690059
369,1.7247865807716964148713166211741
370,1.7253316247737426981547911133405
371,1.7258751985761068092066711317165
372,1.7264173101024473105292221685945
373,1.7269579672126372151522893606993
374,1.7274971777034504077482924265055
375,1.7280349493092330276830181082494
376,1.7285712897025712702260103762475
377,1.7291062064949473951397313210470
378,1.7296397072373871100659491355512
379,1.7301717994211001685210365500287
380,1.7307024904781109392728508847911
381,1.7312317877818818225448564041004
382,1.7317596986479266312257052842611
383,1.7322862303344186117561972559352
384,1.7328113900427880684032576024719
385,1.7333351849183132121861189456455
386,1.7338576220507048931158061563322
387,1.7343787084746809650944380641479
388,1.7348984511705342202810572251516
389,1.7354168570646945676181685352927
390,1.7359339330302826446333552810277
391,1.7364496858876551794637693354414
392,1.7369641224049457114885913296523
393,1.7374772492985981440625301239720
394,1.7379890732338917104546120097638
395,1.7384996008254602098724279106585
396,1.7390088386378051644456269158483
397,1.7395167931858025270849232436534
398,1.7400234709352029483569335864038
399,1.7405288783031241681747324982690
400,1.7410330216585398322681745516296
401,1.7415359073227607823622402002906
402,1.7420375415699095652870964660136
403,1.7425379306273909817682297149981
404,1.7430370806763565679947677421357
405,1.7435349978521604754194894764181
406,1.7440316882448128578344731093811
407,1.7445271578994278824515697729359
408,1.7450214128166638681908505804750
409,1.7455144589531584122643797772340
410,1.7460063022219610195434738442583
411,1.7464969484929574947382647477038
412,1.7469864035932896799892363163511
413,1.7474746733077716169419994317992
414,1.7479617633792985571623311644340
415,1.7484476795092531048656488191123
416,1.7489324273579049216068486488185
417,1.7494160125448068414296800480996
418,1.7498984406491845597257213183753
419,1.7503797172103241743278774982711
420,1.7508598477279525607746262733830
421,1.7513388376626145339433969416949
422,1.7518166924360460776702711898228
423,1.7522934174315414785114909401155
424,1.7527690179943179773872260791419
425,1.7532434994318743184834657121349
426,1.7537168670143468022680690684074
427,1.7541891259748603272672645432128
428,1.7546602815098744343076494000615
429,1.7551303387795282656266209718333
430,1.7555993029079773009756133127637
431,1.7560671789837293743862996288669
432,1.7565339720599771211322278591633
433,1.7569996871549221928000539167354
434,1.7574643292521023384252388892815
435,1.7579279033007091753846142228117
436,1.7583904142159045510541769620527
437,1.7588518668791336566198168095649
438,1.7593122661384338751239030066415
439,1.7597716168087400450709403450684
440,1.7602299236721872108240165946937
441,1.7606871914784080196646310331747
442,1.7611434249448283291812188781633
443,1.7615986287569606727016556377128
444,1.7620528075686902021597483979871
445,1.7625059660025624390754862768647
446,1.7629581086500638580172972503897
447,1.7634092400719024717369903992981
448,1.7638593647982816361978576049601
449,1.7643084873291749160233689121618
450,1.7647566121345941628273570183665
451,1.7652037436548583095431902265640
452,1.7656498863008557221212512948507
453,1.7660950444543058516887885072432
454,1.7665392224680165761450062849953
455,1.7669824246661408550852720601134
456,1.7674246553444279950785973626561
457,1.7678659187704742210276429752595
458,1.7683062191839689495341282210469
459,1.7687455607969392782178919634705
460,1.7691839477939923333582652305268
461,1.7696213843325533256096559378772
462,1.7700578745431025268661580992538
463,1.7704934225294097720746779529921
464,1.7709280323687646469295757521777
465,1.7713617081122063302117382312872
466,1.7717944537847502214995527532257
467,1.7722262733856106347951836597341
468,1.7726571708884245737379167164879
469,1.7730871502414690651334466644426
470,1.7735162153678795753685771622373
471,1.7739443701658637768516537498310
472,1.7743716185089149621234862282066
473,1.7747979642460204565734075286735
474,1.7752234112018725337887721492756
475,1.7756479631770707563278677779142
476,1.7760716239483282557560481104596
477,1.7764943972686722849775739561384
478,1.7769162868676437188894842454011
479,1.7773372964514943927765919696232
480,1.7777574297033826730675525051649
481,1.7781766902835658113653778327966
482,1.7785950818295926505771126007110
483,1.7790126079564920631802574921478
484,1.7794292722569599414194668055968
485,1.7798450783015462163506103372032
486,1.7802600296388364905664038609951
487,1.7806741297956351334265794964328
488,1.7810873822771444353224096517991
489,1.7814997905671430491161005870510
490,1.7819113581281615818443520580393
491,1.7823220884016574709286715359084
492,1.7827319848081877330414864883436
493,1.7831410507475795605955608482798
494,1.7835492895990998598572353887890
495,1.7839567047216219231371580215472
496,1.7843632994537924794378888862385
497,1.7847690771141948090368908710858
498,1.7851740410015118672137846489882
499,1.7855781943946869144008072195370
500,1.785981540553083783180500921574
501,1.786384082716642528099550818898
502,1.786785824106037913401253382180
503,1.787186767922832206728555503826
504,1.787586917349630122555125284559
505,1.787986275550228762730401246162
506,1.788384845669768284144215484881
507,1.788782630834881141452520437099
508,1.789179634153839544739814926937
509,1.789575858716699362919404676740
510,1.789971307595446526019977712590
511,1.790365983844139157345842509722
512,1.790759890499049335617903910088
513,1.791153030578803102743964709526
514,1.791545407084519393597873926376
515,1.791937022999948262020632629107
516,1.792327881291606613353191743889
517,1.792717984908912518213264585661
518,1.793107336784319892879427677154
519,1.793495939833450328205711493604
520,1.793883796955224924052673881038
521,1.794270911031992924450935933685
522,1.794657284929661429685115142137
523,1.795042921497822622447803784374
