Eigenstate,Potential Energy
1,0.500000000022816252126697986268911866
2,0.64623093780004714705170584455697093
3,0.73633761014245241094046316709546357
4,0.79966527872545168003353111974153434
5,0.8480465768640902152786256740265889
6,0.8870659993126923292467851553859811
7,0.9197208275092678880129036479180610
8,0.9477838478306820025589504183336100
9,0.9723835592831702689215084380011275
10,0.9942802160152790882881509561941010
11,1.0140093881680312580555181080093274
12,1.0319621710460456159064291094402619
13,1.0484326947151223120243189653757336
14,1.0636476568584005813582945971072952
15,1.0777854385905413622456524193776815
16,1.090988909328171004844289912292712
17,1.103374260251384823277800543207073
18,1.115037255309946120660735239234953
19,1.126057754327263572382851795855776
20,1.136503050634327548799430233482192
21,1.146430377151407236463179857513146
22,1.155888817546790748296565944527049
23,1.164920784173309774063743720948397
24,1.173563175468761744532894105620618
25,1.181848292751836233172701997070231
26,1.189804574029702719354306720671091
27,1.197457186960586437475745576228978
28,1.204828512212808228392090174810839
29,1.211938540666736488770544538449308
30,1.218805202256611745204623936337510
31,1.225444640103265880204805435782582
32,1.231871440510858452721054123931433
33,1.238098827091104751921016595212539
34,1.244138825527923956948073519551239
35,1.250002404156240709812749739196795
36,1.255699594495194530130125158926240
37,1.261239595071926951990918185882255
38,1.266630861241697520189325071681436
39,1.271881183212231133576063959285448
40,1.276997754084378439812036222036948
41,1.281987229404420712120034486274907
42,1.286855779468358037162114563849802
43,1.291609135412033298283509643853988
44,1.296252629952850422884640721645847
45,1.300791233511275793706664849061525
46,1.305229586327175441240253565518194
47,1.309572027092564022150862710373947
48,1.313822618544755224378412557886219
49,1.317985170399240695683581041041279
50,1.32206325994750187876880980353161
51,1.32606025059949217363734123585185
52,1.32997930861218163356072374526021
53,1.33382341821310628248472759390971
54,1.33759539530030301025215748405461
55,1.34129789987653550951317638979558
56,1.34493344735564214807198571677400
57,1.34850441886163770530259537645196
58,1.35201307062640371497798211590033
59,1.35546154257904820958389425873828
60,1.35885186620899115348817745089544
61,1.36218597177526762483348626627701
62,1.36546569492623980090916796722229
63,1.36869278278666691273871896150902
64,1.37186889956276985469816415388606
65,1.37499563171039229500878132171691
66,1.37807449270651279389426476937075
67,1.38110692746010014486729477172913
68,1.38409431639454799380249233411054
69,1.38703797923061211972644774038457
70,1.38993917849584549299193523273939
71,1.39279912278392752277262960625805
72,1.39561896978498566343517076687941
73,1.39839982910595454294216156214394
74,1.40114276489819892788719304292534
75,1.40384879830799573866012722896760
76,1.40651890976402077148582778641369
77,1.40915404111468338566153167124041
78,1.41175509762698661613799546506575
79,1.41432294985754335159739208046430
80,1.41685843540544109253657147500233
81,1.41936236055579846238775643567235
82,1.42183550182209519415528643159308
83,1.42427860739466858125739519812676
84,1.42669239850214508954592042291090
85,1.42907757069201655130318266127608
86,1.43143479503605449662598131106714
87,1.43376471926579870680679565216146
88,1.43606796884293269658659270229032
89,1.43834514796897532999216616591899
90,1.44059684053837455774164776766321
91,1.44282361103876781215115969567602
92,1.44502600540188529793644291098727
93,1.44720455180831016224767445506307
94,1.44935976144906659853757884047616
95,1.45149212924678578483394522920907
96,1.45360213453899773487120399781184
97,1.45569024172591279842616759673284
98,1.45775690088488367290825432592014
99,1.45980254835358531606547027558320
100,1.46182760728380380925129143629953
101,1.46383248816759591654314302736175
102,1.46581758933745551028208338734470
103,1.46778329744201511999040332075545
104,1.46972998789870359691348552031875
105,1.47165802532468781267530489380073
106,1.47356776394733554629329121956562
107,1.47545954799535863184283329373821
108,1.47733371207171619950732095843224
109,1.47919058150928924921547469741596
110,1.48103047271027537594262997187572
111,1.48285369347018660455413130041835
112,1.48466054328728385843553147350147
113,1.48645131365822605036018412951100
114,1.48822628836066302628850150192865
115,1.48998574372346114429057742491598
116,1.49172994888520193913564414644254
117,1.49345916604156261008506514084960
118,1.49517365068214603832001585901505
119,1.49687365181729432671868501998324
120,1.49855941219539401246286443290619
121,1.50023116851114283570955423446185
122,1.50188915160522903443044340676222
123,1.50353358665584194259010317937242
124,1.50516469336241498902508377942746
125,1.50678268612197262812302040281024
126,1.50838777419843753610324765973755
127,1.50998016188523382881406597467399
128,1.51156004866149946977190298099056
129,1.51312762934220896392950314345631
130,1.51468309422248905079300683223966
131,1.51622662921639470638973617790649
132,1.51775841599039778638767050419018
133,1.51927863209182886108365274334102
134,1.52078745107250151701853259527662
135,1.52228504260773029163494264430420
136,1.52377157261094971986302755734495
137,1.52524720334412866357591070640532
138,1.52671209352416048286603950213857
139,1.52816639842540750218795147094313
140,1.52961026997856277844475144221811
141,1.53104385686598762060558192902776
142,1.53246730461367523717437133168432
143,1.53388075567998223766077683435564
144,1.53528434954126253456735066834599
145,1.53667822277453400464770819861712
146,1.53806250913730039943973273569678
147,1.53943733964464279211175184608217
148,1.54080284264369588962625135951788
149,1.54215914388561101115151802719771
150,1.54350636659510937357431774662040
151,1.54484463153772159834298365611528
152,1.54617405708480373878565022722977
153,1.54749475927641877757166962240803
154,1.54880685188216749353228817664053
155,1.55011044646004693380682080716741
156,1.55140565241341435765062221900452
157,1.55269257704612769848098185535718
158,1.55397132561593436223466536099367
159,1.5552420013861720348428257503455
160,1.5565047056758478363332781540614
161,1.5577595379081543176513721418164
162,1.5590065956574817612711863692062
163,1.5602459746949816388665270150358
164,1.5614777690327358626070858192991
165,1.5627020709665804302676436036975
166,1.5639189711176339797092851237046
167,1.5651285584725784850223753702083
168,1.5663309204227347832150610776899
169,1.5675261428019779935080874698360
170,1.5687143099235325723219335262880
171,1.5698955046156871983872554609738
172,1.5710698082564673546067695119431
173,1.5722373008073010089695170777865
174,1.5733980608457132380017530713784
175,1.5745521655970837776575736705343
176,1.5756996909654972079722908231533
177,1.5768407115637190319861664058544
178,1.5779753007423268033047925864867
179,1.5791035306180227472120132175135
180,1.5802254721011588217044347298234
181,1.5813411949224968670036311557666
182,1.5824507676592315389014842043754
183,1.5835542577602990751825110117730
184,1.5846517315709961366291766239608
185,1.5857432543569305307032864951138
186,1.5868288903273247864925756720610
187,1.5879087026576963813895643369252
188,1.5889827535119300557865762878810
189,1.5900511040637659468440333819141
190,1.5911138145177191923759792638644
191,1.5921709441294502273705679798600
192,1.5932225512256021553137277996115
193,1.5942686932231234981285022392143
194,1.5953094266480896654768243059525
195,1.5963448071540410757457221692924
196,1.5973748895398516205808722337546
197,1.5983997277671418482508145881053
198,1.5994193749772510277830432281305
199,1.6004338835077809276876191375099
200,1.6014433049087252494293845704246
201,1.6024476899581956920275866538778
202,1.6034470886777580238944997035850
203,1.6044415503473888165950018551920
204,1.6054311235200644553888543311654
205,1.6064158560359923918676741884254
206,1.6073957950364976573837460641370
207,1.6083709869775705078961646572193
208,1.6093414776430894216390909955194
209,1.6103073121577251924397806291842
210,1.6112685349995376142855438605822
211,1.6122251900122721160961142190595
212,1.6131773204173665738236459578850
213,1.6141249688256726777683582918373
214,1.6150681772489068307934716099017
215,1.6160069871108297836642278470549
216,1.6169414392581689619615411813838
217,1.6178715739712874436058671457999
218,1.6187974309746085594342228058711
219,1.6197190494467993897593437276196
220,1.6206364680307256650316605273699
221,1.6215497248431759728867409709649
222,1.6224588574843724689363468474826
223,1.6233639030472616521268993662247
224,1.6242648981266002639560447801245
225,1.6251618788278388680821977245487
226,1.6260548807758066482602403080164
227,1.6269439391232060674420387481593
228,1.6278290885589191982332777735293
229,1.6287103633161328768420230424769
230,1.6295877971802873667475135239795
231,1.6304614234968503213437326071650
232,1.6313312751789264544624130068240
233,1.6321973847146979042637285351473
234,1.6330597841747114365443391279422
235,1.6339185052190056585461609256268
236,1.6347735791040879420175854673717
237,1.6356250366897646756371671135218
238,1.6364729084458265777935587525120
239,1.6373172244585945052840291010687
240,1.6381580144373279113303621281128
241,1.6389953077205002342419883978169
242,1.6398291332819440726574954500432
243,1.6406595197368701781181120989981
244,1.6414864953477619531893204269854
245,1.6423100880301498282212421663677
246,1.6431303253582680352948898325763
247,1.6439472345705951611190409146881
248,1.6447608425752860594109853923358
249,1.6455711759554900912556811294878
250,1.6463782609745660775426834669825
251,1.6471821235811918628866843647441
252,1.6479827894143712889251391775046
253,1.6487802838083436485899693181896
254,1.6495746317973952776039146687262
255,1.6503658581205771626246366050319
256,1.6511539872263286507969389028829
257,1.6519390432770136514510432928536
258,1.6527210501533657739992141584814
259,1.6535000314588492048747154572555
260,1.6542760105239357092111350104570
261,1.6550490104102980703125570832846
262,1.6558190539149246916402451260288
263,1.6565861635741542111959069115458
264,1.6573503616676355784530311146147
265,1.6581116702222121183619426219867
266,1.6588701110157317494591119285869
267,1.6596257055807865686108510685291
268,1.6603784752083818353885096099584
269,1.6611284409515386252722541899194
270,1.6618756236288258751056161439982
271,1.6626200438278311040350836305566
272,1.6633617219085637887765673048222
273,1.6641006780067988356007797137869
274,1.6648369320373573573325112231507
275,1.6655705036973286302205724210731
276,1.6663014124692315083081712116702
277,1.6670296776241227785945193028512
278,1.6677553182246442109126360788667
279,1.6684783531280198049688255254695
280,1.6691988009889953273903724647496
281,1.6699166802627280275856358374751
282,1.6706320092076240286656465062440
283,1.6713448058881266058542518083969
284,1.6720550881774525089029941278615
285,1.6727628737602831357520135049994
286,1.6734681801354065821631001168756
287,1.6741710246183156265967153939754
288,1.6748714243437580520898939188884
289,1.6755693962682439531798197141322
290,1.6762649571725107603811995633840
291,1.6769581236639438231383494464313
292,1.6776489121789554361393493786207
293,1.6783373389853262147476217965101
294,1.6790234201845038564458542296672
295,1.6797071717138613754182942207627
296,1.6803886093489223958115974871463
297,1.6810677487055434353799377677069
298,1.6817446052420624962461953051751
299,1.6824191942614107656151771075318
300,1.6830915309131891770224427296836
301,1.6837616301957102435345778139285
302,1.6844295069580072558118648633758
303,1.6850951759018080181394162540354
304,1.6857586515834766999347373996593
305,1.6864199484159252312357078377594
306,1.6870790806704935053663434026222
307,1.6877360624787955707321167198858
308,1.6883909078345392901706328584809
309,1.6890436305953155571209842269468
310,1.6896942444843574037562392479256
311,1.6903427630922725959793320732502
312,1.6909891998787472284128091056998
313,1.6916335681742217121288453676641
314,1.6922758811815409593912688205991
315,1.6929161519775780850499649953896
316,1.6935543935148330002279386998701
317,1.6941906186230034369035804000687
318,1.6948248400105337546308565530399
319,1.6954570702661386709577308474037
320,1.6960873218603019167983534881889
321,1.6967156071467537356915251141153
322,1.6973419383639233413742858392214
323,1.6979663276363698477075663300175
324,1.6985887869761906480912689307239
325,1.6992093282844090063479634248088
326,1.6998279633523390962992184457057
327,1.7004447038629313107881563428110
328,1.7010595613920950293407651667268
329,1.7016725474100038193220962016359
330,1.7022836732823795022514113430990
331,1.7028929502717565238501950015151
332,1.7035003895387276890449059871394
333,1.7041060021431716404596634062048
334,1.7047097990454602644024688094277
335,1.7053117911076503392569661679896
336,1.7059119890946554843115585243833
337,1.7065104036754012812513984512303
338,1.7071070454239646271451579664083
339,1.7077019248206933834131182117642
340,1.7082950522533124120967980903141
341,1.7088864380180117129872501694543
342,1.7094760923205191587411873837247
343,1.7100640252771574657538436938095
344,1.7106502469158853944750543500062
345,1.7112347671773249984828073474162
346,1.7118175959157723970884635999744
347,1.7123987429001956368117639754488
348,1.7129782178152164534298515756006
349,1.7135560302620794795040228237811
350,1.7141321897596064397046294452818
351,1.7147067057451374215180078547582
352,1.7152795875754589036801520111654
353,1.7158508445277178266957093518553
354,1.7164204858003231198990522045025
355,1.7169885205138350503212961591638
356,1.7175549577118406031330418991373
357,1.7181198063618181326881663329994
358,1.7186830753559905281569169706535
359,1.7192447735121626388747657823170
360,1.7198049095745518973135384750972
361,1.7203634922146038845321330831777
362,1.7209205300317993196949673687674
363,1.7214760315544470692599512037168
364,1.7220300052404681998182590607785
365,1.7225824594781693109430372337472
366,1.7231334025870040257053243179605
367,1.7236828428183255308576712623515
368,1.7242307883561269554045205371294
369,1.7247772473177742200951330291108
370,1.7253222277547270710048220040130
371,1.7258657376532511505047917268534
372,1.7264077849351200620907055715884
373,1.7269483774583073957770754932237
374,1.7274875230176730225283960657965
375,1.7280252293456343492882499654690
376,1.7285615041128339908139725209657
377,1.7290963549287956475192113818926
378,1.7296297893425713567273850432248
379,1.7301618148433819571297461063121
380,1.7306924388612475232048999455420
381,1.7312216687676106450270110069312
382,1.7317495118759496716247455839193
383,1.7322759754423865925440041539301
384,1.7328010666662845213070545582280
385,1.7333247926908384020142575175965
386,1.7338471606036595977317684975607
387,1.7343681774373501099924952381568
388,1.7348878501700703661982195918309
389,1.7354061857261012495980095609022
390,1.7359231909763975609375123990438
391,1.7364388727391332287074020549668
392,1.7369532377802418763556163528589
393,1.7374662928139502199366796027986
394,1.7379780445033028772814981432475
395,1.7384884994606814455465402758568
396,1.7389976642483174979956585713580
397,1.7395055453787991299084651328367
398,1.7400121493155710617348110726583
399,1.7405174824734268652720468778669
400,1.7410215512189976128076675622318
401,1.7415243618712329981318244939632
402,1.7420259207018756746212832347879
403,1.7425262339359316311192366092311
404,1.7430253077521344986852548650753
405,1.7435231482834012536452798468069
406,1.7440197616172854259606608234860
407,1.7445151537964249296207564730804
408,1.7450093308189820182374765102276
409,1.7455022986390782269029612915772
410,1.7459940631672268147734776582198
411,1.7464846302707569683811266569119
412,1.7469740057742333482474485101837
413,1.7474621954598720578422354978355
414,1.7479492050679494587177975828504
415,1.7484350402972081157646461514756
416,1.7489197068052563022066674085655
417,1.7494032102089639128059488161648
418,1.7498855560848519484985471757823
419,1.7503667499694798509564081432985
420,1.7508467973598256689820223214909
421,1.7513257037136630089033977287481
422,1.7518034744499340505563324780572
423,1.7522801149491164649778190651334
424,1.7527556305535878475191660895510
425,1.7532300265679840457228692679795
426,1.7537033082595549887864144154578
427,1.7541754808585155032264036062018
428,1.7546465495583911284133727988451
429,1.7551165195163628443478272963762
430,1.7555853958536035737655842018255
431,1.7560531836556139622081373136742
432,1.7565198879725545855547881172755
433,1.7569855138195699228939237849797
434,1.7574500661771151926525230301555
435,1.7579135499912738756377083595244
436,1.7583759701740738259616646365563
437,1.7588373316038001311985902546104
438,1.7592976391253037038179701901954
439,1.7597568975503062851771613888304
440,1.7602151116577029332652907580809
441,1.7606722861938591540297673918130
442,1.7611284258729062399091502913715
443,1.7615835353770344632455696482158
444,1.7620376193567787439241035828461
445,1.7624906824313061218751112929338
446,1.7629427291886960587638019802798
447,1.7633937641862207380125659296143
448,1.7638437919506185813316139864688
449,1.7642928169783688222382576119259
450,1.7647408437359592889798922718520
451,1.7651878766601548999293101962591
452,1.7656339201582597127739589383169
453,1.7660789786083782705443272038992
454,1.7665230563596726334029298159113
455,1.7669661577326187200389618790239
456,1.7674082870192572556393961020978
457,1.7678494484834440221153494101486
458,1.7682896463610958064514395211157
459,1.7687288848604345610738486163673
460,1.7691671681622294185505391432386
461,1.7696045004200344103186684334872
462,1.7700408857604251024591972381486
463,1.7704763282832327522594973570986
464,1.7709108320617741464386381033456
465,1.7713444011430810897396248027210
466,1.7717770395481266745541738991669
467,1.7722087512720476120638679407747
468,1.7726395402843676405066882997513
469,1.7730694105292144872328342471580
470,1.7734983659255379090577946762357
471,1.7739264103673230779859833430057
472,1.7743535477238036098829268255077
473,1.7747797818396695869645580599841
474,1.7752051165352780780622718329581
475,1.7756295556068550793840533224364
476,1.7760531028267013895413158017005
477,1.7764757619433927518017473507063
478,1.7768975366819789395202970971471
479,1.7773184307441806740944897641915
480,1.7777384478085847699882113483286
481,1.7781575915308360576589681927640
482,1.7785758655438296531373668506158
483,1.7789932734578989542151348934485
484,1.7794098188610021829555494078531
485,1.7798255053189089513615356385819
486,1.7802403363753814349508831843927
487,1.7806543155523570029784850892789
488,1.7810674463501269017473221659407
489,1.7814797322475142190629045939603
490,1.7818911767020489928294450812055
491,1.7823017831501425979414732812474
492,1.7827115550072599995261106829064
493,1.7831204956680898474113268720339
494,1.7835286085067135057239775159819
495,1.7839358968767712099752867692846
496,1.7843423641116285959142057177503
497,1.7847480135245392855267415712011
498,1.7851528484088074752889007224298
499,1.7855568720379480238467213769141
500,1.785960087665846169444862148036
501,1.786362498526912622962019689650
502,1.786764107836241491549110107372
503,1.787164918789762500809378158984
504,1.787564934564395359166393805273
505,1.787964158318199111689751387668
506,1.788362593190522213267268436391
507,1.788760242302151168948085530697
508,1.789157108755457381208165135266
509,1.789553195634540434818759343501
510,1.789948506005373872340249087146
511,1.790343042915946691100843345309
512,1.790736809396404461637620798078
513,1.791129808459188683117470215276
514,1.791522043099175051981702169092
515,1.791913516293811017891452572529
516,1.792304231003250837144861828278
517,1.792694190170489198136356080182
518,1.793083396721495204076558850270
519,1.793471853565343494750544299138
520,1.793859563594345364151208188754
521,1.794246529684176669049852960199
522,1.794632754694006804539489103854
523,1.795018241466625183542113942019
