Eigenstate,Potential Energy
1,0.500000000029619894364617229716601646
2,0.64623093784445777797484673871933672
3,0.73633761027290505590771028612598154
4,0.79966527899716964428827088457030550
5,0.8480465773347613337848246578012099
6,0.8870660000410140425205997372205857
7,0.9197208285544110732724775027667055
8,0.9477838492520672792699935850972075
9,0.9723835611403638980913931051417466
10,0.9942802183679400606791377515016271
11,1.0140093910758824797669307407343823
12,1.0319621745688573735757526305383875
13,1.0484326989127024230654105728096465
14,1.0636476617905883914166458895112561
15,1.0777854443172040635762526353540256
16,1.090988915909201412550621859215479
17,1.103374267746700099845679983660911
18,1.115037263779487136419877895867461
19,1.126057763830994704011024690998923
20,1.136503061232236786818832986913924
21,1.146430388903506515374276789829833
22,1.155888830513116440221426624983261
23,1.164920798413923304570341810369045
24,1.173563191043750301211577851956609
25,1.181848309721313545654566203162568
26,1.189804592453809895102997006481964
27,1.197457206899492841671410892051919
28,1.204828533726712399087773966923447
29,1.211938563815867080584338151975782
30,1.218805227101228496347135645520794
31,1.225444666703660598788232867857823
32,1.231871468927356019161767031261113
33,1.238098857384064134907817190370361
34,1.244138857757739240956823053305807
35,1.250002438383342132543276745645084
36,1.255699630780049528551098294535904
37,1.261239633475041215923126019044837
38,1.266630901823616052552605639498298
39,1.271881226033539316581299139435512
40,1.276997799205703106505641007788114
41,1.281987276886431222790694772469770
42,1.286855829371767360203112586008751
43,1.291609187797599095172645889592720
44,1.296252684881376137000455359024594
45,1.300791291043611742746735405716054
46,1.305229646524219913046614374944768
47,1.309572090015264373780479322627593
48,1.313822684254108984284347407251670
49,1.317985238956296668895890353176478
50,1.32206333141336125498406883157261
51,1.32606032503530963814264510550064
52,1.32997938607916648093246948288730
53,1.33382349877252353301492075558932
54,1.33759547901347452906569670979006
55,1.34129798680484112834881941545868
56,1.34493353756052078970773654973300
57,1.34850451240458851061322545445287
58,1.35201316756898717261852210449951
59,1.35546164298288728829824988333347
60,1.35885197013577243704672647095322
61,1.36218607928674244960764612220334
62,1.36546580608422539609458608516833
63,1.36869289765304754324197017421187
64,1.37186901819949796670471155786385
65,1.37499575417948966425255249016863
66,1.37807461907007167665146727761645
67,1.38110705778028443169917261784248
68,1.38409445073359436607357080810090
69,1.38703811765083120892651564078145
70,1.38993932105962304289147375668798
71,1.39279926955372555444285916680959
72,1.39561912082334364316505198197208
73,1.39839998447549055308591730652525
74,1.40114292466161084067691017155072
75,1.40384896252806239301901141283220
76,1.40651907850360315287854233586769
77,1.40915421443672580901890789692708
78,1.41175527559451791189415823299034
79,1.41432313253367805487808520971782
80,1.41685862285338063553809562895694
81,1.41936255283883236998661941170764
82,1.42183569900360228278922443067157
83,1.42427880953811816111899587775858
84,1.42669260567109817013062155376633
85,1.42907778295012705035392846648459
86,1.43143501244707045251728215757701
87,1.43376494189356349441143657632635
88,1.43606819675138624666866812450728
89,1.43834538122215535217053824360976
90,1.44059707920041776706836508061960
91,1.44282385517391115934976756932158
92,1.44502625507446720334550400502997
93,1.44720480708277175351521739920545
94,1.44936002238995295211254933187721
95,1.45149239591874717130113119968954
96,1.45360240700679086817642394500881
97,1.45569052005440208903891326675728
98,1.45775718513904248496928808633250
99,1.45980283859849722856725963900232
100,1.46182790358466388129948051289922
101,1.46383279058971195674760629932653
102,1.46581789794624935032645753699698
103,1.46778361230302389242929062657384
104,1.46973030907758101724692191677239
105,1.47165835288720546575035440486427
106,1.47356809795938417708298012464652
107,1.47545988852294944065299368194928
108,1.47733405918098214166220821393151
109,1.47919093526648633927338726000364
110,1.48103083318178399649306412826557
111,1.48285406072251281964836109015303
112,1.48466091738706073170282854782778
113,1.48645169467221496786221169158134
114,1.48822667635575502416479434198994
115,1.48998613876667824124831105343014
116,1.49173035104369847383728369680607
117,1.49345957538262658348777311735006
118,1.49517406727320046102111403566279
119,1.49687407572589857136173992307270
120,1.49855984348924517125936175671267
121,1.50023160725807708313147057453655
122,1.50188959787322299512937188034818
123,1.50353404051301406459895890515183
124,1.50516515487702692229875251726951
125,1.50678315536243060847471887797321
126,1.50838825123329377459369112636666
127,1.50998064678318790665092469118737
128,1.51156054149139973877742280251704
129,1.51312813017305395263450719065253
130,1.51468360312342887621589699012620
131,1.51622714625673249155948456442202
132,1.51775894123959108367025603338807
133,1.51927916561949108137161332326142
134,1.52078799294840336484390197823398
135,1.52228559290180120626612895422775
136,1.52377213139327932244658976998446
137,1.52524777068496821038464490303310
138,1.52671266949392432471517703334889
139,1.52816698309467455008170019074894
140,1.52961086341807797551580166094539
141,1.53104445914666342041064246277464
142,1.53246791580659308840926679692527
143,1.53388137585639407535899292678065
144,1.53528497877259227784644056341859
145,1.53667886113237906106833758355799
146,1.53806315669343317604264960099723
147,1.53943799647101221319839330277609
148,1.54080350881242892134914903524716
149,1.54215981946901419298114497692588
150,1.54350705166567035670948077614000
151,1.54484532616811069113236437656980
152,1.54617476134787545922849198378285
153,1.54749547324521341296620681657754
154,1.54880757562991266734089280369565
155,1.55011118006015917980740326274862
156,1.55140639593950070144435284506338
157,1.55269333057198724642676767001265
158,1.55397208921555989788147340176188
159,1.5552427751337516229313726655806
160,1.5565054896457664344391550492258
161,1.5577603321749953955422271833664
162,1.5590074002960289280510326677439
163,1.5602467897802202779808669556830
164,1.5614785946398547747830675099768
165,1.5627029071709734844640043042429
166,1.5639198179949017721513630656247
167,1.5651294160985300063980474469192
168,1.5663317888733890941081168309350
169,1.5675270221535659081459364422079
170,1.5687152002524983507153748500176
171,1.5698964059986902469403424168603
172,1.5710707207703839352756352610962
173,1.5722382245292259570494894683720
174,1.5733989958529616886227050568194
175,1.5745531119671929010681428505531
176,1.5757006487762279536941413303829
177,1.5768416808930578819201017629525
178,1.5779762816684875338711756426506
179,1.5791045232194482006086446695467
180,1.5802264764565226863655277603610
181,1.5813422111107054673443598748311
182,1.5824517957594256344331102174585
183,1.5835552978518556690838158636695
184,1.5846527837335302938605708982636
185,1.5857443186702972057507334674725
186,1.5868299668716206608289697653864
187,1.5879097915132617107421327452259
188,1.5889838547593505272993560418845
189,1.5900522177838745462253930278859
190,1.5911149407915980811216955859638
191,1.5921720830384326301537893298877
192,1.5932237028512742576338599741972
193,1.5942698576473263543118333294245
194,1.5953106039529211171223696544357
195,1.5963459974218576807106423469353
196,1.5973760928532705926004689831178
197,1.5984009442090430072889894492831
198,1.5994206046307787612097705482109
199,1.6004351264563461623809020632041
200,1.6014445612360074348998630868835
201,1.6024489597481447946648082121351
202,1.6034483720145965324347212962846
203,1.6044428473156137589111289427236
204,1.6054324342044494267040688154264
205,1.6064171805215895944950077565433
206,1.6073971334086399520948541897621
207,1.6083723393218734770233081740873
208,1.6093428440454534440152792946870
209,1.6103086927043375302828509466368
210,1.6112699297768745121329051079722
211,1.6122265991071009118976895388983
212,1.6131787439167478223015441619520
213,1.6141264068169622861527382622629
214,1.6150696298197582070448653289577
215,1.6160084543491959972936640628755
216,1.6169429212523049175607402223071
217,1.6178730708097520672006237296258
218,1.6187989427462669977751902385619
219,1.6197205762408252226653905909792
220,1.6206380099366031309019339888138
221,1.6215512819507022074985176730266
222,1.6224604298836597576469558090931
223,1.6233654908287396955987666421536
224,1.6242665013810184575251368052335
225,1.6251634976462685948911710769610
226,1.6260565152496435862785449543913
227,1.6269455893441725104964102949424
228,1.6278307546190663911730788186549
229,1.6287120453078433649649959409299
230,1.6295894951962773596126604673063
231,1.6304631376301720710990174231873
232,1.6313330055229706488162854649648
233,1.6321991313631960742305358675786
234,1.6330615472217383790947869331022
235,1.6339202847589818742952181113767
236,1.6347753752317820880833970043471
237,1.6356268495002960338057629153213
238,1.6364747380346675381252633599903
239,1.6373190709215730652987700876149
240,1.6381598778706301909102890333675
241,1.6389971882206730063910756669346
242,1.6398310309458973102589958188818
243,1.6406614346618796168321086455304
244,1.6414884276314716706337791151273
245,1.6423120377705748395813958493853
246,1.6431322926537969055070424138785
247,1.6439492195199926337761770542409
248,1.6447628452776957025390143963276
249,1.6455731965104369601103422733600
250,1.6463802994819593945787430053477
251,1.6471841801413277150521708024815
252,1.6479848641279353424350892176966
253,1.6487823767764138813352226869764
254,1.6495767431214447293522340072913
255,1.6503679879024767031726246685449
256,1.6511561355683497662330546372803
257,1.6519412102818312486911161129615
258,1.6527232359240610037575158573024
259,1.6535022360989123032352173066225
260,1.6542782341372688579649790133254
261,1.6550512531012182762296210486935
262,1.6558213157881666848438019861284
263,1.6565884447348733628113821246918
264,1.6573526622214108377031619820827
265,1.6581139902750489692824818592860
266,1.6588724506740651874106745060402
267,1.6596280649514840967644237886764
268,1.6603808543987464813635173588428
269,1.6611308400693119781078737763032
270,1.6618780427821911427479309601302
271,1.6626224831254161915242122036546
272,1.6633641814594443973196467278422
273,1.6641031579205015827185768425637
274,1.6648394324238629182691603900318
275,1.6655730246670749008077256930301
276,1.6663039541331167894767149769929
277,1.6670322400935089827289670474947
278,1.6677579016113600902450385234380
279,1.6684809575443642022108664574690
280,1.6692014265477404488045622777032
281,1.6699193270771227386981818113263
282,1.6706346773913971728255115313519
283,1.6713474955554903458452209175302
284,1.6720577994431056918170764261758
285,1.6727656067394146813352438039413
286,1.6734709349436988948459652709815
287,1.6741738013719480314242773467166
288,1.6748742231594102547685231601648
289,1.6755722172630995244593303823181
290,1.6762678004642606449937462068968
291,1.6769609893707898735173281709891
292,1.6776518004196139711439924220461
293,1.6783402498790316036206819975788
294,1.6790263538510121282349712549031
295,1.6797101282734538540927484222590
296,1.6803915889224093613093879361828
297,1.6810707514142678108221871093848
298,1.6817476312079035615579601238371
299,1.6824222436067878977943089859721
300,1.6830946037610656173008109460264
301,1.6837647266695968916781180194109
302,1.6844326271819664918082093938063
303,1.6850983200004575515250489703901
304,1.6857618196819934470153032685925
305,1.6864231406400492204561702129364
306,1.6870822971465318110903431652426
307,1.6877393033336262756920234201671
308,1.6883941731956154768528882478910
309,1.6890469205906693283539849826449
310,1.6896975592426039327702325484942
311,1.6903461027426142062111404465515
312,1.6909925645509775033306932615468
313,1.6916369579987296353556078859744
314,1.6922792962893150854065447075236
315,1.6929195925002107407556958166227
316,1.6935578595845245176636409267021
317,1.6941941103725664174010922377455
318,1.6948283575733973647015854474183
319,1.6954606137763529702075766568055
320,1.6960908914525422181694433917618
321,1.6967192029563249983324060646757
322,1.6973455605267645964437823134120
323,1.6979699762890586574198604922469
324,1.6985924622559475983141640903442
325,1.6992130303291022330682990800464
326,1.6998316923004888462736626907717
327,1.7004484598537145367003262787796
328,1.7010633445653500197890345865271
329,1.7016763579062348639661634648626
330,1.7022875112427615924487336258794
331,1.7028968158381400891172915938251
332,1.7035042828536433696815362223199
333,1.7041099233498350966779307640136
334,1.7047137482877770223061140089063
335,1.7053157685302206740201360955785
336,1.7059159948427793409097017959147
337,1.7065144378950832331008269231365
338,1.7071111082619188730116760243462
339,1.7077060164243487829534777597404
340,1.7082991727708175604013912642579
341,1.7088905875982400544956676181618
342,1.7094802711130741409066835899231
343,1.7100682334323777328363974266192
344,1.7106544845848500218472921413762
345,1.7112390345118587678364821865551
346,1.7118218930684511129338021124192
347,1.7124030700243514846665248408963
348,1.7129825750649434000982710684549
349,1.7135604177922387158508562193632
350,1.7141366077258318663339360891341
351,1.7147111543038411777701171893972
352,1.7152840668838369403654544714103
353,1.7158553547437555229879760722079
354,1.7164250270828009448156590624316
355,1.7169930930223342692226497812310
356,1.7175595616067490296779222562913
357,1.7181244418043359266865476920086
358,1.7186877425081360397665507835283
359,1.7192494725367782995929864207914
360,1.7198096406353101582206650797486
361,1.7203682554760132022473703664692
362,1.7209253256592101905113557860057
363,1.7214808597140581119297257553292
364,1.7220348660993322874654282904856
365,1.7225873532041997525849069417274
366,1.7231383293489807978704631656954
367,1.7236878027859015597927619058951
368,1.7242357816998344503684612299539
369,1.7247822742090310582439008108285
370,1.7253272883658432343764464752344
371,1.7258708321574352156193032396130
372,1.7264129135064857426859918908218
373,1.7269535402718801392070634062141
374,1.7274927202493966603560326081272
375,1.7280304611723778026115976874629
376,1.7285667707123980308701458303586
377,1.7291016564799197121164613537846
378,1.7296351260249404230623152631120
379,1.7301671868376334715529307695475
380,1.7306978463489783885039563705593
381,1.7312271119313842658035010325280
382,1.7317549908993030583470062314199
383,1.7322814905098375248652030801324
384,1.7328066179633387712441869108157
385,1.7333303804039970175906607014659
386,1.7338527849204262476927038343029
387,1.7343738385462384902098481271029
388,1.7348935482606116683885709570158
389,1.7354119209888516929838293207399
390,1.7359289636029459874900152987263
391,1.7364446829221087626159930951934
392,1.7369590857133216483765359310671
393,1.7374721786918671572813850466107
394,1.7379839685218535597122394673487
395,1.7384944618167340283547794711901
396,1.7390036651398197025469416686997
397,1.7395115850047863024448967309858
398,1.7400182278761743011345152908085
399,1.7405236001698812204732436096550
400,1.7410277082536503506129958046835
401,1.7415305584475519421173123534490
402,1.7420321570244576158824181622033
403,1.7425325102105108115954092586182
404,1.7430316241855911678124483407830
405,1.7435295050837702990959509428697
406,1.7440261589937650792383909717764
407,1.7445215919593855472863451590633
408,1.7450158099799749395525255586002
409,1.7455088190108447086863526221072
410,1.7460006249637070442750650904532
411,1.7464912337070991549872365030824
412,1.7469806510668028948418265599616
413,1.7474688828262608126564411575775
414,1.7479559347269850485143665900988
415,1.7484418124689633612075074374976
416,1.7489265217110587162819055779236
417,1.7494100680714052831679820126516
418,1.7498924571277980046261984080734
419,1.7503736944180800170145833426746
420,1.7508537854405229032952354692117
421,1.7513327356542037309584359838334
422,1.7518105504793781564623846399286
423,1.7522872352978474323233470490184
424,1.7527627954533229305771023814175
425,1.7532372362517845619661772857103
426,1.7537105629618366976883814378993
427,1.7541827808150590783318362509569
428,1.7546538950063527236788779976799
429,1.7551239106942847557614527349691
430,1.7555928330014249972683530667760
431,1.7560606670146818489533841822620
432,1.7565274177856345955525090532802
433,1.7569930903308574781018022781249
434,1.7574576896322466305870696615296
435,1.7579212206373377045929368738510
436,1.7583836882596220829360577354846
437,1.7588450973788598436446680084361
438,1.7593054528413884563426890924105
439,1.7597647594604278923351610548119
440,1.7602230220163832196015462771446
441,1.7606802452571418425423461577781
442,1.7611364338983689501178297636814
443,1.7615915926238008200662640663651
444,1.7620457260855305985647768213707
445,1.7624988389042958859833843227167
446,1.7629509356697591530728417888495
447,1.7634020209407881567464707930552
448,1.7638520992457295736485229482213
449,1.7643011750826836920047512229230
450,1.7647492529197723141870516797743
451,1.7651963371954073730770941782923
452,1.7656424323185531035679376463627
453,1.7660875426689875122651453431614
454,1.7665316725975595343272288375056
455,1.7669748264264455013069231718229
456,1.7674170084494002169830277425529
457,1.7678582229320073368788451058176
458,1.7682984741119254473541269048787
459,1.7687377661991323581839904109092
460,1.7691761033761672509579552455029
461,1.7696134897983685330130279733562
462,1.7700499295941106099401385458244
463,1.7704854268650381804247917398256
464,1.7709199856862962143165419844357
465,1.7713536101067595826517979252867
466,1.7717863041492594703162618996496
467,1.7722180718108058518518887145083
468,1.7726489170628110460385010669595
469,1.7730788438513068259356643834414
470,1.7735078560971626089143355524017
471,1.7739359576962989937743405047278
472,1.7743631525199009425482237855810
473,1.7747894444146259578816354323267
474,1.7752148372028147599740541224557
475,1.7756393346826933858229119504923
476,1.7760629406285792245634286937498
477,1.7764856587910813218913431776589
478,1.7769074928972996295430303069457
479,1.7773284466510220892054287550003
480,1.7777485237329199454244067380638
481,1.7781677278007398383734759334129
482,1.7785860624894962452568883696584
483,1.7790035314116596503308539332893
484,1.7794201381573432632823985885640
485,1.7798358862944897628301154127654
486,1.7802507793690526503226540721881
487,1.7806648209051790621040479440527
488,1.7810780144053886371156842710600
489,1.7814903633507516678190099988776
490,1.7819018712010643974671916899175
491,1.7823125413950235979082488783895
492,1.7827223773503990160064431349910
493,1.7831313824642036635882598850358
494,1.7835395601128630448471380096507
495,1.7839469136523815135973521780078
496,1.7843534464185090046901891570774
497,1.7847591617269038250020100112334
498,1.7851640628732954491370628609122
499,1.7855681531336448170509831675470
500,1.785971435764304263951980131472
501,1.786373914002172828371978315814
502,1.786775591064854393440078611659
503,1.787176470150810129333466723643
504,1.787576554439513080587976193144
505,1.787975847091597745575485908852
506,1.788374351249010378075811465421
507,1.788772070035157858803854675833
508,1.789169006555054776685257429910
509,1.789565163895466950598975102118
510,1.789960545125057444648867414279
511,1.790355153294528307867214754333
512,1.790748991436761938367650123308
513,1.791142062566960687507301766711
514,1.791534369682785380344992166351
515,1.791925915764493126517127909476
516,1.792316703775072631745819199107
517,1.792706736660378084593914575684
518,1.793096017349263403733792855614
519,1.793484548753713627551258502244
520,1.793872333768976302970370327106
521,1.794259375273689668609242098316
522,1.794645676130011908350434048101
523,1.795031239183747912367819520049
