Eigenstate,Potential Energy
1,0.500000000024438832092076973644866760
2,0.64623093781063849993568111926811975
3,0.73633761017356363926351725862704876
4,0.79966527879025277012955062784945363
5,0.8480465769763388622823192234339787
6,0.8870659994863869396402243674555211
7,0.9197208277585196933214245357732343
8,0.9477838481696616941011502372470559
9,0.9723835597260831540945335315295682
10,0.9942802165763524547290475617705723
11,1.0140093888615074846974060825140690
12,1.0319621718861782125500367762638901
13,1.0484326957161735531895914416002838
14,1.0636476580346400576323115263481985
15,1.0777854399562450851247052894058516
16,1.090988910897620859240288393982041
17,1.103374262038868246163099043894018
18,1.115037257329755931354852508544749
19,1.126057756593697907286978381041100
20,1.136503053161689869800789765320764
21,1.146430379954006392413628922798279
22,1.155888820638941075463045101479675
23,1.164920787569331225693103100751630
24,1.173563179182980042511544527781931
25,1.181848296798583036697693931949073
26,1.189804578423315806877927529849722
27,1.197457191715409899136610691442534
28,1.204828517343192666828146427851692
29,1.211938546187039226706173187991541
30,1.218805208181197038570398757052517
31,1.225444646446505135821935797726251
32,1.231871447287130449788978290394479
33,1.238098834314795866704068904628191
34,1.244138833213428390178420844961295
35,1.250002412317960716421045570157378
36,1.255699603147540650989198110398347
37,1.261239604229318247416183460851929
38,1.266630870918561804986057251148037
39,1.271881193423005213460911289698956
40,1.276997764843508349066205200039753
41,1.281987240726361952355972474785590
42,1.286855791367575817105446769673299
43,1.291609147903002774488360684845728
44,1.296252643050056941313983994479880
45,1.300791247229215132120569195344100
46,1.305229600680354052344251821486225
47,1.309572042095499277464511330366004
48,1.313822634211975658790705819487376
49,1.317985186745286252667467791354199
50,1.32206327698692415623178463290970
51,1.32606026834685467038912233404824
52,1.32997932708205999638247201634357
53,1.33382343742008855378722143712001
54,1.33759541525898987631288781375358
55,1.34129792060154054928452337982034
56,1.34493346886159208255455441313519
57,1.34850444116317264747944046779192
58,1.35201309373817742030690756567354
59,1.35546156651572832704627574289154
60,1.35885189098525947719387168127124
61,1.36218599740582034618236673403690
62,1.36546572142578776131069916266713
63,1.36869281016993585689173942330835
64,1.37186892784450068443373136765229
65,1.37499566090534132369954243408407
66,1.37807452282945200143434957723070
67,1.38110695852581743322721769485900
68,1.38409434841784744316398187821325
69,1.38703801222631424520252346690523
70,1.38993921247878750193788769094660
71,1.39279915776896357269390599142060
72,1.39561900578698712049842990009405
73,1.39839986613981024109605792226483
74,1.40114280297881542859966866399941
75,1.40384883745029759127923175026507
76,1.40651894998295077423127620477093
77,1.40915408242520284725441126405703
78,1.41175514004407561807619846215481
79,1.41432299339620101108452345661826
80,1.41685848008068582607222338906123
81,1.41936240638266825002718883811999
82,1.42183554881564784444668201276441
83,1.42427865556998199686498367211501
84,1.42669244787431753356738635401601
85,1.42907762127616691428988528944294
86,1.43143484684732256431460477568285
87,1.43376477231934542857117473356278
88,1.43606802315394045461853958169428
89,1.43834520355264820922021242848002
90,1.44059689740993861649671786861368
91,1.44282366921347135358827304952382
92,1.44502606489499914222161924087902
93,1.44720461263512791951930217185140
94,1.44935982362490494265158977403592
95,1.45149219278698472790220750181446
96,1.45360219945892090260261871710491
97,1.45569030804094770628003835515833
98,1.45775696861044200306955863729878
99,1.45980261750510319525173932119186
100,1.46182767787674208736087110484648
101,1.46383256021744044615468057839336
102,1.46581766285971742701515238950993
103,1.46778337245223112373723434192756
104,1.46973006441243623395186585011780
105,1.47165810335752575867274132830308
106,1.47356784351489389021262096194990
107,1.47545962911327916075952678290408
108,1.47733379475566768434877756384558
109,1.47919066577496773143269499620329
110,1.48103055857340445512469609262311
111,1.48285378094651772699600569908440
112,1.48466063239259660666973753354589
113,1.48645140440832843366300683234193
114,1.48822638077139177217141293997551
115,1.48998583781068199098764920392921
116,1.49173004466480992909778721101340
117,1.49345926352948238449198268262057
118,1.49517374989433213262085474969059
119,1.49687375276973146721240459451708
120,1.49855951490409741392942797623026
121,1.50023127299215850010311850055834
122,1.50188925787463405064577716538816
123,1.50353369472974478731354255446041
124,1.50516480325695582868140244919832
125,1.50678279785332362192965703260589
126,1.50838788778280314024341300121364
127,1.50998027733885110174030773429971
128,1.51156016600063837865180028740040
129,1.51312774858317269224520527214336
130,1.51468321538161430710643144947842
131,1.51622675231005203428530114517753
132,1.51775854103499187560451680984479
133,1.51927875910379885984936999939997
134,1.52078758006832134559650334050649
135,1.52228517360390895709747616565407
136,1.52377170562403163210252634468163
137,1.52524733839069395256644424978884
138,1.52671223062082531718767708748398
139,1.52816653758882440882639434948767
140,1.52961041122542096387879587168920
141,1.53104400021301329319507745312514
142,1.53246745007763193086142318909239
143,1.53388090327767113699698251341335
144,1.53528449928952280107997583122548
145,1.53667837469024310455778213425385
146,1.53806266323737443274513726210417
147,1.53943749594603682304844479440164
148,1.54080300116340427852086371725957
149,1.54215930464066774767864117569450
150,1.54350652960258841143192576591322
151,1.54484479681473719135945691694643
152,1.54617422464851077847201337396395
153,1.54749492914401313213273675849723
154,1.54880702407088634835043853356913
155,1.55011062098716913341234535142909
156,1.55140582929626074919256187265916
157,1.55269275630206147671252098316381
158,1.55397150726236141602722740810063
159,1.5552421854405412952431383377932
160,1.5565048921556516261777429313646
161,1.5577597268309287027521870787129
162,1.5590067870408069031887617356559
163,1.5602461685564821492828587281599
164,1.5614779653900811593148199004481
165,1.5627022698374850947896802969253
166,1.5639191725198581165639023883411
167,1.5651287624239280826489161001357
168,1.5663311269410620765753311811917
169,1.5675263519051818283787906022025
170,1.5687145216295587712934807360550
171,1.5698957189425289285844550518662
172,1.5710700252221654971470076077052
173,1.5722375204299445301741561676616
174,1.5733982831434395623765236776795
175,1.5745523905880791626579850083760
176,1.5756999186679971205700418683046
177,1.5768409419960085270527717957149
178,1.5779755339227409038286961298227
179,1.5791037665649468263656422526204
180,1.5802257108330289867776668508201
181,1.5813414364578003452203742599659
182,1.5824510120165070651361117756182
183,1.5835545049581372815930823791498
184,1.5846519816280399442244376132647
185,1.5857435072918755428606412228217
186,1.5868291461589196844442758681162
187,1.5879089614047433216945383922058
188,1.5889830151932850698054294026985
189,1.5900513686983393422349060390695
190,1.5911140821244759566290790665629
191,1.5921712147274104333992696123803
192,1.5932228248338413691203527908386
193,1.5942689698607731885630187297201
194,1.5953097063343376161067314655241
195,1.5963450899081317988557078233852
196,1.5973751753810867733208408100924
197,1.5984000167148806509510418975248
198,1.5994196670509106844554068698989
199,1.6004341787268370487320085961166
200,1.6014436032927122765644102911673
201,1.6024479915267073254650523196764
202,1.6034473934504476517771310243179
203,1.6044418583439699467170788392611
204,1.6054314347603111492195715060058
205,1.6064161705397397008972276943882
206,1.6073961128236420618123064130745
207,1.6083713080680703576859863236416
208,1.6093418020569653799502365783740
209,1.6103076399150606814700999935867
210,1.6112688661204792635356537445351
211,1.6122255245170302130803755710991
212,1.6131776583262155172481952002979
213,1.6141253101589514331975351850767
214,1.6150685220270193888260733551439
215,1.6160073353542456206412243184762
216,1.6169417909874235032270676918855
217,1.6178719292069825293434473238401
218,1.6187977897374129131004099550870
219,1.6197194117574490891371171445670
220,1.6206368339100246159260780181485
221,1.6215500943119963854855599003637
222,1.6224592305636553368585354722873
223,1.6233642797580172341820542434193
224,1.6242652784899085686380296175966
225,1.6251622628648501408204724979163
226,1.6260552685077418614525062018791
227,1.6269443305713574132920218144031
228,1.6278294837446505844177640968034
229,1.6287107622608804250313454568137
230,1.6295881999055599140039657659198
231,1.6304618300242299244225244625629
232,1.6313316855300688970400511289676
233,1.6321977989113332071189164489188
234,1.6330602022386443707165879868723
235,1.6339189271721162614976903131884
236,1.6347740049683320368241601190370
237,1.6356254664871743932338264403801
238,1.6364733421985108823013650942829
239,1.6373176621887397224441847020415
240,1.6381584561671982600722966203667
241,1.6389957534724383614122241777774
242,1.6398295830783715909363243128955
243,1.6406599736002882071513729782354
244,1.6414869533007516639627734822676
245,1.6423105500953729907052591950581
246,1.6431307915584675693875060680961
247,1.6439477049285956909154834470062
248,1.6447613171139944708282640047355
249,1.6455716546978960930408642100124
250,1.6463787439437427656938389816170
251,1.6471826108002962885157363061410
252,1.6479832809066450295920465453312
253,1.6487807795971133831379691785559
254,1.6495751319060733645258551982904
255,1.6503663625726622219905479670688
256,1.6511544960454061497734604744862
257,1.6519395564867564934434027257029
258,1.6527215677775348914468262190419
259,1.6535005535212941557317493127298
260,1.6542765370485952771435951281924
261,1.6550495414212008686437830433155
262,1.6558195894361897710770091675169
263,1.6565867036299916713675028925047
264,1.6573509062823471832961379829450
265,1.6581122194201919153842316774307
266,1.6588706648214666929149583304812
267,1.6596262640188571466227251538193
268,1.6603790383034627010480935943187
269,1.6611290087283992317552342192598
270,1.6618761961123311148349383165258
271,1.6626206210429419519274049195209
272,1.6633623038803379496070957155587
273,1.6641012647603913955218902031731
274,1.6648375235980214395820126380042
275,1.6655711000904160550556856378057
276,1.6663020137201934572016750163108
277,1.6670302837585104627298981726211
278,1.6677559292681095440152919366389
279,1.6684789691063160805106904824049
280,1.6691994219279779002059046147714
281,1.6699173061883549999372317994409
282,1.6706326401459569407969208523016
283,1.6713454418653311310701885906266
284,1.6720557292197991532158402455081
285,1.6727635198941479421329032330080
286,1.6734688313872718394389307510996
287,1.6741716810147705830328231186236
288,1.6748720859114996336990790835510
289,1.6755700630340774867987886015368
290,1.6762656291633507015557967041599
291,1.6769588009068144888595442373660
292,1.6776495947009917424720417815767
293,1.6783380268137744193946668347496
294,1.6790241133467223062908431123521
295,1.6797078702373212590899094404322
296,1.6803893132612085013135757831130
297,1.6810684580343549128309780284960
298,1.6817453200152136257742492637748
299,1.6824199145068317304511109330121
300,1.6830922566589268418387988754604
301,1.6837623614699289380751863109890
302,1.6844302437889895638584668974305
303,1.6850959183179555718624371790046
304,1.6857593996133109796752005622191
305,1.6864207020880883707658767763261
306,1.6870798400137491026774907761236
307,1.6877368275220295043977414870899
308,1.6883916786067605413341916634659
309,1.6890444071256570371579475355215
310,1.6896950268020767876600555634512
311,1.6903435512267531615220005631031
312,1.6909899938594987011309476925745
313,1.6916343680308811161868139575291
314,1.6922766869438734743729995196089
315,1.6929169636754779087323303981386
316,1.6935552111783242173882987701376
317,1.6941914422822408942150644950511
318,1.6948256696958039416994759393273
319,1.6954579060078606075555780426688
320,1.6960881636890280463481522851261
321,1.6967164550931708250581362243850
322,1.6973427924588533870189741116097
323,1.6979671879107709882619602467928
324,1.6985896534611580834082773898587
325,1.6992102010111759230870973850214
326,1.6998288423522776001050661610095
327,1.7004455891675533651206860008371
328,1.7010604530330534010169321922380
329,1.7016734454190930308290803424979
330,1.7022845776915367908919154540992
331,1.7028938611130628077812237699968
332,1.7035013068444085402718259939036
333,1.7041069259455982648481901145530
334,1.7047107293771504887715680436457
335,1.7053127280012696056164424917705
336,1.7059129325830178513087561020404
337,1.7065113537914704328920899514345
338,1.7071080022008548888542772837953
339,1.7077028882916707455015502249316
340,1.7082960224517955607014232113503
341,1.7088874149775730685518112885401
342,1.7094770760748859221063603465876
343,1.7100650158602126719255372393020
344,1.7106512443616689741408255552474
345,1.7112357715200348473465626511890
346,1.7118186071897654530948590194366
347,1.7123997611399889653321493506626
348,1.7129792430554883404822353870805
349,1.7135570625376705330805128985341
350,1.7141332291055206992805016019700
351,1.7147077521965434758170818345345
352,1.7152806411676910167723032268311
353,1.7158519052962770725028293310367
354,1.7164215537808785251863621212308
355,1.7169895957422247462524849166982
356,1.7175560402240729854675630578980
357,1.7181208961940730307005603861811
358,1.7186841725446203823583280296975
359,1.7192458780936936876179009097230
360,1.7198060215856853723634374745714
361,1.7203646116922172156852106343525
362,1.7209216570129473485304685669236
363,1.7214771660763632721080804341997
364,1.7220311473405659200309774748570
365,1.7225836091940430005535521023025
366,1.7231345599564304965636956720776
367,1.7236840078792652153308047056221
368,1.7242319611467251767296779806856
369,1.7247784278763624724769579668200
370,1.7253234161198243095470948167360
371,1.7258669338635650910685347253497
372,1.7264089890295484911719906371261
373,1.7269495894759394904981204593763
374,1.7274887429977906808370802134367
375,1.7280264573277135304618931989243
376,1.7285627401365460663642796899094
377,1.7290975990340087625962633342915
378,1.7296310415693518021218601185208
379,1.7301630752319955519733462116576
380,1.7306937074521610084699596157807
381,1.7312229456014930879276145398929
382,1.7317507969936738810225723243191
383,1.7322772688850305454633930617631
384,1.7328023684751328006645491444757
385,1.7333261029073836456694867670019
386,1.7338484792696039589673378909174
387,1.7343695045946067295317713924126
388,1.7348891858607648558712171797357
389,1.7354075299925731877667248178373
390,1.7359245438612019997928334588561
391,1.7364402342850422135517941168490
392,1.7369546080302459769861268518765
393,1.7374676718112600742447440054309
394,1.7379794322913507471867834637588
395,1.7384898960831227853835720119271
396,1.7389990697490325354733664478975
397,1.7395069598018944597638520293338
398,1.7400135727053812522035974817613
399,1.7405189148745160774998998460046
400,1.7410229926761612333277665577573
401,1.7415258124294992845352004640725
402,1.7420273804065074145483848874601
403,1.7425277028324278147017986789817
404,1.7430267858862320045697907636979
405,1.7435246357010765487305364343690
406,1.7440212583647562789827378726970
407,1.7445166599201521387214535915160
408,1.7450108463656711526524207188339
409,1.7455038236556813829083677998891
410,1.7459955977009443860308779969889
411,1.7464861743690394308220695956347
412,1.7469755594847830596406879601575
413,1.7474637588306450721885764727457
414,1.7479507781471573556183992559348
415,1.7484366231333198449110683064764
416,1.7489212994470000431419629994709
417,1.7494048127053289501081171996090
418,1.7498871684850905625392432744014
419,1.7503683723231092243896294504198
420,1.7508484297166298091192814737220
421,1.7513273461236946861333189576265
422,1.7518051269635167529689600177654
423,1.7522817776168463693549911029882
424,1.7527573034263358068551592161930
425,1.7532317096968975934401596714204
426,1.7537050016960603598144568690405
427,1.7541771846543196721123347837463
428,1.7546482637654838646361623320495
429,1.7551182441870187850087978347189
430,1.7555871310403843138304646574841
431,1.7560549294113701624781568532129
432,1.7565216443504280985454676637419
433,1.7569872808729959368034327121134
434,1.7574518439598243936024158871491
435,1.7579153385572946283719603365845
436,1.7583777695777343731912814891566
437,1.7588391418997308117818666016205
438,1.7592994603684391899681618225465
439,1.7597587297958878388919212656930
440,1.7602169549612806821743817562114
441,1.7606741406112943868598352973888
442,1.7611302914603737217665140224828
443,1.7615854121910247709207108354672
444,1.7620395074541006214234787987882
445,1.7624925818690888563885410533591
446,1.7629446400243918772784689154400
447,1.7633956864776072247862151986856
448,1.7638457257558011164412460574677
449,1.7642947623557830414220682177692
450,1.7647428007443735649935598721680
451,1.7651898453586728456399737449908
452,1.7656359006063227062178748024684
453,1.7660809708657680021771099013438
454,1.7665250604865136757736220375798
455,1.7669681737893811201226255585139
456,1.7674103150667591500646117811747
457,1.7678514885828542755271819458383
458,1.7682916985739366732520690444757
459,1.7687309492485843707866196795820
460,1.7691692447879252850562980140194
461,1.7696065893458749652156222816519
462,1.7700429870493732528011612339393
463,1.7704784419986184629300818969588
464,1.7709129582672972474222400247439
465,1.7713465399028141085531304073816
466,1.7717791909265176941064634451563
467,1.7722109153339231542137137336754
468,1.7726417170949355755925867182940
469,1.7730716001540669698517963732587
470,1.7735005684306543403736298899312
471,1.7739286258190730948505596079507
472,1.7743557761889501010581900385792
473,1.7747820233853717367357272716157
474,1.7752073712290944375367373656084
475,1.7756318235167466657740425522014
476,1.7760553840210348137320111637807
477,1.7764780564909433745100908059431
478,1.7768998446519340563538110214667
479,1.7773207522061427298232444275243
480,1.7777407828325746023463161182241
481,1.7781599401872961709969823906505
482,1.7785782279036275222501500888201
483,1.7789956495923303586738954803446
484,1.7794122088417945722774166774624
485,1.7798279092182248413533114988867
486,1.7802427542658218355686057919053
487,1.7806567475069648780483986389110
488,1.7810698924423906608981114207379
489,1.7814821925513712422236354971584
490,1.7818936512918891876519137356448
491,1.7823042721008119905103820309006
492,1.7827140583940643587252579889697
493,1.7831230135667983433178720864844
494,1.7835311409935624024087174472199
495,1.7839384440284675930906057659997
496,1.7843449260053541354570294861159
497,1.7847505902379540341679638321105
498,1.7851554400200537026667960223937
499,1.7855594786256540872258703069634
500,1.785962709309130421147982763529
501,1.786365135305387354987055554851
502,1.786766759830016917789052613308
503,1.787167586079450777298328807556
504,1.787567617231114642779741557981
505,1.787966856443577657732962229036
506,1.788365306856702512393218174660
507,1.788762971591794123847258745238
508,1.789159853751746523523743611500
509,1.789555956421186182744080863153
510,1.789951282666617829359895252578
511,1.790345835536565986345912355042
512,1.790739618061716132329903076376
513,1.791132633255054099583530530576
514,1.791524884112004385724896256851
515,1.791916373610567753216002963512
516,1.792307104711456326832358864407
517,1.792697080358227263681844517376
518,1.793086303477416780998336295441
519,1.793474776978671323494264627929
520,1.793862503754878727115733823013
521,1.794249486682296174269671356617
522,1.794635728620679216565239797013
523,1.795021232413408302068119241562
