Eigenstate,Potential Energy
1,0.500000000022207443590160136101692028
2,0.64623093779607316412032184546478397
3,0.73633761013077916550665771931060593
4,0.79966527870113766770466425312929280
5,0.8480465768219734255843477638943659
6,0.8870659992475204454606533626420451
7,0.9197208274157462742405389429146512
8,0.9477838477034937297698192557189652
9,0.9723835591169854394123704797812797
10,0.9942802158047595796292171743973790
11,1.0140093879078333107452610228797344
12,1.0319621707308213222197525748465394
13,1.0484326943395205066728282168529216
14,1.0636476564170673878989318767668207
15,1.0777854380781205318151385348625915
16,1.090988908739304124448962777469192
17,1.103374259580711439236762947168756
18,1.115037254552103805154329035557504
19,1.126057753476887950814334842904881
20,1.136503049686052299518222426080570
21,1.146430376099864070577538521971729
22,1.155888816386609374867226941712877
23,1.164920782899117854377334935661979
24,1.173563174075184838089108871641426
25,1.181848291233497737292758692000839
26,1.189804572381223803813380011081637
27,1.197457185176585975205275258950320
28,1.204828510287902723041814758258796
29,1.211938538595539999733713909160872
30,1.218805200033735810572382437010411
31,1.225444637723319438013125938982845
32,1.231871437968447760776148906699526
33,1.238098824380833306430069962988381
34,1.244138822644392410136640720451726
35,1.250002401094046786674802281145205
36,1.255699591248932944429007335036562
37,1.261239591636189321607577867923558
38,1.266630857611072281896754501503986
39,1.271881179381303457304912566373550
40,1.276997750047730142461085604535441
41,1.281987225156630170956069970802117
42,1.286855775004000102846250569646051
43,1.291609130725679207554885794032709
44,1.296252625039067710927332365157071
45,1.300791228364628206221442694384265
46,1.305229580942222846239316146952252
47,1.309572021463862321490726380725236
48,1.313822612666856265043663307845189
49,1.317985164266692180832106342521571
50,1.32206325355484727854734865836122
51,1.32606024394127063577468138225939
52,1.32997930168292789374458261999670
53,1.33382341100735057452724129299985
54,1.33759538781257097604795116501182
55,1.34129789210134810879315810403079
56,1.34493343928751556795529812147658
57,1.34850441049508326964853063832393
58,1.35201306195592779353912649601880
59,1.35546153359915212696129303307941
60,1.35885185691417109788889576384696
61,1.36218596216001455663057105214588
62,1.36546568498503936100369651324387
63,1.36869277251399933072333071545720
64,1.37186888895310985682121958126563
65,1.37499562075820901193806639911712
66,1.37807448140626966827895380564831
67,1.38110691580625483869670593257777
68,1.38409430438155229556000837064033
69,1.38703796685291185133682847466273
70,1.38993916574788041656011501628851
71,1.39279910966013124711197443942240
72,1.39561895627978555038305943402838
73,1.39839981521377161346066855450546
74,1.40114275061344776794653438633187
75,1.40384878362508440490247820116110
76,1.40651889467735069666702476744586
77,1.40915402561864928386811352199236
78,1.41175508171597638777696392511086
79,1.41432293352593798815602200666563
80,1.41685841864761458110953734725733
81,1.41936234336611768996879551415940
82,1.42183548419491985169056801163822
83,1.42427858932435106745771433319789
84,1.42669237998303041445480937871848
85,1.42907755171844223961797127564595
86,1.43143477560235049076881226957366
87,1.43376469936628726974255890038694
88,1.43606794847192831438471378509867
89,1.43834512712078461412914094376711
90,1.44059681920729614714119376679861
91,1.44282358921909227495882013778615
92,1.44502598308789503302544420400792
93,1.44720452899427930045282061344398
94,1.44935973812926090361392748721316
95,1.45149210541546255413698379267360
96,1.45360211019040569975523744107247
97,1.45569021685429202435756651560973
98,1.45775687548446545929022741696589
99,1.45980252241859209577096810202478
100,1.46182758080844904786064607833069
101,1.46383246114608401128300604256528
102,1.46581756176398168866222043959499
103,1.46778326931076533813486555521592
104,1.46972995920385443758265749561167
105,1.47165799606040638297531204458227
106,1.47356773410777937506921573388110
107,1.47545951757467556675218000978720
108,1.47733368106404430377013385517464
109,1.47919054990875669803750244458812
110,1.48103044051100035260789579547209
111,1.48285366066627719618326157482800
112,1.48466050987283795140615041012666
113,1.48645127962733122538567653937787
114,1.48822625370739645315142445508608
115,1.48998570844188947622696868544408
116,1.49172991296938120686645665583013
117,1.49345912948553811549093461150582
118,1.49517361347995224775555237119427
119,1.49687361396295476396244110588407
120,1.49855937368292115129912115200641
121,1.50023112933453799213804275298672
122,1.50188911175848225850008884508748
123,1.50353354613293190985286781704180
124,1.50516465215730889160594479352166
125,1.50678264422862606540210938709326
126,1.50838773161079440500614508598772
127,1.50998011859722621370622855718907
128,1.51156000466704753195316493626976
129,1.51312758463522083072457946806151
130,1.51468304879686070423390365653246
131,1.51622658306600987148592754866798
132,1.51775836910912781897990805595077
133,1.51927858447353263527722333508966
134,1.52078740271102531219176017261115
135,1.52228499349690767901870627021355
136,1.52377152274460144868705088536424
137,1.52524715271606254677753953989178
138,1.52671204212817128235719310900166
139,1.52816634625527681367592032869296
140,1.52961021702805891580248483920835
141,1.53104380312886549978706545091673
142,1.53246725008367625967070225184915
143,1.53388070035083417349246861807713
144,1.53528429340667940480840835926320
145,1.53667816582821596347698098957175
146,1.53806245137293361571500155535066
147,1.53943728105589933046200300546332
148,1.54080278322423359105754976465748
149,1.54215908362907337316185725845587
150,1.54350630549512542977282317197656
151,1.54484456958790579756876235034041
152,1.54617399427875582372160042880293
153,1.54749469560772366284851726349094
154,1.54880678734439514331805912093691
155,1.55011038104675223887697496127842
156,1.55140558611813701193401579011855
157,1.55269250986239207507677316271134
158,1.55397125753724938889529534068353
159,1.5552419324060310689181281156134
160,1.5565046357877285391707584250538
161,1.5577594671055185284476948361511
162,1.5590065239337753703697768913538
163,1.5602459020436344604962813699729
164,1.5614776954471615070570944101572
165,1.5627019964401761754927536994326
166,1.5639188956437806423613656743839
167,1.5651284820446402909020994301307
168,1.5663308430340592371389263967135
169,1.5675260644458957485854416151274
170,1.5687142305933572986366728050875
171,1.5698954243047154510788422978710
172,1.5710697269579784413452208268812
173,1.5722372185145568568189153047038
174,1.5733979775519582596668086261475
175,1.5745520812955447371077735280500
176,1.5756996056493830854380829952174
177,1.5768406252262208883215881043393
178,1.5779752133766176437109460836910
179,1.5791034422172573843157471443970
180,1.5802253826584737379864916194703
181,1.5813411044310100765705719914254
182,1.5824506761120424485955750021914
183,1.5835541651504883450237781541679
184,1.5846516378916255395837515681619
185,1.5857431596010428117721474684770
186,1.5868287944879435211147417640579
187,1.5879086057278258331537284516685
188,1.5889826554845550334451761638562
189,1.5900510049318516606236476151930
190,1.5911137142742111095779648804569
191,1.5921708427672739272557296320933
192,1.5932224487376631832648283930758
193,1.5942685896023072190843581497784
194,1.5953093218872611166316609336902
195,1.5963447012460448185074546041625
196,1.5973747824775115917818814948533
197,1.5983996195432612106048064977645
198,1.5994192655846120195814704989895
199,1.6004337729391447117291285704285
200,1.6014431931568317611756541340026
201,1.6024475770157634869789804835973
202,1.6034469745374841241787896275230
203,1.6044414350019485567624022615526
204,1.6054310069621113274066033622156
205,1.6064157382581578893072856470569
206,1.6073956760313911187940351513679
207,1.6083708667377789593550964299901
208,1.6093413561611774184774290195907
209,1.6103071894262346601294686506402
210,1.6112684110109876884857200491986
211,1.6122250647591589818495443874450
212,1.6131771938921633038963776575790
213,1.6141248410208290701252997740534
214,1.6150680481568492452025502727236
215,1.6160068567239609774216975541633
216,1.6169413075688679247310272467131
217,1.6178714409719092313635806850305
218,1.6187972966574841275127838068311
219,1.6197189138042354249825840785549
220,1.6206363310550044169326962020810
221,1.6215495865265550840015277712147
222,1.6224587178190848041649572872234
223,1.6233637620255151271545550370745
224,1.6242647557405776727259948763801
225,1.6251617350696977093124720048816
226,1.6260547356376789509961075633174
227,1.6269437925971982156360910110075
228,1.6278289406371117543449160776718
229,1.6287102139905804044480569261189
230,1.6295876464430182521555575428462
231,1.6304612713398665941999586568932
232,1.6313311215942036073451802435678
233,1.6321972296941847112545793069706
234,1.6330596277103297707677035620157
235,1.6339183473026503086690785533384
236,1.6347734197276264277006931637376
237,1.6356248758450370619281548033008
238,1.6364727461246452884541371241041
239,1.6373170606527441350414346360568
240,1.6381578491385650370443476489430
241,1.6389951409205532249782034555513
242,1.6398289649725128986580173607562
243,1.6406593499096262186598253236025
244,1.6414863239943478033208364152563
245,1.6423099151421791043688818706871
246,1.6431301509273251797282392459333
247,1.6439470585882352452664304052815
248,1.6447606650330345860152809053346
249,1.6455709968448427953605694775146
250,1.6463780802869887262996488725126
251,1.6471819413081200541727166620856
252,1.6479826055472102487611986110824
253,1.6487800983384680273500744555165
254,1.6495744447161489450047069478971
255,1.6503656694192730014851179896313
256,1.6511537968962483495580438961004
257,1.6519388513094074954446104265955
258,1.6527208565394524354557687227299
259,1.6534998361898155316595399048355
260,1.6542758135909365122778026147344
261,1.6550488118044559098631841025753
262,1.6558188536273296619815151764741
263,1.6565859615958637242799136071132
264,1.6573501579896741460918118213334
265,1.6581114648355711331045149959228
266,1.6588699039113692641197617717071
267,1.6596254967496270744372499305860
268,1.6603782646413160388581892021859
269,1.6611282286394232235058198517762
270,1.6618754095624833298850931974355
271,1.6626198279980494144155035157663
272,1.6633615043060962622790005185661
273,1.6641004586223638579747241279244
274,1.6648367108616381608755938595225
275,1.6655702807209730606433632402852
276,1.6663011876828517901316640920507
277,1.6670294510182952790680523644047
278,1.6677550897899092024395868070357
279,1.6684781228548812260273920352752
280,1.6691985688679205419367883195061
281,1.6699164462841475829268704317054
282,1.6706317733619314117885531337273
283,1.6713445681656779981982206987521
284,1.6720548485685665395626715723485
285,1.6727626322552406330969196586421
286,1.6734679367244503238605777840692
287,1.6741707792916500880246468718591
288,1.6748711770915491531254077364628
289,1.6755691470806188033503130263134
290,1.6762647060395574023635435722393
291,1.6769578705757109745923442909617
292,1.6776486571254522298611164562795
293,1.6783370819565219371284980043219
294,1.6790231611703276842225774848135
295,1.6797069107042021106995903034381
296,1.6803883463336281993666326941773
297,1.6810674836744215581735963972588
298,1.6817443381848790092063669230849
299,1.6824189251678902876166843664740
300,1.6830912597730146010724522232055
301,1.6837613569985224611440409822160
302,1.6844292316934048795372801861636
303,1.6850948985593471022795243490338
304,1.6857583721526704593659147345766
305,1.6864196668862437583702219589515
306,1.6870787970313634852173642479751
307,1.6877357767195999940689969985061
308,1.6883906199446171647481143093489
309,1.6890433405639616169657655420001
310,1.6896939523008218164940017265515
311,1.6903424687457606681852720316162
312,1.6909889033584191089688180107614
313,1.6916332694691920935698598348010
314,1.6922755802808787772233415074971
315,1.6929158488703062150228061176569
316,1.6935540881899279535437568243994
317,1.6941903110693950533446305405310
318,1.6948245302171048935875607779418
319,1.6954567582217249003389073737256
320,1.6960870075536911998053522010113
321,1.6967152905666861154377095689520
322,1.6973416194990906233308873096972
323,1.6979660064754152799569500155565
324,1.6985884635077085993688017048203
325,1.6992090024969446418526886965053
326,1.6998276352343880512542261137738
327,1.7004443734029393617307795999661
328,1.7010592285784577631226564836637
329,1.7016722122310662997992710403096
330,1.7022833357264359346439209742624
331,1.7028926103270499167509061635141
332,1.7035000471934495140567664273742
333,1.7041056573854614894407658128308
334,1.7047094518634055042973981741773
335,1.7053114414892857644937249323513
336,1.7059116370279629667421273811524
337,1.7065100491483094176145489546297
338,1.7071066884243483840294321693843
339,1.7077015653363737396980615688995
340,1.7082946902720559988498871398519
341,1.7088860735275304507940929736305
342,1.7094757253084698924462752342010
343,1.7100636557311415965886853403884
344,1.7106498748234485095508413210912
345,1.7112343925259564976236693951696
346,1.7118172186929051169819960051411
347,1.7123983630932054724528440288357
348,1.7129778354114219768335076965143
349,1.7135556452487415556629549950136
350,1.7141318021239278397669780034477
351,1.7147063154742624331602189921265
352,1.7152791946564729386499710471130
353,1.7158504489476470254999560236025
354,1.7164200875461339536102812775617
355,1.7169881195724339194778762769455
356,1.7175545540700734337062808021520
357,1.7181194000064699690899671804841
358,1.7186826662737851232615896167017
359,1.7192443616897620410277691194244
360,1.7198044949985560343001279549580
361,1.7203630748715501444783897604884
362,1.7209201099081621288734234485037
363,1.7214756086366374667716176443280
364,1.7220295795148334091232363888375
365,1.7225820309309923082104502015314
366,1.7231329712045031049540196619284
367,1.7236824085866538658585075500665
368,1.7242303512613721583146317518254
369,1.7247768073459578967944783615710
370,1.7253217848918043731047782201552
371,1.7258652918851103239984726248387
372,1.7264073362475819926142933168881
373,1.7269479258371251504512007564439
374,1.7274870684485313883478648106376
375,1.7280247718141493680289102851649
376,1.7285610436045524904244712538983
377,1.7290958914291947699652266262486
378,1.7296293228370580822557744280923
379,1.7301613453172926249197353205655
380,1.7306919662998473483726382164520
381,1.7312211931560932319501097055390
382,1.7317490331994365235524946230073
383,1.7322754936859266174590770371142
384,1.7328005818148535340038631330358
385,1.7333243047293386223587162650656
386,1.7338466695169191450671758243165
387,1.7343676832101224936554838534074
388,1.7348873527870339721087723095687
389,1.7354056851718588228865890258968
390,1.7359226872354756845725872969125
391,1.7364383657959817980858310004754
392,1.7369527276192335698182019512467
393,1.7374657794193799651705402979952
394,1.7379775278593873135707923280859
395,1.7384879795515583818325140486514
396,1.7389971410580453667066022846220
397,1.7395050188913564365197500899013
398,1.7400116195148558300186782136227
399,1.7405169493432560781965326404212
400,1.7410210147431066490435385546886
401,1.7415238220332750641259084304427
402,1.7420253774854212321942598466936
403,1.7425256873244678205453247297306
404,1.7430247577290645572110125773613
405,1.7435225948320439294040877296617
406,1.7440192047208743872389956303212
407,1.7445145934381081694319824804786
408,1.7450087669818212541583079711760
409,1.7455017313060482961274846155878
410,1.7459934923212150643387477777982
411,1.7464840558945626405182080739098
412,1.7469734278505669608110402695541
413,1.7474616139713547797718102530460
414,1.7479486199971124804820654664060
415,1.7484344516264920147415311408790
416,1.7489191145170104029494672046226
417,1.7494026142854456421467537508639
418,1.7498849565082261854386157131569
419,1.7503661467218182712932112445729
420,1.7508461904231060846219897841015
421,1.7513250930697687018087232991319
422,1.7518028600806531012736608183102
423,1.7522794968361410756959573274419
424,1.7527550086785136596030418132702
425,1.7532294009123094516690189264429
426,1.7537026788046804385462765637751
427,1.7541748475857428048417410897939
428,1.7546459124489227429085739183985
429,1.7551158785513011748224331172398
430,1.7555847510139502486300916130706
431,1.7560525349222691125056626678956
432,1.7565192353263161163101420097616
433,1.7569848572411327784315648118442
434,1.7574494056470706158231357265377
435,1.7579128854901086608940139938931
436,1.7583753016821695662218423316151
437,1.7588366591014324584363162429406
438,1.7592969625926415233162945294315
439,1.7597562169674110033834291808933
440,1.7602144270045276791836088785728
441,1.7606715974502479940860841243891
442,1.7611277330185933862244222611194
443,1.7615828383916434752504514558809
444,1.7620369182198217232492106124080
445,1.7624899771221829004487135252954
446,1.7629420196866933800495036646109
447,1.7633930504705114313172068408859
448,1.7638430740002607291143873380496
449,1.7642920947723049203500351825102
450,1.7647401172530153997615803459943
451,1.7651871458790397980970709319701
452,1.7656331850575640240180338575911
453,1.7660782391665736027678822868855
454,1.7665223125551107005260504509333
455,1.7669654095435304582923711000620
456,1.7674075344237519322710819214468
457,1.7678486914595083364333983440850
458,1.7682888848865929831240747205497
459,1.7687281189131034356081198909868
460,1.7691663977196835148691536603882
461,1.7696037254597610103542030274166
462,1.7700401062597843076836957869760
463,1.7704755442194565370664774176472
464,1.7709100434119654032935134752576
465,1.7713436078842126660138654865900
466,1.7717762416570404009570843933625
467,1.7722079487254533225852800111868
468,1.7726387330588421837824954775288
469,1.7730685986012007292445172057845
470,1.7734975492713437270758677269440
471,1.7739255889631203456661804021086
472,1.7743527215456271734230704007948
473,1.7747789508634162322287185599106
474,1.7752042807367054885779756676337
475,1.7756287149615807851169283250944
476,1.7760522573102017063506153439640
477,1.7764749115310017114786913848820
478,1.7768966813488872103105514030089
479,1.7773175704654344716045170072319
480,1.7777375825590847583737593409983
481,1.7781567212853362409937760995270
482,1.7785749902769362568574858759558
483,1.7789923931440692965343097611062
484,1.7794089334745435361451958691280
485,1.7798246148339773927872318384576
486,1.7802394407659806877569680205716
487,1.7806534147923372663100831512704
488,1.7810665404131836703983550540154
489,1.7814788211071870924367265805079
490,1.7818902603317204730983427413679
491,1.7823008615230368772884722358327
492,1.7827106280964417363525818059237
493,1.7831195634464629313911999355912
494,1.7835276709470198115845775998203
495,1.7839349539515893398834384074451
496,1.7843414157933726103442502223165
497,1.7847470597854574224858416791970
498,1.7851518892209808577735576616834
499,1.7855559073732893554028122616235
500,1.785959117496098417701732527230
501,1.786361522823647691009721897137
502,1.786763126570858877026297975961
503,1.787163931933487942567642306746
504,1.787563942088279471375015872593
505,1.787963160193116005243416251895
506,1.788361589387168104357259095006
507,1.788759232791042974655904795849
508,1.789156093506931301978876218348
509,1.789552174618750523669162594940
510,1.789947479192290590655465102205
511,1.790342010275355450871124350368
512,1.790735770897904153984834047703
513,1.791128764072190192959641251045
514,1.791520992792899758680706694211
515,1.791912460037289281728899779703
516,1.792303168765320471467107292351
517,1.792693121919793927009395729012
518,1.793082322426483105288064713800
519,1.793470773194265427995382243400
520,1.793858477115253384233919023675
521,1.794245437064922423935613030660
522,1.794631655902239918083215244013
523,1.795017136469791622722598052749
