Eigenstate,Potential Energy
1,0.500000000026293736663957066476300165
2,0.64623093782274634903290336833933619
3,0.73633761020912946313168244592622223
4,0.79966527886433230345165213167928697
5,0.8480465771046597364454641754277795
6,0.8870659996849520146532946480942379
7,0.9197208280434608737150940693655444
8,0.9477838485571789359838399833965712
9,0.9723835602324160775315518696557267
10,0.9942802172177659119591278368395370
11,1.0140093896542836981075244390458418
12,1.0319621728466122604873137791612312
13,1.0484326968605706783365549435064045
14,1.0636476593793140242588556114669738
15,1.0777854415175171690965732474816608
16,1.090988912691819235483768677698355
17,1.103374264082327634660421832525589
18,1.115037259638817416507965925975100
19,1.126057759184708876699055845763513
20,1.136503056051004037291515914555214
21,1.146430383157983881724572732816565
22,1.155888824173948548532385162907346
23,1.164920791451742044231686285260502
24,1.173563183429174454856535188675014
25,1.181848301424948384133452524030775
26,1.189804583446246745151900542650593
27,1.197457197151308631985054830955573
28,1.204828523208469189106669226873971
29,1.211938552498111575287977170380424
30,1.218805214954491549593941328996931
31,1.225444653698456707182355371819132
32,1.231871455034182808003631948001450
33,1.238098842573401837462534127918038
34,1.244138842000050172025954760579471
35,1.250002421649070157132240056191225
36,1.255699613039619526273029689025900
37,1.261239614698858541660374956213135
38,1.266630881982065993801782445128592
39,1.271881205096986547831448131548203
40,1.276997777144491140937496495559765
41,1.281987253670881861534949204633742
42,1.286855804972180139354754633406672
43,1.291609162184250730724849371528206
44,1.296252658024519967833779448847690
45,1.300791262913477171786371333773343
46,1.305229617091011846681213300262409
47,1.309572059249162659620010768187721
48,1.313822652125267847320885890396160
49,1.317985205434844146119779701982031
50,1.32206329646939862849819924363432
51,1.32606028863891086680928096632677
52,1.32997934820037763057999598047302
53,1.33382345938136220522578242304398
54,1.33759543807992928856156182333434
55,1.34129794429887092898447012546850
56,1.34493349345205439908125099781801
57,1.34850446666352393329660053609861
58,1.35201312016519107200987902386133
59,1.35546159388619440709416196045426
60,1.35885191931598501633089692326016
61,1.36218602671362964655013438347421
62,1.36546575172752270025398354127310
63,1.36869284148245619146133282223277
64,1.37186896018468435659064838789996
65,1.37499569429008476622558467711464
66,1.37807455727567044455465725354364
67,1.38110699405044521195098667120348
68,1.38409438503783830535004409678695
69,1.38703804995864166035693012266701
70,1.38993925134044497075103019456778
71,1.39279919777696493732512627354225
72,1.39561904695836687561636436286948
73,1.39839990849162384568329967332512
74,1.40114284652813961853059684632162
75,1.40384888221423069268013711838449
76,1.40651899597861301763213376080696
77,1.40915412966973668254188321398322
78,1.41175518855464603025766177813885
79,1.41432304318999583687309874798769
80,1.41685853117491607130296395417692
81,1.41936245879456840791476176019083
82,1.42183560256247621469503166524057
83,1.42427871066902100563961139231595
84,1.42669250434287405434102998727472
85,1.42907767913157258957251023432979
86,1.43143490610693412827874973381078
87,1.43376483300054503058382141817775
88,1.43606808527413598369078244870445
89,1.43834526712927361938613638330301
90,1.44059696246045425313298590676873
91,1.44282373575536428068603132223025
92,1.44502613294578347062244332898212
93,1.44720468221234513612699700575044
94,1.44935989474612424063175679464216
95,1.45149226546980333788158842399204
96,1.45360227372096442488032220852434
97,1.45569038389987044406283843393728
98,1.45775704608392729674355315003293
99,1.45980269661086375770274398129126
100,1.46182775863252034035601810321373
101,1.46383264264100885779776103887878
102,1.46581774696887885028834943132867
103,1.46778345826481913614196706197731
104,1.46973015194631547826155462257727
105,1.47165819263059228481038904803061
106,1.47356793454507549826619157191666
107,1.47545972191853574514818442563781
108,1.47733388935399157915313501381604
109,1.47919076218438405690230716258461
110,1.48103065681197146537611718189057
111,1.48285388103232715891481892238353
112,1.48466073434377403003004107249052
113,1.48645150824303360247793043983814
114,1.48822648650781897728833236502089
115,1.48998594546706041394184301722569
116,1.49173015425940399723836320592015
117,1.49345937508059212739401025631273
118,1.49517386342029353979769959146024
119,1.49687386828891684714236272063944
120,1.49855963243491575441085539050764
121,1.50023139255305582995231969337105
122,1.50188937948409380275202259783411
123,1.50353381840628816306567528101538
124,1.50516492901914216378057304940113
125,1.50678292571975075360283766239175
126,1.50838801777210777587241181280318
127,1.50998040946970918892112041074218
128,1.51156030029176547669921168949096
129,1.51312788505332434515766955302285
130,1.51468335404958641800632821233547
131,1.51622689319468124134979437884202
132,1.51775868415515592950232129433281
133,1.51927890447841700269881317225272
134,1.52078772771635469146042549599728
135,1.52228532354436087403055538403583
136,1.52377185787594812576675798847289
137,1.52524749297316405143055470141188
138,1.52671238755298145932641816029339
139,1.52816669688984283033574555760814
140,1.52961057291452208892319048257503
141,1.53104416430946212570289444008697
142,1.53246761660073844788509410460880
143,1.53388107224679068375415685420229
144,1.53528467072405648769232849280120
145,1.53667854860963820450412219272153
146,1.53806283966112478304563987541981
147,1.53943767489368322619686383523967
148,1.54080318265453490618178445050339
149,1.54215948869491854616689861870042
150,1.54350671623964350899142617849756
151,1.54484498605432930725881498649024
152,1.54617441651042163393445689469591
153,1.54749512364807386311792369862477
154,1.54880722123697792020591081181776
155,1.55011082083522275741246790390168
156,1.55140603184625830098298626100258
157,1.55269296157403591667822923602944
158,1.55397171527639721160242459222066
159,1.5552423962167748451813711684883
160,1.5565051057142716868007209449404
161,1.5577599431921768161960032021518
162,1.5590070062249778276662075491044
163,1.5602463905839242913807683547472
164,1.5614781902811970083454940398978
165,1.5627024976127316592155770530891
166,1.5639194031997473625148699298236
167,1.5651289960290273745514597350672
168,1.5663313634919946199135230451871
169,1.5675265914226271146065066608585
170,1.5687147641342530249179683562559
171,1.5698959644552655564411451365161
172,1.5710702737637955398858506555235
173,1.5722377720213771159777519842280
174,1.5733985378056423629305930677335
175,1.5745526483420788513947630134826
176,1.5757001795348798332054562650576
177,1.5768412059969203244383013009909
178,1.5779758010788882371390457076429
179,1.5791040368975970046435056761395
180,1.5802259843635106468570027429556
181,1.5813417132075039240498148708958
182,1.5824512920068852745242209559442
183,1.5835547882107055853974519275401
184,1.5846522681643770380066638102944
185,1.5857437971336238360294897017591
186,1.5868294393277857849094497953637
187,1.5879092579224985230536587228031
188,1.5889833150817658410870536011541
189,1.5900516719794478202205315996448
190,1.5911143888201804407772557709491
191,1.5921715248597458833951909342829
192,1.5932231384249099050744276380683
193,1.5942692869327445938820993009486
194,1.5953100269094498430619245224796
195,1.5963454140086914768708064510607
196,1.5973755030294697200056590228046
197,1.5984003479335323859041178925132
198,1.5994200018623469458607360548382
199,1.6004345171536443127746323369592
200,1.6014439453575482796899677825176
201,1.6024483372523015895084852305410
202,1.6034477428596020119860441567917
203,1.6044422114595590826954056771232
204,1.6054317916052831188174449220834
205,1.6064165311371164770731309820450
206,1.6073964771965200724937630345212
207,1.6083716762396210286553662025164
208,1.6093421740504356807823571983804
209,1.6103080157537736745486003760000
210,1.6112692458278346561753242965230
211,1.6122259081165049127827979133985
212,1.6131780458413641901183571666480
213,1.6141257016134070655492783626010
214,1.6150689174444938520044349781107
215,1.6160077347585302390899801538748
216,1.6169421944023896258300696528719
217,1.6178723366565821040685515559946
218,1.6187982012456790649749932041966
219,1.6197198273484967015844845976138
220,1.6206372536080509154923251109598
221,1.6215505181412815299865976520714
222,1.6224596585485630069773680323689
223,1.6233647119229952285465992832767
224,1.6242657148594894024099483614626
225,1.6251627034636516478259247677290
226,1.6260557133604677998857849368952
227,1.6269447797027980750235035609135
228,1.6278299371796834079377120592420
229,1.6287112200244706120614418468000
230,1.6295886620227610498087795102683
231,1.6304622965201846018532640281031
232,1.6313321564300093443433772384955
233,1.6321982742405819195437444430314
234,1.6330606820226147459522307746499
235,1.6339194114363132389768388855698
236,1.6347744937383527409246017759099
237,1.6356259597887087804130631539041
238,1.6364738400573423921985716790533
239,1.6373181646307459329842601476932
240,1.6381589632183515466070790922442
241,1.6389962651588065599342783092752
242,1.6398300994261186654009389558451
243,1.6406604946356749209427842871466
244,1.6414874790501362555409386820885
245,1.6423110805852118534698713089898
246,1.6431313268153159357961224362459
247,1.6439482449791083208931690194947
248,1.6447618619849263445063068266326
249,1.6455722044161031078625707062239
250,1.6463792985361824379257221252609
251,1.6471831702940284592027413982818
252,1.6479838453288325749958326073711
253,1.6487813489750229296975705963509
254,1.6495757062670760083804707078911
255,1.6503669419442342531045271686523
256,1.6511550804551297807038575945278
257,1.6519401459623205927910064259169
258,1.6527221623467357220317310961700
259,1.6535011532120361175351112400840
260,1.6542771418888916550574022915386
261,1.6550501514391745850711014802320
262,1.6558202046600741434251449501450
263,1.6565873240881311744775416643833
264,1.6573515320031982168519637427054
265,1.6581128504323235763452245178491
266,1.6588713011535615530164637422971
267,1.6596269056997120349891125795810
268,1.6603796853619894919634497206069
269,1.6611296611936256376373564709012
270,1.6618768540134014844583584095991
271,1.6626212844091180739420534643707
272,1.6633629727409998613993581147615
273,1.6641019391450381974652808244239
274,1.6648382035362721147251939455039
275,1.6655717856120102942959970023823
276,1.6663027048549924899927342457246
277,1.6670309805364978933723628594323
278,1.6677566317193921935803196198525
279,1.6684796772611248344460553971385
280,1.6692001358166685616752457825757
281,1.6699180258414091489434121969714
282,1.6706333655939827991408196111089
283,1.6713461731390644331969473078692
284,1.6720564663501040230009448323450
285,1.6727642629120177756609402653627
286,1.6734695803238301938285395710480
287,1.6741724359012720713616631239835
288,1.6748728467793308260833455783624
289,1.6755708299147578176821813948837
290,1.6762664020885333832634444513040
291,1.6769595799082874314729241920011
292,1.6776503798106784800814702516135
293,1.6783388180637350427864375149996
294,1.6790249107691544021267148966071
295,1.6797086738645608556371431493803
296,1.6803901231257310207843515117877
297,1.6810692741687761303905194026839
298,1.6817461424522906352776096542791
299,1.6824207432794639169691430646481
300,1.6830930918001568610344116169228
301,1.6837632030129437024916271878126
302,1.6844310917671212361819319569074
303,1.6850967727646825652220753690615
304,1.6857602605622589650437387659631
305,1.6864215695730312915254191914122
306,1.6870807140686101964150418237926
307,1.6877377081808823319959810918770
308,1.6883925659038300234237183900166
309,1.6890453010953204979975449357794
310,1.6896959274788650065125032610916
311,1.6903444586453514315935181443516
312,1.6909909080547478961430978152320
313,1.6916352890377787646500806678133
314,1.6922776147975748416325573713968
315,1.6929178984112970868564738802228
316,1.6935561528317352229713691920493
317,1.6941923908888787741669341783051
318,1.6948266252914658870947878460787
319,1.6954588686285070756163735163371
320,1.6960891333707838906343459009334
321,1.6967174318723264339410552886457
322,1.6973437763718658305141801801421
323,1.6979681789942651732977296250426
324,1.6985906517519279176075700400082
325,1.6992112065461854871413146560818
326,1.6998298551686623288186086558318
327,1.7004466093026212372063406116480
328,1.7010614805242861377227847802113
329,1.7016744803041473034785113189374
330,1.7022856200082454374191437048408
331,1.7028949108994360583456994159114
332,1.7035023641386352520354148308075
333,1.7041079907860471660002626103412
334,1.7047118018023714318877675561856
335,1.7053138080499948304379442025082
336,1.7059140202941632570296215382282
337,1.7065124492041368600431688991252
338,1.7071091053543294108731294724907
339,1.7077039992254279700790306287959
340,1.7082971412054989409958332187571
341,1.7088885415910762243631511109273
342,1.7094782105882339711038858788031
343,1.7100661583136435710228304252665
344,1.7106523947956148711135425298043
345,1.7112369299751234427890421625527
346,1.7118197737068213728128340032267
347,1.7124009357600351432697358201042
348,1.7129804258197474122825043615246
349,1.7135582534875662403798874908910
350,1.7141344282826793048384124154137
351,1.7147089596427951895832396818352
352,1.7152818569250714329951305581208
353,1.7158531294070286179836227670508
354,1.7164227862874519187850909995846
355,1.7169908366872804697517414420694
356,1.7175572896504827659030190139072
357,1.7181221541449213342667682282844
358,1.7186854390632059200003064227002
359,1.7192471532235309324200499445298
360,1.7198073053705060888482049010564
361,1.7203659041759720011357396070970
362,1.7209229582398071864519645339895
363,1.7214784760907210979446976343156
364,1.7220324661870381992552941291608
365,1.7225849369174713192479508229984
366,1.7231358966018831646135073416410
367,1.7236853534920388823509254796030
368,1.7242333157723464608472106270174
369,1.7247797915605896020941237563216
370,1.7253247889086487782096692243798
371,1.7258683158032133255669513179880
372,1.7264103801664835330031171384734
373,1.7269509898568626908172529290572
374,1.7274901526696434090313571850372
375,1.7280278763376788964773653300941
376,1.7285641685320506569208455968146
377,1.7290990368627243914255960572695
378,1.7296324888791972743652485935532
379,1.7301645320711384428780720366371
380,1.7306951738690194565236708739878
381,1.7312244216447376025726732931318
382,1.7317522827122291650928392149418
383,1.7322787643280773324885937341620
384,1.7328038736921097071881594001623
385,1.7333276179479890387280158887421
386,1.7338500041837978388804427606534
387,1.7343710394326126281544968668264
388,1.7348907306730717504612132489951
389,1.7354090848299374306207243600944
390,1.7359261087746492638091953779645
391,1.7364418093258694538765056573669
392,1.7369561932500234089027571804360
393,1.7374692672618331674693690017771
394,1.7379810380248422367318292698773
395,1.7384915121519346991553708726917
396,1.7390006962058482387712545595922
397,1.7395085966996807168491492567204
398,1.7400152200973903051098627202456
399,1.7405205728142877422572942435741
400,1.7410246612175250137763532920572
401,1.7415274916265765039041874963116
402,1.7420290703137133649800014288060
403,1.7425294035044739249009224469534
404,1.7430284973781280257623146613724
405,1.7435263580681327591154502787685
406,1.7440229916625857068653591057179
407,1.7445184042046728045170396429292
408,1.7450126016931083299519444590909
409,1.7455055900825698787999370233731
410,1.7459973752841308408731385099037
411,1.7464879631656846376675730305616
412,1.7469773595523643035101781990147
413,1.7474655702269584893987924615486
414,1.7479526009303203133688522083911
415,1.7484384573617733413375280093497
416,1.7489231451795111280464024229817
417,1.7494066700009931665782357449789
418,1.7498890374033344096719975880358
419,1.7503702529236926413368005192926
420,1.7508503220596486806748867641138
421,1.7513292502695833700858376573546
422,1.7518070429730506294434073874010
423,1.7522837055511444123730545149121
424,1.7527592433468631783438660578071
425,1.7532336616654682599227403269398
426,1.7537069657748397320193070968638
427,1.7541791609058272677392145094725
428,1.7546502522525959945212376371853
429,1.7551202449729712629336562846987
430,1.7555891441887751902221068625065
431,1.7560569549861624822510363574306
432,1.7565236824159526833389665643539
433,1.7569893314939541918711136323811
434,1.7574539072012911396132507623252
435,1.7579174144847209583858225709995
436,1.7583798582569505350749733493223
437,1.7588412433969491163347516316416
438,1.7593015747502569450299043526056
439,1.7597608571292903097078806798568
440,1.7602190953136440782978580991473
441,1.7606762940503888758733943677398
442,1.7611324580543664701087509317931
443,1.7615875920084830121071549873914
444,1.7620417005639947519551129353576
445,1.7624947883407955596438803543895
446,1.7629468599276972756897458562496
447,1.7633979198827100606030945443370
448,1.7638479727333159613895685408933
449,1.7642970229767435355691078462966
450,1.7647450750802356851348565436575
451,1.7651921334813182035264778106665
452,1.7656382025880618769465895767797
453,1.7660832867793438830719550108508
454,1.7665273904051048760877418833278
455,1.7669705177866053818967259679373
456,1.7674126732166768004813718883978
457,1.7678538609599717111042419047168
458,1.7682940852532098762220244584956
459,1.7687333503054224580160487088815
460,1.7691716602981940898598911127762
461,1.7696090193859006524268967091688
462,1.7700454316959459674648719415408
463,1.7704809013289960129867776204029
464,1.7709154323592088207592421161963
465,1.7713490288344640248018243665314
466,1.7717816947765891915701134254019
467,1.7722134341815822123147566697066
468,1.7726442510198347732336119924448
469,1.7730741492363493800893535897955
470,1.7735031327509574618087831167512
471,1.7739312054585328201457356331307
472,1.7743583712292047229947506051636
473,1.7747846339085659922320068908469
474,1.7752099973178835900519784930606
475,1.7756344652543006265287499712302
476,1.7760580414910423021806928203065
477,1.7764807297776161185086570135054
478,1.7769025338400110324686781554539
479,1.7773234573808944442358234036073
480,1.7777435040798074128117367063544
481,1.7781626775933566503223691296616
482,1.7785809815554068637631124695476
483,1.7789984195772688241592388958157
484,1.7794149952478859828648552179194
485,1.7798307121340211118464224158618
486,1.7802455737804375527108486260155
487,1.7806595837100819232290900874082
488,1.7810727454242628778076512663570
489,1.7814850624028291499735307530476
490,1.7818965381043447398832613273599
491,1.7823071759662633810194952424924
492,1.7827169794051008741431739763353
493,1.7831259518166052633881729766229
494,1.7835340965759259484136297881723
495,1.7839414170377799249843800868155
496,1.7843479165366183982717678313402
497,1.7847535983867894542655963582170
498,1.7851584658827007344172286759920
499,1.7855625222989796107011335327584
500,1.785965770890632991427424078743
501,1.786368214893202503678998334486
502,1.786769857522922507381447958018
503,1.787170701976872408958870124109
504,1.787570751433131118234804791902
505,1.787970009050926495863279870801
506,1.788368477970785521192246477770
507,1.788766161314683028397663080959
508,1.789163062186188650656161978804
509,1.789559183670610203050385672331
510,1.789954528835139557243821690844
511,1.790349100728994238802451943909
512,1.790742902383558647154268649833
513,1.791135936812523513720608818224
514,1.791528207012024274478561408090
515,1.791919715960778731049572624835
516,1.792310466620222210500101518702
517,1.792700461934641298441565242370
518,1.793089704831307930666517202890
519,1.793478198220610625114710497612
520,1.793865944996185711024077070228
521,1.794252948035045350346437749413
522,1.794639210197706627481580792154
523,1.795024734328318144339414855275
