Eigenstate,Potential Energy
1,0.500000000036607214277203988531224357
2,0.64623093789006739982657842071973240
3,0.73633761040687981689094633639691845
4,0.79966527927622427885512860154647905
5,0.8480465778181421808646239187314902
6,0.8870660007890050287184012262017465
7,0.9197208296277832551575357802481926
8,0.9477838507118492960916719100804553
9,0.9723835630477352470771076530195784
10,0.9942802207841769433560621483614396
11,1.0140093940623283963663020949215920
12,1.0319621781869063287295195007578897
13,1.0484327032237889971831439216105920
14,1.0636476668561817633188789256031259
15,1.0777854501988044168948095246295692
16,1.090988922668337839545839233717758
17,1.103374275444929479329667370254934
18,1.115037272478393664998460102645246
19,1.126057773592189877430052748854069
20,1.136503072117359698893968671841378
21,1.146430400974224385831816765352226
22,1.155888843831125310739788774528474
23,1.164920813040948860591909357809436
24,1.173563207041548789315739496559156
25,1.181848327151672764620580685598224
26,1.189804611378550244585519473533043
27,1.197457227380468416506417457428844
28,1.204828555825812120185526090049951
29,1.211938587595015855505360173259554
30,1.218805252622388404234946629769121
31,1.225444694028832095510323704469687
32,1.231871498118579159399362247967651
33,1.238098888503419808613098943866817
34,1.244138890867350422118604011951288
35,1.250002473545375138608054354436950
36,1.255699668056715289164616000540443
37,1.261239672928596549908975808258420
38,1.266630943516364952244542590102710
39,1.271881270027834238786358217427657
40,1.276997845563946269504642184125155
41,1.281987325671075908887849524067114
42,1.286855880645319223422358128221290
43,1.291609241622617473768905981138096
44,1.296252741320475370512322652197824
45,1.300791350159462493365472374647972
46,1.305229708379550491116756911554877
47,1.309572154672862067281177832193216
48,1.313822751776821392169088802212710
49,1.317985309407033038192351238997321
50,1.32206340485509382157631758962142
51,1.32606040153107497117537093806675
52,1.32997946569206683079186283363546
53,1.33382358156572818285365342023543
54,1.33759556505022114985053622196796
55,1.34129807614843713741898471518198
56,1.34493363027434471284044005088402
57,1.34850460855209134760007333479736
58,1.35201326721369376636283316620661
59,1.35546174618839769744887652025360
60,1.35885207696576331218889876196566
61,1.36218618980496841303566604131505
62,1.36546592035452042519507155811604
63,1.36869301573932635751974199627412
64,1.37186914016575741848647218263655
65,1.37499588008981013310622927675353
66,1.37807474898861846756157906939815
67,1.38110719177130917704075080015450
68,1.38409458886143643142919509406187
69,1.38703825997991910279285990563346
70,1.38993946765447583032337063326470
71,1.39279942047895427468446991800966
72,1.39561927614365273131907093700563
73,1.39840014425567926587306774303457
74,1.40114308896657468633915454819208
75,1.40384913142279456542102559615740
76,1.40651925205319596986300942814619
77,1.40915439270637215507217532178044
78,1.41175545864951268517971683857212
79,1.41432332043941961869616111149597
80,1.41685881567537227427047330558708
81,1.41936275064268374958659502886276
82,1.42183590185503091587730802569341
83,1.42427901750295087674569415651261
84,1.42669281881527258826830995799066
85,1.42907800133969306118048826733768
86,1.43143523614819170055477743030868
87,1.43376517097251886758376117556955
88,1.43606843127457137034266212963602
89,1.43834562125608408824566962360340
90,1.44059732481172371818062091157372
91,1.44282410642934917825599598980277
92,1.44502651204091490755496842988205
93,1.44720506982723104523567319830754
94,1.44936029097955154357870095936070
95,1.45149267042074011555384856841595
96,1.45360268748856209536161003126104
97,1.45569080658346594829547798915651
98,1.45775747778304529197614078656338
99,1.45980313742521881881982376264073
100,1.46182820866201916918667246267065
101,1.46383310198575250050081337767610
102,1.46581821572916492291249754872602
103,1.46778393654114405845989034484928
104,1.46973063983937671597776957749518
105,1.47165869024129060024326933963164
106,1.47356844197451720960530930737139
107,1.47546023926803499438881801340932
108,1.47733441672507260881049053361222
109,1.47919129967878349560873889318617
110,1.48103120453164062246529704710204
111,1.48285443907943432809756621143844
112,1.48466130282070680226723750703859
113,1.48645208725240118815663980919270
114,1.48822707615245453780801935934245
115,1.48998654585002340281830822301616
116,1.49173076548398251083373983809817
117,1.49345999725030526538193698754174
118,1.49517449663889377547355050105594
119,1.49687451266039240768911630885996
120,1.49856028806349301123207360919239
121,1.50023205954320169918435590491499
122,1.50189005794051815606844336320061
123,1.50353450843394624888766054404140
124,1.50516563072323703900782291072494
125,1.50678363920573572598036543893798
126,1.50838874314568885710941596220836
127,1.50998114683684755867891105579251
128,1.51156104975867995756608787225765
129,1.51312864672649388872938673757487
130,1.51468412803575260219171603181625
131,1.51622767960085077902186039017210
132,1.51775948308860318861625154350520
133,1.51927971604668653799885954733854
134,1.52078855202726378789878873877218
135,1.52228616070600210202225524725498
136,1.52377270799669190840521885407754
137,1.52524835616166124378977525370222
138,1.52671326391816593997637120947932
139,1.52816758654093410519865515488057
140,1.52961147596102790759929264574400
141,1.53104508086118111039520540686296
142,1.53246854676776273505370761666339
143,1.53388201613950857863160072527103
144,1.53528562845315513179246990327977
145,1.53667952028610625625811065996931
146,1.53806382539625511169941095580159
147,1.53943867479907561910581168821290
148,1.54080419684209878963909810706860
149,1.54216051727687571990330747952416
150,1.54350775932853089448496478628330
151,1.54484604376300170999450162058730
152,1.54617548895205451975465438366342
153,1.54749621093616614880544621770640
154,1.54880832348535477844289600013386
155,1.55011193815803843625927098579314
156,1.55140716435799895802247577975508
157,1.55269410938952246797191919184933
158,1.55397287851078819560620939149482
159,1.5552435749855693017696339033795
160,1.5565063001333120515489196327735
161,1.5577611533776518300729649996829
162,1.5590082322934254622886244487423
163,1.5602476326522346899835647936062
164,1.5614794484666154426230687399735
165,1.5627037720328615021901448649318
166,1.5639206939725530775893338431481
167,1.5651303032728375209056650745950
168,1.5663326873255048744040044237026
169,1.5675279319649033103310641942826
170,1.5687161215047342066079364499773
171,1.5698973387737670528453711014402
172,1.5710716651505120533119269151472
173,1.5722391805968858291573175644698
174,1.5733999636909060633770001903146
175,1.5745540916584490734227432910516
176,1.5757016404041000177839442737535
177,1.5768426845411289970489145127035
178,1.5779772974206222038143178849216
179,1.5791055511597945663603027790311
180,1.5802275166695148324621629319229
181,1.5813432636810657418965301990116
182,1.5824528607721669829992171557202
183,1.5835563753922839825205140376925
184,1.5846538738872467702857620041242
185,1.5857454215232007267562559789623
186,1.5868310825099101820812734086055
187,1.5879109200234386671105294325808
188,1.5889849962282212526526409944661
189,1.5900533722985527080389226355068
190,1.5911161084395071300382250998858
191,1.5921732639073082646427349127871
192,1.5932248970291669038949243883800
193,1.5942710652226036615702444176052
194,1.5953118250142704684643144336898
195,1.5963472320582887196088572903642
196,1.5973773411541177652813163706562
197,1.5984022062639681210936424635662
198,1.5994218805297735591037103006801
199,1.6004364162897349137671616711107
200,1.6014458650944495428930043018263
201,1.6024502777226374199839690576697
202,1.6034497041964772340757038236893
203,1.6044441937965631517587345722793
204,1.6054337950764938562476169035750
205,1.6064185558771038288113863599468
206,1.6073985233403498912649948625358
207,1.6083737439228588801495149431489
208,1.6093442634091506740084767226965
209,1.6103101269245423165903703928642
210,1.6112713789477447315789674043552
211,1.6122280633231593878105603739096
212,1.6131802232728851421027298717013
213,1.6141279014084396375854921567643
214,1.6150711397422102332208406708282
215,1.6160099796986336707382474835948
216,1.6169444621251184334393953865375
217,1.6178746273027137559102638572815
218,1.6188005149565342570863710324460
219,1.6197221642659434696030022263068
220,1.6206396138745087735536346329140
221,1.6215529018997256369423387053214
222,1.6224620659425283601910159143271
223,1.6233671430965808855281966864769
224,1.6242681699573627305529167818058
225,1.6251651826310526025118156665798
226,1.6260582167432132312253002603634
227,1.6269473074472860635045959007542
228,1.6278324894328976292543873895861
229,1.6287137969339847313993353652594
230,1.6295912637367431458663140752063
231,1.6304649231874016208798796794699
232,1.6313348081998315844791555986641
233,1.6322009512629875457473027238691
234,1.6330633844481943358067246083595
235,1.6339221394162743596667004182455
236,1.6347772474245245576784839566547
237,1.6356287393335466967112610455821
238,1.6364766456139327220463591360667
239,1.6373209963528106055551981881078
240,1.6381618212602528435638162868875
241,1.6389991496755518857368796600526
242,1.6398330105733653509161630839869
243,1.6406634325697350606708837096015
244,1.6414904439279815787793017689946
245,1.6423140725644786297365265251919
246,1.6431343460543099148391142979046
247,1.6439512916368097076148475427274
248,1.6447649362209948091352213465798
249,1.6455753063908828317087746126212
250,1.6463824284107071950587819299556
251,1.6471863282300267343950358285127
252,1.6479870314887327182773477949592
253,1.6487845635219583478717699999032
254,1.6495789493648903938542502652179
255,1.6503702137574868503891396701160
256,1.6511583811491006909471384498601
257,1.6519434757030161167048762152302
258,1.6527255213008937415827147888494
259,1.6535045415471315167692980043754
260,1.6542805597731417804351322488950
261,1.6550535990415447456905601674620
262,1.6558236821502831515179597718614
263,1.6565908316366569265630827819893
264,1.6573550697812833159415447194304
265,1.6581164186119809955910493625074
266,1.6588748999075803412044571323215
267,1.6596305352016630642787715870399
268,1.6603833457862312482821188601472
269,1.6611333527153100541405940443175
270,1.6618805768084798184722580768163
271,1.6626250386543468278077915591387
272,1.6633667586139467476445452401447
273,1.6641057568240881487313111244293
274,1.6648420532006333388841281924438
275,1.6655756674417203751951421786000
276,1.6663066190309245342695975117462
277,1.6670349272403667237875028657868
278,1.6677606111337605893202734414174
279,1.6684836895694098188531873427433
280,1.6692041812031477378663447564021
281,1.6699221044912270837837084802642
282,1.6706374776931574560451012713799
283,1.6713503188744936542344131480531
284,1.6720606459095720607855770174828
285,1.6727684764842018755143315660554
286,1.6734738280983072267073282037884
287,1.6741767180685252180469306768679
288,1.6748771635307563131347953882342
289,1.6755751814426717056650890486396
290,1.6762707885861784077622881600362
291,1.6769640015698398974107731467868
292,1.6776548368312552098699560857175
293,1.6783433106394003788367639165143
294,1.6790294390969272642580894865775
295,1.6797132381424218539245338920126
296,1.6803947235526296243938648404444
297,1.6810739109446378929561447569901
298,1.6817508157780244773794508493180
299,1.6824254533569694662793255544826
300,1.6830978388323318507030050950079
301,1.6837679872036914283513919641303
302,1.6844359133213580733566367052332
303,1.6851016318883455447302111020330
304,1.6857651574623134109954299729149
305,1.6864265044574785195173362230535
306,1.6870856871464952737345024617640
307,1.6877427196623019002524433690441
308,1.6883976159999401842324967834585
309,1.6890503900183447623480344129038
310,1.6897010554421023084595747440002
311,1.6903496258631842069183893342235
312,1.6909961147426502266370363894309
313,1.6916405354123245886816429316447
314,1.6922829010764462316663424300879
315,1.6929232248132925945991753288004
316,1.6935615195767782928283159938636
317,1.6941977981980262257000149769164
318,1.6948320733869164671805031079178
319,1.6954643577336100810108656109280
320,1.6960946637100478616598357413285
321,1.6967230036714279200166214283345
322,1.6973493898576582282619387119452
323,1.6979738343947876379635612159011
324,1.6985963492964143485444842719535
325,1.6992169464650735881115524235214
326,1.6998356376936027438796057631919
327,1.7004524346664867629542803271698
328,1.7010673489611810126765013764768
329,1.7016803920494165753953193864600
330,1.7022915752984844093435169315889
331,1.7029009099724998142006606990217
332,1.7035084072336482625764265101806
333,1.7041140781434129759601518972953
334,1.7047179336637824291514829932409
335,1.7053199846584420980952559222307
336,1.7059202418939465091641991927988
337,1.7065187160408744621260152175323
338,1.7071154176749684856387657685041
339,1.7077103572782545897728795256932
340,1.7083035452401484068921500058157
341,1.7088949918585434344628148985729
342,1.7094847073408838769324403343228
343,1.7100727018052217244598353489222
344,1.7106589852812580621953136424850
345,1.7112435677113704294381493693052
346,1.7118264589516237034588367220285
347,1.7124076687727680733369963333913
348,1.7129872068612209155328210573829
349,1.7135650828200361161090657904354
350,1.7141413061698583819381606223291
351,1.7147158863498646284916443872003
352,1.7152888327186921265710928762618
353,1.7158601545553526923534917807199
354,1.7164298610601343352216893942078
355,1.7169979613554907286591267550870
356,1.7175644644869167139932952176932
357,1.7181293794238130760279903189069
358,1.7186927150603398345682398272253
359,1.7192544802162537969796422742662
360,1.7198146836377393097045241532444
361,1.7203733339982239536076314334155
362,1.7209304398991856647564604532310
363,1.7214860098709458762532427500411
364,1.7220400523734537051184496181234
365,1.7225925757970594205991634857226
366,1.7231435884632760715776000718285
367,1.7236930986255321650976567391476
368,1.7242411144699121847461436391000
369,1.7247876441158895814420335871446
370,1.7253326956170479498173442121814
371,1.7258762769617932435083078054812
372,1.7264183960740559858454238481777
373,1.7269590608139834426683587048050
374,1.7274982789786260657550428075556
375,1.7280360583026088984463062235702
376,1.7285724064587993996919555931647
377,1.7291073310589634757418936717162
378,1.7296408396544128869039276343990
379,1.7301729397366458691833169340898
380,1.7307036387379777275809137276819
381,1.7312329440321642764984688828608
382,1.7317608629350152454338122612659
383,1.7322874027050023246414523088935
384,1.7328125705438568144715052689901
385,1.7333363735971604996570971190549
386,1.7338588189549304072141773598186
387,1.7343799136521931973053693508832
388,1.7348996646695531238777771263764
389,1.7354180789337542397738621726250
390,1.7359351633182340354331917120763
391,1.7364509246436688281379183607274
392,1.7369653696785145101908967633476
393,1.7374785051395401295241675245823
394,1.7379903376923528838465585635054
395,1.7385008739519173852150263330735
396,1.7390101204830688459085156780893
397,1.7395180838010198155244672119502
398,1.7400247703718604774442137120566
399,1.7405301866130510704709818822092
400,1.7410343388939107356103097992651
401,1.7415372335360988369252415382793
402,1.7420388768140895016962714041275
403,1.7425392749556422006382858908620
404,1.7430384341422662612787655606946
405,1.7435363605096767799557072489302
406,1.7440330601482480414848517169472
407,1.7445285391034615632303143261460
408,1.7450228033763462667882816501802
409,1.7455158589239136383759966184180
410,1.7460077116595903924205792970069
411,1.7464983674536428983816627000281
412,1.7469878321335969534140482290704
413,1.7474761114846539799477031772640
414,1.7479632112501000720476820079249
415,1.7484491371317121745349443571546
416,1.7489338947901578245203998483945
417,1.7494174898453913038569949178740
418,1.7498999278770433657674855694407
419,1.7503812144248088141789063702993
420,1.7508613549888269177067107496006
421,1.7513403550300586104940782520201
422,1.7518182199706597615302318812711
423,1.7522949551943483486107714701691
424,1.7527705660467691506873915907279
425,1.7532450578358523379901290717819
426,1.7537184358321695667858071238031
427,1.7541907052692850634267001110216
428,1.7546618713441017114013347430033
429,1.7551319392172060537996071818061
430,1.7556009140132050733229167822430
431,1.7560688008210622535191001322880
432,1.7565356046944300707815104340085
433,1.7570013306519742550356150811256
434,1.7574659836777009170762699927618
435,1.7579295687212743662566861856776
436,1.7583920906983335195459597588942
437,1.7588535544908050633521945752541
438,1.7593139649472123502031031991797
439,1.7597733268829807116162721230845
440,1.7602316450807402584008315394977
441,1.7606889242906233282714274126347
442,1.7611451692305601444513738626124
443,1.7616003845865723329879419301849
444,1.7620545750130589181819040156501
445,1.7625077451330841268196569119473
446,1.7629598995386580255877351510346
447,1.7634110427910171608699282643979
448,1.7638611794208984191592265970872
449,1.7643103139288139486223174307077
450,1.7647584507853192942885078469680
451,1.7652055944312822499921648560137
452,1.7656517492781452684498261660234
453,1.7660969197081871725767746874509
454,1.7665411100747805570289223102046
455,1.7669843247026485038750953151637
456,1.7674265678881159094362557162124
457,1.7678678438993601180344614688342
458,1.7683081569766572585860164226646
459,1.7687475113326267979998593589213
460,1.7691859111524739537648878706096
461,1.7696233605942278154886802568358
462,1.7700598637889783884788040248353
463,1.7704954248411111631783984815217
464,1.7709300478285373714037968144134
465,1.7713637368029238981612780661640
466,1.7717964957899199797852118636057
467,1.7722283287893799689559283228555
468,1.7726592397755871822838557364600
469,1.7730892326974713072048572555714
470,1.7735183114788268927710467985406
471,1.7739464800185271914949145170950
472,1.7743737421907376499058695927296
473,1.7748001018451243987716773460309
474,1.7752255628070652470301649949463
475,1.7756501288778521022367230469235
476,1.7760738038348973313871917421566
477,1.7764965914319343951645023094450
478,1.7769184953992174316542072167212
479,1.7773395194437186789667426022421
480,1.7777596672493241314049896844273
481,1.7781789424770259801087577687274
482,1.7785973487651154070220882636141
483,1.7790148897293711122392604581511
484,1.7794315689632463945435688164062
485,1.7798473900380562620778613368795
486,1.7802623565031591579992375704321
487,1.7806764718861401499660032771905
488,1.7810897396929901800036277839240
489,1.7815021634082846029175930134892
490,1.7819137464953588763607458337075
491,1.7823244923964835368230119969675
492,1.7827344045330370497148844049330
493,1.7831434863056765085369637008717
494,1.7835517410945072771594244345470
495,1.7839591722592497676897740388843
496,1.7843657831394065983347846370838
497,1.7847715770544258167588400962947
498,1.7851765573038641341760421170356
499,1.7855807271675476674788670634090
500,1.785984089905732319857771077529
501,1.786386648759259545905080432008
502,1.786788406949714956336940786758
503,1.787189367679581230411401924944
504,1.787589534132393179831186153625
505,1.787988909472887811546153508240
506,1.788387496847155119491538171078
507,1.788785299382787453235207844381
508,1.789182320189027103439331277358
509,1.789578562356910334972926191090
510,1.789974028959413920853100879595
511,1.790368723051597408038393780436
512,1.790762647670745015214858389213
513,1.791155805836505778257641097732
514,1.791548200551032619783375551503
515,1.791939834799120717043873663922
516,1.792330711548343378505094337539
517,1.792720833749186503864970551534
518,1.793110204335183412907883257136
519,1.793498826223046825161877445456
520,1.793886702312800847382003220111
521,1.794273835487909764116701508280
522,1.794660228615407907588620448874
523,1.795045884546027044079819135741
