Eigenstate,Potential Energy
1,0.500000000027931362022046722088234460
2,0.64623093783343591520064165112655519
3,0.73633761024052920694639306741721426
4,0.79966527892973440085222808124544357
5,0.8480465772179495889926024437685140
6,0.8870659998602580577027123640994638
7,0.9197208282950255274712705698072025
8,0.9477838488993047686258193091975177
9,0.9723835606794407543599059171065013
10,0.9942802177840494656352913638012452
11,1.0140093903542015990943847234377869
12,1.0319621736945514431783495353014565
13,1.0484326978709271762671536033943382
14,1.0636476605664915313414749851250829
15,1.0777854428959261595034954049533649
16,1.090988914275876434440302589916455
17,1.103374265886455717497137792878051
18,1.115037261677444860786074503901239
19,1.126057761472269919778676607317565
20,1.136503058601938708281011076049909
21,1.146430385986738087025880935553300
22,1.155888827294974196750751235187076
23,1.164920794879497200502470954217602
24,1.173563187178123517506046268316657
25,1.181848305509562278544854917818093
26,1.189804587881003131065238033253882
27,1.197457201950692121420126919206971
28,1.204828528386971572786285342335311
29,1.211938558070232055940494190118181
30,1.218805220934736980883760849501995
31,1.225444660101341837293075591880067
32,1.231871461874230527106903327000459
33,1.238098849865143428464593767104582
34,1.244138849758025564106215873629911
35,1.250002429887828181683443586416218
36,1.255699621773718174927030408508684
37,1.261239623942865226142543822765351
38,1.266630891750557807403902504097833
39,1.271881215404550528330567858439891
40,1.276997788005724534818542074208682
41,1.281987265100392389399523018662486
42,1.286855816984586262418672292105993
43,1.291609174794181918323495016472976
44,1.296252671246616965868006342555855
45,1.300791276762392272053010938596126
46,1.305229631581409157041703615823327
47,1.309572074395718374968578208054059
48,1.313822667942670521320379778632392
49,1.317985221937794963678894994587761
50,1.32206331367261167896861013230535
51,1.32606030655711341788527825461995
52,1.32997936684831040288671350616499
53,1.33382347877377964758508623190334
54,1.33759545823159985392726113163890
55,1.34129796522457735104073454465517
56,1.34493351516659396950005367700704
57,1.34850448918170877965168949602337
58,1.35201314350184843634625601828955
59,1.35546161805616692515332508955157
60,1.35885194433413099743324341185616
61,1.36218605259482335413691252693245
62,1.36546577848665463309206879290655
63,1.36869286913443336551488331571852
64,1.37186898874443058756438607905428
65,1.37499572377254095278507758098046
66,1.37807458769579485222953032220871
67,1.38110702542321375772748522681875
68,1.38409441737824484295982163744070
69,1.38703808328169826626935279227514
70,1.38993928566118223087663314552223
71,1.39279923311043223443821402097501
72,1.39561908331963267750503695957113
73,1.39839994589577599403547931501460
74,1.40114288499028561856487336990577
75,1.40384892174949800353049549228417
76,1.40651903660214934349583612739406
77,1.40915417139671026459999398197373
78,1.41175523140024593937787637328185
79,1.41432308716943226710473195798099
80,1.41685857630342063417409504971356
81,1.41936250508739442754171471828396
82,1.42183565003489902371449324443719
83,1.42427875933633824197384297143504
84,1.42669255422040595880675024425173
85,1.42907773023466230434416788605325
86,1.43143495845094799621700406998064
87,1.43376488660087289544017993828279
88,1.43606814014619149119945281405980
89,1.43834532328849451925425336903784
90,1.44059701992230270194047705522352
91,1.44282379453532714570649992792170
92,1.44502619305937263457652147569507
93,1.44720474367509780287974282055195
94,1.44935995757360324184574675467274
95,1.45149232967759744063745272864979
96,1.45360233932468864027656627217788
97,1.45569045091516633680688022160105
98,1.45775711452646329574598571102617
99,1.45980276649633546768694423387901
100,1.46182782997665085449526898154473
101,1.46383271545954907139218792717531
102,1.46581782127760777549401743504165
103,1.46778353407954421776459012787826
104,1.46973022928287291062735340097704
105,1.47165827150484732972671027645698
106,1.47356801497292280408458601431336
107,1.47545980391589966694273173480917
108,1.47733397293682650002688579430496
109,1.47919084736867471043479109654644
110,1.48103074361373325922496487012144
111,1.48285396946760649958460672565375
112,1.48466082442864864882157985491184
113,1.48645159999361288263129093944961
114,1.48822657994024428233297486205378
115,1.48998604059750541726733855711498
116,1.49173025110407501289924467509517
117,1.49345947365572844216239770437174
118,1.49517396374216774647743404952694
119,1.49687397037383517915846626119086
120,1.49855973629921842168822046831603
121,1.50023149821311735609763196261623
122,1.50188948695632336355300741905859
123,1.50353392770712992632184097375846
124,1.50516504016507563047973525699512
125,1.50678303872729110045778623557410
126,1.50838813265780619923217463625616
127,1.50998052625015325007139062259507
128,1.51156041898357944856659653171379
129,1.51312800567316956043248686815279
130,1.51468347661416161869883266765247
131,1.51622701772072292979471115344119
132,1.51775881065943872082683354207861
133,1.51927903297775397876907006391143
134,1.52078785822759775632183752371763
135,1.52228545608440111085724868493284
136,1.52377199246171615533561121122005
137,1.52524762962163039213539403347037
138,1.52671252628115688874804295884234
139,1.52816683771477874838353526376484
140,1.52961071585331088256420236125962
141,1.53104430937923753529440515357756
142,1.53246776381867593512671712164660
143,1.53388122163010780127573001479547
144,1.53528482229001325029390360946051
145,1.53667870237553746206449734787598
146,1.53806299564431259511596932469656
147,1.53943783311154923829604249478437
148,1.54080334312451272781037974484748
149,1.54215965143448613055653782712620
150,1.54350688126632353460666567144765
151,1.54484515338568956106865139130696
152,1.54617458616407539647073713481999
153,1.54749529564168029533804966728276
154,1.54880739558824245217737286650442
155,1.55011099756189747883685287266891
156,1.55140621096614235357723149827344
157,1.55269314310497588843101828912570
158,1.55397189923628753292378993204669
159,1.5552425826235581869636479337794
160,1.5565052945859393604091776985538
161,1.5577601345467691754075590807366
162,1.5590072000805846725748467053216
163,1.5602465869586852742883374418180
164,1.5614783891933020416567573656203
165,1.5627026990804213253565270681998
166,1.5639196072413133258933995504052
167,1.5651292026628127955797072899633
168,1.5663315727363945711113366069551
169,1.5675268032960889988055554479160
170,1.5687149786552769955862653228273
171,1.5698961816424049401478652021600
172,1.5710704936356572609264283527068
173,1.5722379945966221231794808328716
174,1.5733987631029860586590665780232
175,1.5745528763802915227816321222823
176,1.5757004103327870856181690674357
177,1.5768414395734035172126494860305
178,1.5779760374528849215955126865477
179,1.5791042760881013644085151574778
180,1.5802262263895739405104229508917
181,1.5813419580882349301201667973284
182,1.5824515397614507388532790200940
183,1.5835550388583306708960033519047
184,1.5846525217243457768234631491730
185,1.5857440536252795841555855125359
186,1.5868296987705316792401809338617
187,1.5879095203357979409309062655824
188,1.5889835804851428623444164231892
189,1.5900519403924876917543217244734
190,1.5911146602625300436664201794396
191,1.5921717993511142025933910865017
192,1.5932234159850685016977406390377
193,1.5942695675815280801159977452084
194,1.5953103106667563597113533744192
195,1.5963457008944831735774082221093
196,1.5973757930637732381563668123527
197,1.5984006411364393442555786011358
198,1.5994202982540144289041279671452
199,1.6004348167542953618658057270379
200,1.6014442481874723869698688373015
201,1.6024486433318551946391766929069
202,1.6034480522092090017277735860137
203,1.6044425240997112933503753086478
204,1.6054321075565408415662190908161
205,1.6064168504201089662297181256029
206,1.6073967998319460567057863547716
207,1.6083720022482492250758271784049
208,1.6093425034531053122397892431758
209,1.6103083485713949897426345745851
210,1.6112695820813894529248672065638
211,1.6122262478270470643543189970396
212,1.6131783890300201746619774610112
213,1.6141260483013764986706085626540
214,1.6150692676530500225003273437887
215,1.6160080885090206478766747043932
216,1.6169425517162365280923499722943
217,1.6178726975552830546588488979002
218,1.6187985657508074670916086635810
219,1.6197201954817023587583512411167
220,1.6206376253910605869119987729743
221,1.6215508935958994891914254987015
222,1.6224600376966716039490101153673
223,1.6233650947865554552293732736675
224,1.6242661014605414616907882385222
225,1.6251630938243155260048549217568
226,1.6260561075029438426683084314442
227,1.6269451776493675670663680859086
228,1.6278303389527091559799322697202
229,1.6287116256463975316727173996957
230,1.6295890715161167557876570396663
231,1.6304627099075800023077834568678
232,1.6313325737341392384871746075506
233,1.6321986954842255992409045006058
234,1.6330611072286366010444658006028
235,1.6339198406276633664268734288596
236,1.6347749269380675578099674777837
237,1.6356263970199116408047680110605
238,1.6364742813432442079594838965176
239,1.6373186099946457985223363537287
240,1.6381594126836373676189092057454
241,1.6389967187489556861746196153904
242,1.6398305571646985275144437490357
243,1.6406609565463436713942823292905
244,1.6414879451566434136810699136967
245,1.6423115509113989547731083304996
246,1.6431318013851171853086988724046
247,1.6439487238165512509286505340337
248,1.6447623451141324766269429145741
249,1.6455726918612886191849069398623
250,1.6463797903216588317893277803061
251,1.6471836664442032402412213496303
252,1.6479843458682099286497337178183
253,1.6487818539282044062091089058154
254,1.6495762156587612113103601120584
255,1.6503674557992215324115586690734
256,1.6511555987983169304284532489871
257,1.6519406688187055533840120686847
258,1.6527226897414172873704026033238
259,1.6535016851702146466684853565728
260,1.6542776784358697887236389602900
261,1.6550506926003579670299350375228
262,1.6558207504609721466488821105085
263,1.6565878745543576322443627513762
264,1.6573520871604721587859064468316
265,1.6581134103064699694474808894176
266,1.6588718657705120477331034609523
267,1.6596274750855057163608607050276
268,1.6603802595427736359034519910597
269,1.6611302401956564723832961591356
270,1.6618774378630449572460046495158
271,1.6626218731328506229473365379111
272,1.6633635663654091929968703369366
273,1.6641025376968240688514667393177
274,1.6648388070422471219548953416896
275,1.6655723940991006657814846186430
276,1.6663033183502388855150370143214
277,1.6670315990670562086549128254256
278,1.6677572553125343704755567938298
279,1.6684803059442396767861661047685
280,1.6692007696172625568386155135922
281,1.6699186647871072951889447200982
282,1.6706340097125294387628139866448
283,1.6713468224583240915535272135458
284,1.6720571208980622534699087071438
285,1.6727649227167820105771404276500
286,1.6734702454136306014575248960713
287,1.6741731063044624189649843138872
288,1.6748735225243893491312217339419
289,1.6755715110302880952699262824706
290,1.6762670886032652197887216048415
291,1.6769602718510777446312604170437
292,1.6776510772105121952380181277629
293,1.6783395209497259937829106861817
294,1.6790256191705462385824983762111
295,1.6797093878107279568045102641952
296,1.6803908426461794160183088369151
297,1.6810699992931444262942297958024
298,1.6817468732103509495851249948736
299,1.6824214797011228192277071849319
300,1.6830938339154563201492716445326
301,1.6837639508520620411969231256105
302,1.6844318453603740925018233498263
303,1.6850975321425238609869587281268
304,1.6857610257552818815271266120383
305,1.6864223406119692522676083646292
306,1.6870814909843378573004351660878
307,1.6877384910044165786515756729325
308,1.6883933546663309760070117468746
309,1.6890460958280925234427791953149
310,1.6896967282133577383049142071494
311,1.6903452654131607971417902904955
312,1.6909917208876171518212812797171
313,1.6916361079675995385807445890826
314,1.6922784398563881842835583156527
315,1.6929187296312945295248238006509
316,1.6935569902452598442281048873126
317,1.6941932345284262743379767381954
318,1.6948274751896856708532932395548
319,1.6954597248182033427628792909228
320,1.6960899958849167351420572074165
321,1.6967183007440129513441378258353
322,1.6973446516343812337179609769546
323,1.6979690606810439168903487301759
324,1.6985915398965648307535866073982
325,1.6992121011824369151385469371142
326,1.6998307563304472834003760227601
327,1.7004475170240225556721536501823
328,1.7010623948395516509814178931792
329,1.7016754012476910130882006518488
330,1.7022865476146487017105883450983
331,1.7028958452034487877144607415701
332,1.7035033051751771134913819848045
333,1.7041089385902087970623182870790
334,1.7047127564094156639133020600023
335,1.7053147694953579214775522061076
336,1.7059149886134561342981386687421
337,1.7065134244331463720994601710204
338,1.7071100875290195896019510186319
339,1.7077049883819413025688910590187
340,1.7082981373801576514086032160134
341,1.7088895448203835658914484720794
342,1.7094792209088755281138227633156
343,1.7100671757624885714801003012163
344,1.7106534194097175093927776029577
345,1.7112379617917242129667803988992
346,1.7118208127633484125456085357476
347,1.7124019820941055883603665232992
348,1.7129814794691687620381724572772
349,1.7135593144903377338669274927607
350,1.7141354966769933081402297485445
351,1.7147100354670385941685548768077
352,1.7152829402178270653047383000992
353,1.7158542202070766603458286375301
354,1.7164238846337713417702202565339
355,1.7169919426190504760782092257272
356,1.7175584032070842460078690747022
357,1.7181232753659383336555359772088
358,1.7186865679884271184921378377659
359,1.7192482898929511354047128774390
360,1.7198084498243277306740197200352
361,1.7203670564546066607475645609371
362,1.7209241183838771154009304820753
363,1.7214796441410607608914268175281
364,1.7220336421846958270910503629765
365,1.7225861209037104749582093565342
366,1.7231370886181843220111238865322
367,1.7236865535801010178064277797089
368,1.7242345239740886581458459436925
369,1.7247810079181526705505137334413
370,1.7253260134643968841723051753812
371,1.7258695485997356374465179320176
372,1.7264116212465958799597221464787
373,1.7269522392636092352439562720560
374,1.7274914104462983329716696990309
375,1.7280291425277481021175500713845
376,1.7285654431792734812978204745968
377,1.7291003200110753354943326181685
378,1.7296337805728877465699067221234
379,1.7301658323546185173736395385998
380,1.7306964827869796461964118567045
381,1.7312257392421106470088819726654
382,1.7317536090341918336478278673221
383,1.7322800994200522426088601501380
384,1.7328052175997671581421540135710
385,1.7333289707172488609020589423588
386,1.7338513658608312587988487940680
387,1.7343724100638441493840267265689
388,1.7348921103051810505624604064718
389,1.7354104735098612743105995498314
390,1.7359275065495834325005848598878
391,1.7364432162432706917634221689514
392,1.7369576093576113857607557558839
393,1.7374706926075924583435062551336
394,1.7379824726570243186860068815554
395,1.7384929561190599652593413468350
396,1.7390021495567080295031058002245
397,1.7395100594833393690938680864361
398,1.7400166923631872189360153304259
399,1.7405220546118394656567062761266
400,1.7410261525967273455530055089725
401,1.7415289926376066149015760442483
402,1.7420305810070319378378407498241
403,1.7425309239308273125347128896869
404,1.7430300275885504287613956214557
405,1.7435278981139484222575132517194
406,1.7440245415954111349479467387380
407,1.7445199640764189977084028303742
408,1.7450141715559830388670000753391
409,1.7455071699890798795082782462315
410,1.7459989652870842300498790760990
411,1.7464895633181931480992505735185
412,1.7469789699078456401708500943765
413,1.7474671908391386863145528433688
414,1.7479542318532361114907147334817
415,1.7484400986497745876459171805194
416,1.7489247968872631961131345193181
417,1.7494083321834793988143415760861
418,1.7498907101158585814927828134801
419,1.7503719362218814474782356028605
420,1.7508520159994542438980512151887
421,1.7513309549072857725097006580233
422,1.7518087583652604667481706630014
423,1.7522854317548053711202883842568
424,1.7527609804192546366617772740470
425,1.7532354096642079118087605358163
426,1.7537087247578862355145744903203
427,1.7541809309314829172330702777120
428,1.7546520333795094174471857193771
429,1.7551220372601401411208688455279
430,1.7555909476955490061705631611869
431,1.7560587697722452906009415617762
432,1.7565255085414059078091484972960
433,1.7569911690191994479443090897632
434,1.7574557561871130832490160065164
435,1.7579192749922701610466499134254
436,1.7583817303477463853532500682764
437,1.7588431271328827484729184199283
438,1.7593034701935941946293327551907
439,1.7597627643426746969257439759950
440,1.7602210143600998188351802618060
441,1.7606782249933239200611857356148
442,1.7611344009575755704029552497399
443,1.7615895469361508193071623070684
444,1.7620436675806989404645005085444
445,1.7624967675115099820964599997848
446,1.7629488513177951472671009172141
447,1.7633999235579671733752930370188
448,1.7638499887599139290139513352803
449,1.7642990514212730686867628133063
450,1.7647471160096998978083415085985
451,1.7651941869631359510676318571557
452,1.7656402686900711254865651509369
453,1.7660853655698051112311857669042
454,1.7665294819527045091075324982509
455,1.7669726221604592585989638900346
456,1.7674147904863336734275544181559
457,1.7678559911954167803301171159362
458,1.7682962285248683569288293109288
459,1.7687355066841631826039437876586
460,1.7691738298553331446948098792371
461,1.7696112021932050497364930639388
462,1.7700476278256373527651901131327
463,1.7704831108537544084456171203666
464,1.7709176553521764049085079107122
465,1.7713512653692489490154832939968
466,1.7717839449272694337305834600094
467,1.7722156980227094680961717889761
468,1.7726465286264383854354515417277
469,1.7730764406839403064602931197038
470,1.7735054381155322818060494655908
471,1.7739335248165777810812450935720
472,1.7743607046576998260254760209544
473,1.7747869814849891186576774796264
474,1.7752123591202146683901333247409
475,1.7756368413610258408422530333372
476,1.7760604319811583421408748240473
477,1.7764831347306344716816943215440
478,1.7769049533359623193214372488453
479,1.7773258915003327963619925351415
480,1.7777459529038148948877944273759
481,1.7781651412035477263081501190518
482,1.7785834600339329078700261010059
483,1.7790009130068226771151381455018
484,1.7794175037117065540126400099634
485,1.7798332357158980276202001927619
486,1.7802481125647158520412987609850
487,1.7806621377816668004365572344680
488,1.7810753148686244735496142807879
489,1.7814876473060073908208899995635
490,1.7818991385529542271076600279897
491,1.7823097920474983291815891104153
492,1.7827196112067401000806612025456
493,1.7831285994270172262091994564728
494,1.7835367600840738411115316325395
495,1.7839440965332268182964052463651
496,1.7843506121095324374142479514572
497,1.7847563101279491091860443463532
498,1.7851611938835001042136627671583
499,1.7855652666514337828665568111461
500,1.785968531687383456588347471000
501,1.786370992227522626504537571120
502,1.786772651488723054350224001799
503,1.787173512668707133680420138450
504,1.787573578946202405030853627123
505,1.787972853481091062326099205469
506,1.788371339414560180445620470708
507,1.788769039869250511797226657533
508,1.789165957949403491676277340429
509,1.789562096741004683114785460943
510,1.789957459311929714268950132907
511,1.790352048712085939232066434434
512,1.790745867973553722276031207145
513,1.791138920110725961066431046907
514,1.791531208120446525122090339848
515,1.791922734982147983625255159286
516,1.792313503657986832780532141521
517,1.792703517092977297322179685372
518,1.793092778215125491418638922885
519,1.793481289935560720779789834224
520,1.793869055148666782836161988105
521,1.794256076732210060080996712377
522,1.794642357547468682643152220697
523,1.795027900439359197113211800021
