Eigenstate,Potential Energy
1,0.500000000071598184310491981975406766
2,0.64623093811847092598630686825056563
3,0.73633761107779997819980890154318247
4,0.79966528067368359256381313486202881
5,0.8480465802388480480581199736142096
6,0.8870660045348704911647100576885794
7,0.9197208350031728922166435680581722
8,0.9477838580224321734587186225602282
9,0.9723835725999529367254083522878834
10,0.9942802328849748102184832352841756
11,1.0140094090190108205935300907826092
12,1.0319621963070550852371317856285240
13,1.0484327248152160198662762665736282
14,1.0636476922269016993155076213644255
15,1.0777854796570191214525801576555078
16,1.090988956522428373058856805580097
17,1.103374314003452986143107999303788
18,1.115037316050083527779738269015199
19,1.126057822485958129690906032883002
20,1.136503126642301032269256279636827
21,1.146430461439621308307637680459468
22,1.155888910546454152054105283531968
23,1.164920886315886412575678133662038
24,1.173563287185979430145273280207916
25,1.181848414475695957707396985658699
26,1.189804706192488331847531783208196
27,1.197457329994874646272117788219275
28,1.204828666551478864701480676074649
29,1.211938706742982983731912699823251
30,1.218805380503951783517342119516383
31,1.225444830955552201611584672918505
32,1.231871644402289778834563308749455
33,1.238099044456236820621866061598373
34,1.244139056801680650229425500535778
35,1.250002649773925263782100206103424
36,1.255699854892500818101384110077180
37,1.261239870684950833356366053568072
38,1.266631152506948249159363945609193
39,1.271881490566642822996000387001704
40,1.276998077965321576170345061976305
41,1.281987570249713718597848032625932
42,1.286856137716278882174740480702277
43,1.291609511501331147458865221396598
44,1.296253024322757332831804244815265
45,1.300791646601518446267083511377850
46,1.305230018577986917197574559005848
47,1.309572478944695613613086825880714
48,1.313823090439488285246660630970112
49,1.317985662778398529791566573231514
50,1.32206377325346166542158317262100
51,1.32606078527519693040141397020606
52,1.32997986510115221626361796217948
53,1.33382399695945342247324482462213
54,1.33759599674873938903778451414262
55,1.34129852447238787100163765646188
56,1.34493409554486344863389958615204
57,1.34850509109081930199459101922657
58,1.35201376734278759227001979007436
59,1.35546226423053924498906592196334
60,1.35885261324416942252764670644101
61,1.36218674464340074580136375615743
62,1.36546649407729531993109849047174
63,1.36869360867132472964378989486655
64,1.37186975263243469024715421731024
65,1.37499651241720620004312811581943
66,1.37807540150336770098937191684259
67,1.38110786480065046309153267385710
68,1.38409528273322324719956076153025
69,1.38703897502262963015392179712528
70,1.38994020419722310796251256189562
71,1.39280017885149638895803343795632
72,1.39562005667640304650448930878217
73,1.39840094727971669441826169275536
74,1.40114391481365399971546820807182
75,1.40384998042535674619443139814459
76,1.40652012454437860560604844965858
77,1.40915528902001987474696274488405
78,1.41175637912018763862967042270026
79,1.41432426540241199989141160737362
80,1.41685978546671088895884374185519
81,1.41936374559914662800906393660070
82,1.42183692231415597121363567321212
83,1.42428006380304660996247415792836
84,1.42669389129542884004842342498582
85,1.42907910033979181161940345728324
86,1.43143636200891791731559957694321
87,1.43376632403537140320943154220039
88,1.43606961188187390943010053209989
89,1.43834682975099614519303233044544
90,1.44059856153825168622524278281166
91,1.44282537173235743052704637634308
92,1.44502780626613695087119295594674
93,1.44720639332128072738507529641136
94,1.44936164408993431482345710814557
95,1.45149405349586434511032211616081
96,1.45360410087775044361167145600597
97,1.45569225063696679549225641766890
98,1.45775895285204422421362163600904
99,1.45980464386185017204261710740248
100,1.46182974681937763202295405366813
101,1.46383467221790477670830598974486
102,1.46581981839116145423417589397354
103,1.46778557198903080869295136372094
104,1.46973230843020701706681048791512
105,1.47166039233313706121527120098832
106,1.47357017792648368917150732988376
107,1.47546200944026863804563751305057
108,1.47733622147877595127925128155783
109,1.47919313937622662946111132300137
110,1.48103307953617343378914376640936
111,1.48285634975549880006536066562202
112,1.48466324953384938747701017359144
113,1.48645407036928525062324356720479
114,1.48822909604087286549040768810321
115,1.48998860287891079157651830287525
116,1.49173286002342842071751438510416
117,1.49346212967156655016101912415249
118,1.49517666731440748632811535055775
119,1.49687672196378867198725306933601
120,1.49856253636960798732983614582372
121,1.50023434722809060819254494406434
122,1.50189238538146839153912375363654
123,1.50353687600949056538231263584738
124,1.50516803881316682051808855697388
125,1.50678608819111433518157826874212
126,1.50839123340886506643627154766872
127,1.50998367876146906422221438493704
128,1.51156362372970697679899796179652
129,1.51313126313021284308123604600720
130,1.51468678725978988549738994995061
131,1.51623038203418661288448841395594
132,1.51776222912158556573145888048201
133,1.51928250607104525449848960156414
134,1.52079138643612456578288455209736
135,1.52228903989390080275840054192802
136,1.52377563235958883878492759376675
137,1.52525132609695555514261403640532
138,1.52671627982471012185329844558582
139,1.52817064881904857464735352399816
140,1.52961458501251569516535550220314
141,1.53104823708934264399455116701859
142,1.53247175057741072287327581767128
143,1.53388526793698299222692122201286
144,1.53528892864633829056282618108536
145,1.53668286928443801449198824264927
146,1.53806722361074814939509712132071
147,1.53944212264233083778465688896775
148,1.54080769472832081438129673223139
149,1.54216406562188850884904460539878
150,1.54351135854979345705633458221119
151,1.54484969427962393510740501797921
152,1.54617919118481311530249814710867
153,1.54749996530752069371033879327055
154,1.54881213041946388858364983262963
155,1.55011579808077604559935681964842
156,1.55141107769697071627527833808309
157,1.55269807657408225615466982984459
158,1.55397689997205476084869849553081
159,1.5552476511564430127582387850900
160,1.5565104314484917760016449213959
161,1.5577653402736519356559852003219
162,1.5590124752085929424003809838868
163,1.5602519320267664158476461630904
164,1.5614838047425755431472337830345
165,1.5627081856541988730645853103073
166,1.5639251653851190211133895635616
167,1.5651348329244035180486793860793
168,1.5663372756657804906228744018213
169,1.5675325794455542366833386080335
170,1.5687208285794004377171414163742
171,1.5699021058980812032920240701146
172,1.5710764927821178140415356985457
173,1.5722440691954565655144984004529
174,1.5734049137181635563928683545941
175,1.5745591035781824060012315455747
176,1.5757067146821846074511514309944
177,1.5768478216455457769485357055377
178,1.5779824978214769536513465064273
179,1.5791108153293373950146089349344
180,1.5802328450821598140132946514025
181,1.5813486568134107068210016523204
182,1.5824583191030134663216736558188
183,1.5835618994026573307210524341766
184,1.5846594640604164087861825100149
185,1.5857510783447005898293811492654
186,1.5868368064675593070487587755973
187,1.5879167116073619547162939909469
188,1.5889908559308703955215102702482
189,1.5900593006147272891518567882927
190,1.5911221058663758931784582500154
191,1.5921793309444305587904768852850
192,1.5932310341785143035711341263577
193,1.5942772729885817651537697538365
194,1.5953181039037408765311145753007
195,1.5963535825805911953657806617351
196,1.5973837638210925791923063795212
197,1.5984087015899785818206233387153
198,1.5994284490317287329104262997300
199,1.6004430584871125345597509836950
200,1.6014525815093191150974102707233
201,1.6024570688796835164866182201442
202,1.6034565706230229914812283018650
203,1.6044511360225939652456182013490
204,1.6054408136346812763303597781845
205,1.6064256513028296623458200899269
206,1.6074056961717305090624050073886
207,1.6083809947007697335938398075637
208,1.6093515926772510231001054248452
209,1.6103175352293001718703593782319
210,1.6112788668384620124174303059927
211,1.6122356313519972995736248631908
212,1.6131878719948897747439873648909
213,1.6141356313815677882393174481101
214,1.6150789515273554554067106961930
215,1.6160178738596525528184024488590
216,1.6169524392288571090046923978766
217,1.6178826879190346488030180729095
218,1.6188086596583430638023138361107
219,1.6197303936292163818502119668735
220,1.6206479284783199437802647215802
221,1.6215613023262748896808502154298
222,1.6224705527771691521031898308099
223,1.6233757169278485170709503646378
224,1.6242768313770028122232468357480
225,1.6251739322340497786660311710239
226,1.6260670551278201645064588084040
227,1.6269562352150526829508744823327
228,1.6278415071887006452004558796483
229,1.6287229052860574203233320992071
230,1.6296004632967054083749876917455
231,1.6304742145702903160665366490136
232,1.6313441920241311439303295061165
233,1.6322104281506608705169172538537
234,1.6330729550247139797199531742884
235,1.6339318043106540023589754669898
236,1.6347870072693507708202107980094
237,1.6356385947650110069137604826551
238,1.6364865972718639739905108971823
239,1.6373310448807076289306892783604
240,1.6381719673053174274546410397391
241,1.6390093938887220641363278683770
242,1.6398433536093490031035027506335
243,1.6406738750870438302316559198646
244,1.6415009865889651151011487768001
245,1.6423247160353591558635280577131
246,1.6431450910052171256201573936262
247,1.6439621387418160021330862127434
248,1.6447758861581508614602746586466
249,1.6455863598422535040669075357389
250,1.6463935860624077975717694733495
251,1.6471975907722596355947244512672
252,1.6479983996158243106591615137595
253,1.6487960379323963728086034806025
254,1.6495905307613616302513134154887
255,1.6503819028469151715192418325350
256,1.6511701786426854939666207722029
257,1.6519553823162711294124416311457
258,1.6527375377536862110454648430383
259,1.6535166685637217845033387972095
260,1.6542927980822232488942320921405
261,1.6550659493762842408796334367833
262,1.6558361452483616866167397769217
263,1.6566034082403108715116254267605
264,1.6573677606373459780083922869645
265,1.6581292244719246160151826858200
266,1.6588878215275585130720333265942
267,1.6596435733425535768685475242790
268,1.6603965012136793631865825876963
269,1.6611466261997722185440151910347
270,1.6618939691252678210425400714564
271,1.6626385505836724027356255898201
272,1.6633803909409666324424194267360
273,1.6641195103389496014827777707352
274,1.6648559286985201207157056764954
275,1.6655896657228992038242910184877
276,1.6663207409007920145661338830842
277,1.6670491735094967613702129706942
278,1.6677749826179522932962533188932
279,1.6684981870897358998953250215408
280,1.6692188055860034079132653150844
281,1.6699368565683794637366352201637
282,1.6706523583017954979280448501272
283,1.6713653288572785843772876084850
284,1.6720757861146883506850357267458
285,1.6727837477654087471240575779084
286,1.6734892313149906990061488396384
287,1.6741922540857507018347552222021
288,1.6748928332193217611064440939545
289,1.6755909856791613249156688022789
290,1.6762867282530169419828302750382
291,1.6769800775553474861387528958676
292,1.6776710500297028322687149154695
293,1.6783596619510658895872986311022
294,1.6790459294281520292592422774925
295,1.6797298684056679936110687508125
296,1.6804114946665378725985961350497
297,1.6810908238340860793596119553855
298,1.6817678713741866417107680022737
299,1.6824426525973756125538036129391
300,1.6831151826609283499062124067552
301,1.6837854765709020781055130255498
302,1.6844535491841458232333260384816
303,1.6851194152102748960042830721495
304,1.6857830892136134997675278992125
305,1.6864445856151068922681336057909
306,1.6871039186942023645101838692312
307,1.6877611025906962188218186591829
308,1.6884161513065542246980845886377
309,1.6890690787077016418377165243964
310,1.6897198985257831456735744459396
311,1.6903686243598962504553212247270
312,1.6910152696782957431759951508420
313,1.6916598478200705212522135662489
314,1.6923023719967946383961445810909
315,1.6929428552941518784891782827672
316,1.6935813106735352332704834598791
317,1.6942177509736188226174548648429
318,1.6948521889119076088397915711481
319,1.6954846370862620467290942800165
320,1.6961151079763976708041961271871
321,1.6967436139453635388722840136549
322,1.6973701672409956465274366300241
323,1.6979947799973488268166665671818
324,1.6986174642361061124099188346809
325,1.6992382318679673224547565434140
326,1.6998570946940151115453056923662
327,1.7004740644070613017673984005833
328,1.7010891525929706872260068776155
329,1.7017023707319672861270257896783
330,1.7023137301999194722985953197778
331,1.7029232422696054249493150747539
332,1.7035309181119599581146072455683
333,1.7041367687973031085588996947378
334,1.7047408052965486663733724478308
335,1.7053430384823969634236172722800
336,1.7059434791305079779231950833159
337,1.7065421379206576276098198681647
338,1.7071390254378783106106463758024
339,1.7077341521735797587409344720084
340,1.7083275285266562948225301787030
341,1.7089191648045762078464526554127
342,1.7095090712244557433844321393076
343,1.7100972579141173472950965335316
344,1.7106837349131321566975044715753
345,1.7112685121738485578143827540743
346,1.7118515995624042857546560389177
347,1.7124330068597256318738713783238
348,1.7130127437625105707223082327795
349,1.7135908198841993517961208366246
350,1.7141672447559300987312170232099
351,1.7147420278274815038445003554955
352,1.7153151784682023006995306862964
353,1.7158867059679267993896623809715
354,1.7164566195378778993385577594280
355,1.7170249283115579452300427182213
356,1.7175916413456256361939311006817
357,1.7181567676207622276344713598437
358,1.7187203160425262700591598384628
359,1.7192822954421926304115125156713
360,1.7198427145775847341974004328610
361,1.7204015821338917736533121323687
362,1.7209589067244773639435843735864
363,1.7215146968916742433957599071759
364,1.7220689611075700421691908001476
365,1.7226217077747823561376272314483
366,1.7231729452272220040753282698531
367,1.7237226817308473605835784478163
368,1.7242709254844065539277774960582
369,1.7248176846201721617775188608916
370,1.7253629672046641184777532163772
371,1.7259067812393636876301830298043
372,1.7264491346614174569380751036066
373,1.7269900353443313225138779216181
374,1.7275294910986587716273678293923
375,1.7280675096726741559681512457842
376,1.7286040987530424121539961171996
377,1.7291392659654770192236134978468
378,1.7296730188753893610615167811763
379,1.7302053649885313341061085526238
380,1.7307363117516279576646949106276
381,1.7312658665530028628449255119689
382,1.7317940367231937788526293258339
383,1.7323208295355626919151537154711
384,1.7328462522068956411378901990901
385,1.7333703118979957731692505022473
386,1.7338930157142703149578122436425
387,1.7344143707063072145849521281701
388,1.7349343838704453876285903594678
389,1.7354530621493392444155219331321
390,1.7359704124325146879528898299311
391,1.7364864415569169001802312086152
392,1.7370011563074535256273435800747
393,1.7375145634175307267004860684055
394,1.7380266695695806924288179919969
395,1.7385374813955834583072060287180
396,1.7390470054775826888786033652530
397,1.7395552483481950537495972692989
398,1.7400622164911132059915141235332
399,1.7405679163416009295330042205969
400,1.7410723542869847563542482723943
401,1.7415755366671381032594296633740
402,1.7420774697749586743267731958388
403,1.7425781598568419506742187314514
404,1.7430776131131486615493584785730
405,1.7435758356986637031321093261917
406,1.7440728337230526150412224259983
407,1.7445686132513127322484978582614
408,1.7450631803042165165979510658399
409,1.7455565408587499300312998616769
410,1.7460487008485483650487744023832
411,1.7465396661643243934933089553124
412,1.7470294426542909173439407666363
413,1.7475180361245808017003561278709
414,1.7480054523396594149486006728656
415,1.7484916970227343612417155010202
416,1.7489767758561588361280938417997
417,1.7494606944818314550404865403965
418,1.7499434585015897191331124742629
419,1.7504250734776013982648845225257
420,1.7509055449327488143586141812572
421,1.7513848783510099786644817488576
422,1.7518630791778358659004509033881
423,1.7523401528205216628171135515366
424,1.7528161046485756063458845011511
425,1.7532909399940817921613548723415
426,1.7537646641520605620030337155008
427,1.7542372823808239559211374022572
428,1.7547087999023262447155188830722
429,1.7551792219025134565592168385064
430,1.7556485535316647615672483831934
431,1.7561167999047332196477739515791
432,1.7565839661016830428809743789286
433,1.7570500571678187120877568548456
434,1.7575150781141170473382594187564
435,1.7579790339175500579227678433478
436,1.7584419295214064746768235930580
437,1.7589037698356101279678776273493
438,1.7593645597370341554003801322059
439,1.7598243040698117225759915722863
440,1.7602830076456443302093765076001
441,1.7607406752441048695891860603756
442,1.7611973116129389922161271459944
443,1.7616529214683644435550886921910
444,1.7621075094953629825667658063221
445,1.7625610803479742200315851110309
446,1.7630136386495824024202620789961
447,1.7634651889932033129507087267777
448,1.7639157359417645105632797514745
449,1.7643652840283867499101215175228
450,1.7648138377566587374540120232201
451,1.7652614016009127294998121798036
452,1.7657079800064938162937760848980
453,1.7661535773900286381263288267828
454,1.7665981981396899253181427481228
455,1.7670418466154604889753452387629
456,1.7674845271493919625911297513495
457,1.7679262440458629933681188243120
458,1.7683670015818332823994038006767
459,1.7688068040070959909621267299112
460,1.7692456555445281586778146873004
461,1.7696835603903369867666872133181
462,1.7701205227143052030344384797033
463,1.7705565466600341160541443868024
464,1.7709916363451825232231301801288
465,1.7714257958617054453135934398941
466,1.7718590292760898221991886149807
467,1.7722913406295864543527254644674
468,1.7727227339384432099604566841406
469,1.7731532131941319786490892876489
470,1.7735827823635769007908750033564
471,1.7740114453893781440305417925656
472,1.7744392061900355293104326895456
473,1.7748660686601673620765926670817
474,1.7752920366707319775806426872960
475,1.7757171140692409280774993514612
476,1.7761413046799763309100746476379
477,1.7765646123042027158030085711768
478,1.7769870407203780528313244825507
479,1.7774085936843628560602397685331
480,1.7778292749296277632262552850884
481,1.7782490881674581482605804492754
482,1.7786680370871593415484418656329
483,1.7790861253562578441907360444772
484,1.7795033566207013624667521256926
485,1.7799197345050591460025165863559
486,1.7803352626127172212461883011462
487,1.7807499445260753760423553037963
488,1.7811637838067404989867100230506
489,1.7815767839957195090766152413207
490,1.7819889486136097463117659361254
491,1.7824002811607889652864459168178
492,1.7828107851176035279375739606176
493,1.7832204639445547786659810388926
494,1.7836293210824847043154283565883
495,1.7840373599527590802042415504990
496,1.7844445839574513555786550507609
497,1.7848509964795229732152839013654
498,1.7852566008830040779199604999984
499,1.7856614005131721209993950682241
500,1.786065398696730501240219721537
501,1.786468598741982998760266915920
502,1.786871003939011467548093112901
503,1.787272617559848265777645894224
504,1.787673442858651279022976260247
505,1.788073483071874395469525862602
506,1.788472741418439175192594894742
507,1.788871221099905573882930106258
508,1.789268925300641373706724333986
509,1.789665857187988565313342744550
510,1.790062019912432747753833284400
511,1.790457416607768791340852898759
512,1.790852050391266678025811512983
513,1.791245924363836149877235759822
514,1.791639041610190857430077799151
515,1.792031405199012398002630429023
516,1.792423018183112470672480198539
517,1.792813883599594239527017982715
518,1.793204004470014707991702125524
519,1.793593383800544904161666007512
520,1.793982024582130752697570300998
521,1.794369929790651447679360095114
522,1.794757102387079622408900636191
523,1.795143545317639773751363273879
