Eigenstate,Potential Energy
1,0.500000000044134540389727284174999639
2,0.64623093793920194465234849173860904
3,0.73633761055120895498587887712391183
4,0.79966527957684647021609417534236885
5,0.8480465783388837114201063753304241
6,0.8870660015948107264472395819651710
7,0.9197208307841236872584254846208912
8,0.9477838522844736779308410603904924
9,0.9723835651025566660950571127406861
10,0.9942802233872142170678227960464836
11,1.0140093972796745912540170403625938
12,1.0319621820847108652662104326580086
13,1.0484327078682471513423552344448010
14,1.0636476723135284249203809816108488
15,1.0777854565353104161687262029915113
16,1.090988929950307887079057931390183
17,1.103374283738701155655471727820253
18,1.115037281850337114266184669134124
19,1.126057784108707986251513431650875
20,1.136503083844888617620623940448505
21,1.146430413979234296754096851216050
22,1.155888858180121377823306081467620
23,1.164920828800472315058249587276636
24,1.173563224278178118541308155734530
25,1.181848345932024980809271249864491
26,1.189804631769282215913073291857053
27,1.197457249448278247845815516019650
28,1.204828579637440573688871493880273
29,1.211938613217247803622461440387964
30,1.218805280122054309448595109533365
31,1.225444723472809512337104236589444
32,1.231871529573794255162661341403722
33,1.238098922036848900225615201208017
34,1.244138926546021526674389790648718
35,1.250002511436369536021530572983942
36,1.255699708227169095436842692978329
37,1.261239715445702299872394488086036
38,1.266630988447373190853064717063353
39,1.271881317440055120190585745192993
40,1.276997895524751163291579406429015
41,1.281987378247899012977797023368983
42,1.286855935905659183208317493179740
43,1.291609299634039007159937206235496
44,1.296252802150610898605174085172258
45,1.300791413876013776521033168812023
46,1.305229775050290270261493881521684
47,1.309572224365635710290255132647163
48,1.313822824559548545218691684397983
49,1.317985385347709281994787321960117
50,1.32206348402179233243361976124010
51,1.32606048399194818680604396144428
52,1.32997955151534812090160048664000
53,1.33382367081973352443478659308380
54,1.33759565780335080720701603292349
55,1.34129817246917734692412936482358
56,1.34493373023126937244374769943871
57,1.34850471221386371110734524422689
58,1.35201337464906814252078695874000
59,1.35546185746622115387155342377780
60,1.35885219215497738416857460671574
61,1.36218630897461081728575480983168
62,1.36546604357372677857679105457541
63,1.36869314307733190080810657104628
64,1.37186927169189874523458566686791
65,1.37499601587352692366994977285399
66,1.37807488909945522834939261107941
67,1.38110733627891698505620129032708
68,1.38409473783557468417555095822079
69,1.38703841349045727361177813983296
70,1.38993962577139522924124737213503
71,1.39279958327234981484197866803492
72,1.39561944368373470106101242742436
73,1.39840031661277510657722636295134
74,1.40114326621113077606426277793946
75,1.40384931362537800845532844964531
76,1.40651943928449639225615019036630
77,1.40915458503720350623436720153334
78,1.41175565615081504563329080118869
79,1.41432352318226101406569590714810
80,1.41685902373095049559871959548726
81,1.41936296408232818006446352388371
82,1.42183612075020436407713143186095
83,1.42427924192525141644793545179067
84,1.42669304883643540497278107367926
85,1.42907823703159230539405940530847
86,1.43143547758284234794841704737723
87,1.43376541822207858611260728605006
88,1.43606868441134239442366951339420
89,1.43834588035251510008818524630798
90,1.44059758994041173636609350833846
91,1.44282437766304145366380773022730
92,1.44502678945251082673218442726446
93,1.44720535348978404130932548395806
94,1.44936058096627101480997974247217
95,1.45149296680499335163439449696442
96,1.45360299034387621155288638857481
97,1.45569111598352982751299070290464
98,1.45775779380171153492104707027656
99,1.45980346013650570226129760167513
100,1.46182853814011261249915639278037
101,1.46383343830500804056109687048694
102,1.46581855896410969746237939103138
103,1.46778428676647879804092354458893
104,1.46973099712997774454550883803954
105,1.47165905467221184456913893737121
106,1.47356881362099221757509907699449
107,1.47546061820547896230763813940490
108,1.47733480302908441782480700672263
109,1.47919169342514775735700467616478
110,1.48103160579632973406951055924008
111,1.48285484793861053660894945097490
112,1.48466171935072427868009641638866
113,1.48645251152980811110534558864345
114,1.48822750825399518706294709707962
115,1.48998698585264026269736415405630
116,1.49173121346481838364716141660014
117,1.49346045328670539502888552312529
118,1.49517496080840798130982478757977
119,1.49687498504077722878646877571132
120,1.49856076873271386115039600932575
121,1.50023254857943503137897779346387
122,1.50189055542215364005578884173429
123,1.50353501443958895729342841047629
124,1.50516614533170964562288509539606
125,1.50678416249608071495054836790831
126,1.50838927519717074338634760622445
127,1.50998168772895511986014141625634
128,1.51156159957112847725369245317984
129,1.51312920553922741153736213234047
130,1.51468469592894620053347319773725
131,1.51622825665491283181022449886158
132,1.51776006938417767200948382322596
133,1.51928031166465532832722561380142
134,1.52078915704874897690740674368385
135,1.52228677521236832456703679474582
136,1.52377333206954868273983033006929
137,1.52524898988286532458273634130279
138,1.52671390736982368419853034513915
139,1.52816823980540385102252915728505
140,1.52961213912092236645286166619726
141,1.53104575399936977231405341721327
142,1.53246922996737428747651133398063
143,1.53388270948393333878533746540127
144,1.53528633202604749281486081477973
145,1.53668023417138714720617475995007
146,1.53806454967811447159416283953190
147,1.53943940956197488516457601167315
148,1.54080494217077339984818350604442
149,1.54216127325633763008507846521176
150,1.54350852604407111001464981218569
151,1.54484682130019283232364800057488
152,1.54617627739675330789933284146504
153,1.54749701037451609595871268683381
154,1.54880913400378870387258854415032
155,1.55011275984328109265344578284038
156,1.55140799729706965444644663749380
157,1.55269495366973770860219695676120
158,1.55397373421976433440815763269989
159,1.5552444422112252132871914299144
160,1.5565071789638718179762403616650
161,1.5577620439016474447793882909611
162,1.5590091345996995499700166131259
163,1.5602485468299432436143922801212
164,1.5614803746052305773855630337415
165,1.5627047102221742265582521903085
166,1.5639216443026760817469396022578
167,1.5651312658342079826800593299449
168,1.5663336622088872828974903517114
169,1.5675289192613923074351334916272
170,1.5687171213057574465862152464362
171,1.5698983511710880801733626092952
172,1.5710726902362331989631727961996
173,1.5722402184634511255275873930648
174,1.5734010144311041780397508360361
175,1.5745551553654162619111736422224
176,1.5757027171713230955965112161079
177,1.5768437744624483310773540515225
178,1.5779784005902347233949098336117
179,1.5791066676722567941511550554950
180,1.5802286466197459353512754436183
181,1.5813444071643506021472514963918
182,1.5824540178841592898418046652590
183,1.5835575462290093444005960913138
184,1.5846550585451058479823110316634
185,1.5857466200989723875841291403319
186,1.5868322951007546753950914002438
187,1.5879121467269008213291006458023
188,1.5889862371422336940251726458572
189,1.5900546275214391013763776891219
190,1.5911173780699854416355734308321
191,1.5921745480444940476198853344651
192,1.5932261957725766061866179539070
193,1.5942723786721579567972129712388
194,1.5953131532702976099206147100946
195,1.5963485752215279176024290704120
196,1.5973786993257225880673539040764
197,1.5984035795455099196426634163929
198,1.5994232690232449159486953870528
199,1.6004378200975531161766451266760
200,1.6014472843194600806195137643330
201,1.6024517124681175078395957160490
202,1.6034511545661393595894113874599
203,1.6044456598945586481723893363012
204,1.6054352770074165011104956241986
205,1.6064200537459934684355004934952
206,1.6074000372526960913063030142574
207,1.6083752739846046025828964116735
208,1.6093458097266959807670031835362
209,1.6103116896047481001422900223386
210,1.6112729580979364727186609799410
211,1.6122296590511309409425219318724
212,1.6131818356869025483006488054585
213,1.6141295306172449657113695336685
214,1.6150727858550254493922108827209
215,1.6160116428251645364343321432999
216,1.6169461423755584325404305546106
217,1.6178763247877480509670452029208
218,1.6188022297873436751204073614746
219,1.6197238965542085177406671614563
220,1.6206413637324136848010516492456
221,1.6215546694399624464112645602202
222,1.6224638512783010120885731697973
223,1.6233689463416093712273927585360
224,1.6242699912258872580638749041894
225,1.6251670220378377976772352713041
226,1.6260600744035523709671132437533
227,1.6269491834770053414522784846632
228,1.6278343839483604540888971049212
229,1.6287157100520960582506153392913
230,1.6295931955749538411053539153922
231,1.6304668738637128606507186365030
232,1.6313367778327992873192406483059
233,1.6322029399717268396491581232273
234,1.6330653923523840600773557981991
235,1.6339241666361616019449217926121
236,1.6347792940809292264746636830290
237,1.6356308055478661298378441146514
238,1.6364787315081463313114495432886
239,1.6373231020494845580958483641304
240,1.6381639468825447801996702622235
241,1.6390012953472156767291372384377
242,1.6398351764187558895209218313932
243,1.6406656187138130948805440992281
244,1.6414926504963185816499275566834
245,1.6423162996832617087033302837618
246,1.6431365938503467604272787497733
247,1.6439535602375335819568020590454
248,1.6447672257544695747107443331737
249,1.6455776169858080207283660171472
250,1.6463847601964231199160448092697
251,1.6471886813365196396182383402321
252,1.6479894060466399744155075983337
253,1.6487869596625736877551156748772
254,1.6495813672201691916746390589762
255,1.6503726534600514440501638556106
256,1.6511608428322457481396150942564
257,1.6519459595007140451680805745525
258,1.6527280273478001440172477282128
259,1.6535070699785906908727915317515
260,1.6542831107251922645373982634873
261,1.6550561726509249104701711678962
262,1.6558262785544368382880916021829
263,1.6565934509737391326197567953829
264,1.6573577121901659274733993454621
265,1.6581190842322585686553759674849
266,1.6588775888795759312801079099927
267,1.6596332476664341049127568392884
268,1.6603860818855754793523854398788
269,1.6611361125917715002637558987057
270,1.6618833606053548180913533675314
271,1.6626278465156901135011782952323
272,1.6633695906845775782036445675641
273,1.6641086132495964935611560250883
274,1.6648449341273861152873331136239
275,1.6655785730168677391065278071093
276,1.6663095494024062250154211221272
277,1.6670378825569184634500787946399
278,1.6677635915449205372953008175972
279,1.6684866952255250821949843014206
280,1.6692072122553809380222356930110
281,1.6699251610915629803267078177363
282,1.6706405599944096280210979456268
283,1.6713534270303112397474578511867
284,1.6720637800744465554522741224108
285,1.6727716368134739904262016836493
286,1.6734770147481738065472918597627
287,1.6741799311960462200143001340917
288,1.6748804032938618473407422010134
289,1.6755784480001691376691120523766
290,1.6762740820977595239273635331437
291,1.6769673221960881337640620476480
292,1.6776581847336529451640231377145
293,1.6783466859803362925144869254533
294,1.6790328420397037600334035007008
295,1.6797166688512625496996051978903
296,1.6803981821926869092423673968331
297,1.6810773976820005519109111884984
298,1.6817543307797253847723233484656
299,1.6824289967909933483901245486369
300,1.6831014108676231184834989255796
301,1.6837715880101620810002685711715
302,1.6844395430698956735306922388720
303,1.6851052907508212661866023801424
304,1.6857688456115901594701740159286
305,1.6864302220674191276550955741384
306,1.6870894343919707708945782826488
307,1.6877464967191998580267563083846
308,1.6884014230451731385215553559370
309,1.6890542272298587128511254248485
310,1.6897049229988852964469844853033
311,1.6903535239452749721635916266585
312,1.6910000435311469443987090231463
313,1.6916444950893936876358083764556
314,1.6922868918253312937007804423858
315,1.6929272468183233373937742302095
316,1.6935655730233796361568245362067
317,1.6942018832727274424003519166605
318,1.6948361902773604197533336523340
319,1.6954685066285625448175275581590
320,1.6960988447994069357043725085800
321,1.6967272171462335263081346783848
322,1.6973536359101017007670901136074
323,1.6979781132182214021718490530813
324,1.6986006610853616926816255262736
325,1.6992212914152385270503481841767
326,1.6998400160018799768111020684564
327,1.7004568465309717258952713947678
328,1.7010717945811800269043840826676
329,1.7016848716254570929143359859071
330,1.7022960890323253565019847903243
331,1.7029054580671420345924163238773
332,1.7035129898933450603753486353522
333,1.7041186955736807608509367170591
334,1.7047225860714114640356671050462
335,1.7053246722515073507670109335803
336,1.7059249648818186091655002662751
337,1.7065234746342307640075428545148
338,1.7071202120858042398689391754787
339,1.7077151877198942225533218927373
340,1.7083084119272569101552297087459
341,1.7088998950071378673435647424543
342,1.7094896471683449800246323254017
343,1.7100776785303056481829770804519
344,1.7106639991241082106175256794777
345,1.7112486188935294209179348005631
346,1.7118315476960454494862892724340
347,1.7124127953038299769747704560103
348,1.7129923714047361908748772216264
349,1.7135702856032662301951022918199
350,1.7141465474215256205807147772538
351,1.7147211663001647874926526668168
352,1.7152941515993073298247870805361
353,1.7158655125994643383526558185224
354,1.7164352585024361735054391964675
355,1.7170033984322020677605579448404
356,1.7175699414357957624674526035527
357,1.7181348964841704181618668501350
358,1.7186982724730520423960792934799
359,1.7192600782237771802501823602508
360,1.7198203224841238054682571774982
361,1.7203790139291271571161779362281
362,1.7209361611618870033886606344297
363,1.7214917727143609282072119147963
364,1.7220458570481486646321072067459
365,1.7225984225552657114865962987176
366,1.7231494775589051108938720502316
367,1.7236990303141902787690473507611
368,1.7242470890089156770295350163254
369,1.7247936617642799601021034314369
370,1.7253387566356073089378347004608
371,1.7258823816130598058797081709469
372,1.7264245446223398068991645001738
373,1.7269652535253822779551491701231
374,1.7275045161210414039936933288049
375,1.7280423401457621621970902693091
376,1.7285787332742483157389098463784
377,1.7291137031201186172970137349604
378,1.7296472572365543897771224882778
379,1.7301794031169403240916569616423
380,1.7307101481954952508025789984968
381,1.7312394998478957611081758735821
382,1.7317674653918897953882047379927
383,1.7322940520879048740157538389722
384,1.7328192671396459341822522437555
385,1.7333431176946863940384830885078
386,1.7338656108450531028510844537865
387,1.7343867536278009265596045273392
388,1.7349065530255809055802806912848
389,1.7354250159672026595910803810603
390,1.7359421493281882284530993897251
391,1.7364579599313176662568764863937
392,1.7369724545471699969220390027179
393,1.7374856398946570048848683352282
394,1.7379975226415484420226825074331
395,1.7385081094049915077383151749288
396,1.7390174067520242531244913734696
397,1.7395254212000825391691654406826
398,1.7400321592175005571893336367574
399,1.7405376272240034773396385224644
400,1.7410418315911965252089314994050
401,1.7415447786430465354806530585938
402,1.7420464746563567279312369330721
403,1.7425469258612375265649975317653
404,1.7430461384415713150350430063020
405,1.7435441185354685938558090337774
406,1.7440408722357216485043207272957
407,1.7445364055902528451932727567265
408,1.7450307246025550575739142183465
409,1.7455238352321270855119517236451
410,1.7460157433949065804818502742056
411,1.7465064549636947376646855008956
412,1.7469959757685763374098566228137
413,1.7474843115973362151894955896063
414,1.7479714681958685839656308121624
415,1.7484574512685834930045066867501
416,1.7489422664788068528468098238888
417,1.7494259194491768749979733331335
418,1.7499084157620340896517677663660
419,1.7503897609598092200412166634668
420,1.7508699605454038954176971735940
421,1.7513490199825681549256025960988
422,1.7518269446962740240605468923021
423,1.7523037400730829999368715723680
424,1.7527794114615110591764249450718
425,1.7532539641723875678683511821644
426,1.7537274034792117005310715855077
427,1.7541997346185038527980183688706
428,1.7546709627901520616097805328050
429,1.7551410931577573453944419451248
430,1.7556101308489708264407746234034
431,1.7560780809558301392141878879560
432,1.7565449485350922742340306263037
433,1.7570107386085581955078646308308
434,1.7574754561634003295656089740990
435,1.7579391061524807498717599764646
436,1.7584016934946679577142918326261
437,1.7588632230751504210487738252106
438,1.7593236997457458534714936303324
439,1.7597831283252069147398912415851
440,1.7602415135995244041674144129412
441,1.7606988603222251068630143828477
442,1.7611551732146678565793459019066
443,1.7616104569663374629856821834160
444,1.7620647162351311228585424014658
445,1.7625179556476466459757934473369
446,1.7629701797994635201868083161730
447,1.7634213932554239849586038247275
448,1.7638716005499073317308095382415
449,1.7643208061871052717168299878653
450,1.7647690146412905237283951208798
451,1.7652162303570861252566487299759
452,1.7656624577497283082994962919029
453,1.7661077012053286831493990566088
454,1.7665519650811321192374125271376
455,1.7669952537057739470549920585284
456,1.7674375713795317783029598776345
457,1.7678789223745766401302227535783
458,1.7683193109352198195165808909075
459,1.7687587412781579318818733376386
460,1.7691972175927158564322942293350
461,1.7696347440410853881307647738636
462,1.7700713247585628195151123653144
463,1.7705069638537840563047008241580
464,1.7709416654089554278801536765956
465,1.7713754334800841615503539858667
466,1.7718082720972056514869296806336
467,1.7722401852646068030293347796970
468,1.7726711769610504681911593139660
469,1.7731012511399934492611638147055
470,1.7735304117298055952338425611014
471,1.7739586626339842583816677006135
472,1.7743860077313684087851923826952
473,1.7748124508763477579340586860735
474,1.7752379958990743956048987340520
475,1.7756626466056658629921841426763
476,1.7760864067784121761170059504489
477,1.7765092801759771327386137829829
478,1.7769312705335985789880455984615
479,1.7773523815632865253429169749681
480,1.7777726169540195067645629843842
481,1.7781919803719377381169110202288
482,1.7786104754605366339043214910999
483,1.7790281058408560725776653210719
484,1.7794448751116682254227424503181
485,1.7798607868496654271722540253799
486,1.7802758446096426733999891608956
487,1.7806900519246815937567221384487
488,1.7811034123063304978106316425226
489,1.7815159292447837218775252196663
490,1.7819276062090581401744843565981
491,1.7823384466471689747931747255519
492,1.7827484539863034928972953406613
493,1.7831576316329925663735127462450
494,1.7835659829732811882043940439843
495,1.7839735113728961382891815299363
496,1.7843802201774140433712040886888
497,1.7847861127124255168327530529707
498,1.7851911922836993238581182291526
499,1.7855954621773440695378466317628
500,1.785998925659969540641603144852
501,1.786401585978843447336720545899
502,1.786803446362051020268756603661
503,1.787204510018648931378061708955
504,1.787604780138821382538289583525
505,1.788004259894031209735937597355
506,1.788402952437171733139409746989
507,1.788800860902717201350353247337
508,1.789197988406871470064817343099
509,1.789594338047713146313396029131
510,1.789989912905343251798572289426
511,1.790384716042028636696893046733
512,1.790778750502345044420444159916
513,1.791172019313318443383696380735
514,1.791564525484565302556799033234
515,1.791956272008432185434654744498
516,1.792347261860132873152304585395
517,1.792737497997884091890228726559
518,1.793126983363041630373593033131
519,1.793515720880233629838209157032
520,1.793903713457493903910395141950
521,1.794290963986392084086039849779
522,1.794677475342164867475466970687
523,1.795063250383844804459158300061
