Eigenstate,Potential Energy
1,0.500000000013626656346816826130246639
2,0.64623093774006232036626512482110488
3,0.73633760996625212155640481827206260
4,0.79966527835844744916164706210635599
5,0.8480465762283656667391963322973783
6,0.8870659983289686517926641228796487
7,0.9197208260976283464266044966979790
8,0.9477838459108743937000456545860443
9,0.9723835567747478442236100188171892
10,0.9942802128376723362510228920142818
11,1.0140093842405871389486565802483257
12,1.0319621662880502107743309504690605
13,1.0484326890458144425326169687996341
14,1.0636476501969802334996751632291321
15,1.0777854308561749754656345049045465
16,1.090988900439994792328152640588488
17,1.103374250128506811679643210442341
18,1.115037243871447331202074689769352
19,1.126057741492198610619439559593232
20,1.136503036321724777381167098306011
21,1.146430361280268647543996659708906
22,1.155888800036091615476480967916399
23,1.164920764941998139704119878556549
24,1.173563154435757782213246218475518
25,1.181848269836031514091980757332962
26,1.189804549149959403859406467495159
27,1.197457160035736407514660724481835
28,1.204828483161652172824150122293240
29,1.211938509408042950652722854607705
30,1.218805168709116138098035810958732
31,1.225444604185669478996704837177663
32,1.231871402141827363288536446245657
33,1.238098786189268863070897862172073
34,1.244138782011875877380630948555336
35,1.250002357944534692323253589400353
36,1.255699545506345384843751935930577
37,1.261239543224408950096118417674336
38,1.266630806453943289371653486627744
39,1.271881125402630546143626805815511
40,1.276997693171277494333552464490563
41,1.281987165306120409258382514304330
42,1.286855712103113250273393995475929
43,1.291609064698051639258973917563275
44,1.296252555808291103636347275111050
45,1.300791155854248483634176564682024
46,1.305229505075739120962763284329256
47,1.309571942164725833744764237686977
48,1.313822529858469318322991564828990
49,1.317985077872407074685979667603731
50,1.32206316349796523861265544266775
51,1.32606015014504074117663858178171
52,1.32997920407054600196114178802010
53,1.33382330950195824379771044001872
54,1.33759528233725438539290109583364
55,1.34129778257913697570109973732404
56,1.34493332564138206378157069150002
57,1.34850429264794093276313302461507
58,1.35201293983063044025258010936936
59,1.35546140711849276025102426123460
60,1.35885172600088081394276717274894
61,1.36218582673676144921908750007607
62,1.36546554497442742368787694465672
63,1.36869262783856735690126522106459
64,1.37186873953533033761280528989922
65,1.37499546652048703190423308183772
66,1.37807432227094179896894176657501
67,1.38110675169558803001443449009230
68,1.38409413521774276493835470997474
69,1.38703779255808397070659389261752
70,1.38993898624408559709871545820617
71,1.39279892486934682175519210120830
72,1.39561876612391365408178742353007
73,1.39839961961463806116319498648252
74,1.40114254949280093028573753599996
75,1.40384857690459408156617369156403
76,1.40651868227860698742871678982538
77,1.40915380746316145725447224936870
78,1.41175485772517174734750788625732
79,1.41432270362116073636968622395039
80,1.41685818275012468075212055565771
81,1.41936210139708972311458629171213
82,1.42183523607544187617083428615212
83,1.42427833497542347080818370890451
84,1.42669211932556476531371176679131
85,1.42907728467326013654571921553672
86,1.43143450209018240845993354009335
87,1.43376441930777140260002744987084
88,1.43606766178760941742642309760228
89,1.43834483373111284119587496412553
90,1.44059651903262588637505732095809
91,1.44282328217968098152073673404104
92,1.44502566910390205901999678066337
93,1.44720420798576472202836982850729
94,1.44935941001618434520564398700969
95,1.45149177011768200982010773363444
96,1.45360176762767635167561562000627
97,1.45568986694626505820619846674557
98,1.45775651815068687678832437927504
99,1.45980215757850152413171191758541
100,1.46182720838137854619362152286442
101,1.46383208105125687390700250858138
102,1.46581717392051124529184801312173
103,1.46778287363765375090622734745540
104,1.46972955561999149488301645226095
105,1.47165758448456829004151681446153
106,1.47356731445862754131938841236195
107,1.47545908977075538981494678052495
108,1.47733324502378395017546978979302
109,1.47919010555046588053300184635233
110,1.48102998775286910406410161513008
111,1.48285319942637464005143660496538
112,1.48466004006911106869166802368400
113,1.48645080117760361809999594741151
114,1.48822576652936710420538700203416
115,1.48998521245313150572793873433782
116,1.49172940808734062478162095898625
117,1.49345861562753257063886315319324
118,1.49517309056316977308788185119384
119,1.49687308190445251809737058362825
120,1.49855883239962415626815309065667
121,1.50023057874323786730720583637644
122,1.50188855177583595062665857567490
123,1.50353297667546041923838089147482
124,1.50516407314139599430610297652728
125,1.50678205557051703145391518074654
126,1.50838713322659471263242392962191
127,1.50997951040290025945745301738656
128,1.51155938657841733674627898657603
129,1.51312695656796474173829976842973
130,1.51468241066651209261974971302332
131,1.51622593478795582585400613940109
132,1.51775771059860783461821479574380
133,1.51927791564563729906308964426019
134,1.52078672348069498315372782940346
135,1.52228430377893116450693631598658
136,1.52377082245361467611017082961065
137,1.52524644176654723086351664957744
138,1.52671132043445358789565612745930
139,1.52816561373152601369907219546751
140,1.52960947358828604516148842199636
141,1.53104304868692200408063784695682
142,1.53246648455325263948226138186201
143,1.53387992364545862389207844730009
144,1.53528350543971645007535311307126
145,1.53667736651286508699872434199706
146,1.53806164062222788501790747414622
147,1.53943645878270401732894922436157
148,1.54080194934124478668739271950597
149,1.54215823804881659832533022494329
150,1.54350544812995423991927057982755
151,1.54484370035000038283781081477214
152,1.54617311308012160381359481645982
153,1.54749380236018987670727002897000
154,1.54880588195961343357925430835130
155,1.55010946343619523103521290648523
156,1.55140465619309688818120659249724
157,1.55269156753397914276438044269358
158,1.55397030271639064357256697752353
159,1.5552409650034687518982104605281
160,1.5565036557140186895763019983606
161,1.5577584742710295296872284390211
162,1.5590055182486864909958357197157
163,1.5602448834179343893960652309102
164,1.5614766637906468829260066184977
165,1.5627009516624501105409139107088
166,1.5639178376542512402029561617211
167,1.5651274107525191585769671956083
168,1.5663297583483599912156353111968
169,1.5675249662754325152946600334875
170,1.5687131188467432079833929036132
171,1.5698942988903611248816847250624
172,1.5710685877840904751506817308866
173,1.5722360654891362956381628736765
174,1.5733968105827990674822474636452
175,1.5745509002902322600962707162636
176,1.5756984105152925088574108319965
177,1.5768394158705156870063359273384
178,1.5779739897062480261237465869129
179,1.5791022041389587300993785127160
180,1.5802241300787650289620223093446
181,1.5813398372561923211263640960329
182,1.5824493942481970994116354689216
183,1.5835528685034757100755702981391
184,1.5846503263670831863691854138365
185,1.5857418331043839647051350602966
186,1.5868274529243554520283499789140
187,1.5879072490022682448555305689430
188,1.5889812835017584362670663638633
189,1.5900496175963157419079936236219
190,1.5911123114902030960415598207109
191,1.5921694244388269401726851224835
192,1.5932210147685745864090512876804
193,1.5942671398961369593719719605018
194,1.5953078563473300574032248100071
195,1.5963432197754330653895221642354
196,1.5973732849790568110669934735677
197,1.5983981059195569400885312797579
198,1.5994177357380059717948491294489
199,1.6004322267717370695042828050166
200,1.6014416305704734654820205919755
201,1.6024459979120545169671747052148
202,1.6034453788177717693685752889203
203,1.6044398225673256813110010142615
204,1.6054293777134146263928913176664
205,1.6064140920959661369672561886160
206,1.6073940128560234086421909793849
207,1.6083691864492929361261642937177
208,1.6093396586593675018222438262422
209,1.6103054746106302599984508421977
210,1.6112666787808514121328452195923
211,1.6122233150134848323893530289151
212,1.6131754265296748703459752988512
213,1.6141230559399777088628305243330
214,1.6150662452558122527732279162286
215,1.6160050359006397546219051531429
216,1.6169394687208861319005309033724
217,1.6178695839966109348154026566046
218,1.6187954214519319370297965426313
219,1.6197170202652086223093220229032
220,1.6206344190789970751904243508706
221,1.6215476560097741779540682737138
222,1.6224567686574483112622177970750
223,1.6233617941146501192802720895610
224,1.6242627689758183985755572021732
225,1.6251597293460836673261627151413
226,1.6260527108499529527726875891519
227,1.6269417486398044397509315372090
228,1.6278268774041937904964259831566
229,1.6287081313759792878555884541213
230,1.6295855443402704881313692870180
231,1.6304591496422021728172715501441
232,1.6313289801945440081237860791019
233,1.6321950684851408977848772747911
234,1.6330574465842001751933979982449
235,1.6339161461514188059483219081470
236,1.6347711984429602995647175695926
237,1.6356226343182849504558340134352
238,1.6364704842468351391804348636219
239,1.6373147783145811295169930668104
240,1.6381555462304295147627922935628
241,1.6389928173324985945872071157263
242,1.6398266205942635383695616714294
243,1.6406569846305753657742900710182
244,1.6414839377035554327790851810238
245,1.6423075077283697962457716328782
246,1.6431277222788859755802750517248
247,1.6439446085932134932457658678057
248,1.6447581935791357746614406181080
249,1.6455685038194283759806881878103
250,1.6463755655770739238473045089642
251,1.6471794048003716665346952598387
252,1.6479800471279444343609685335195
253,1.6487775178936480809759026535839
254,1.6495718421313830617696542811135
255,1.6503630445798120288255635242409
256,1.6511511496869835271764687276335
257,1.6519361816148681831017823048345
258,1.6527181642438038285167024838405
259,1.6534971211768563642968139076501
260,1.6542730757440967482350738711198
261,1.6550460510067944206810308970641
262,1.6558160697615318925869086647201
263,1.6565831545442393458398828495400
264,1.6573473276341546960310540155673
265,1.6581086110577076421859231195909
266,1.6588670265923298704860363288651
267,1.6596225957701946245110044956850
268,1.6603753398818856749970404924757
269,1.6611252799799999583082456222133
270,1.6618724368826796070418980885921
271,1.6626168311770826560010378979094
272,1.6633584832227864023752378846455
273,1.6640974131551308625206409402804
274,1.6648336408884995336332829001643
275,1.6655671861195413351715648966070
276,1.6662980683303320076564055153983
277,1.6670263067914824521392576044042
278,1.6677519205651857642615917692312
279,1.6684749285082144653504694140247
280,1.6691953492748600233957263220010
281,1.6699132013198225527118969937466
282,1.6706285029010481885328110234826
283,1.6713412720825173489650834878269
284,1.6720515267369810408154670736923
285,1.6727592845486520165322004869781
286,1.6734645630158468069855633862807
287,1.6741673794535836893582807597241
288,1.6748677509961329919014572999769
289,1.6755656945995243835999536666148
290,1.6762612270440118812539405928342
291,1.6769543649364944148966485954056
292,1.6776451247128948364342854533616
293,1.6783335226405012772623833833912
294,1.6790195748202658917523645659162
295,1.6797032971890630737330851621658
296,1.6803847055219147315064840695549
297,1.6810638154341725531015732974307
298,1.6817406423836665784976044536811
299,1.6824152016728168816509415704185
300,1.6830875084507101129080534790967
301,1.6837575777151413132192575903032
302,1.6844254243146230930625446129939
303,1.6850910629503593491829261714925
304,1.6857545081781870966532870183564
305,1.6864157744104878447595989328328
306,1.6870748759180677799069457953671
307,1.6877318268320039374960746721201
308,1.6883866411454638411954931052347
309,1.6890393327154946988708819000725
310,1.6896899152647824903147249319924
311,1.6903384023833845416753629429519
312,1.6909848075304330997140132576690
313,1.6916291440358112986353750918512
314,1.6922714251018033237614790146810
315,1.6929116638047180916881944005267
316,1.6935498730964878225628457043712
317,1.6941860658062390430841606103177
318,1.6948202546418413714659074829873
319,1.6954524521914312259225081345671
320,1.6960826709249104579312472898376
321,1.6967109231954238292017065749920
322,1.6973372212408114467795854292958
323,1.6979615771850396703205593257742
324,1.6985840030396094686698106539242
325,1.6992045107049439877246505213573
326,1.6998231119717535668028985589755
327,1.7004398185223810242688300136119
328,1.7010546419321244016073773283593
329,1.7016675936705421408014133785311
330,1.7022786851027371266741036206533
331,1.7028879274906210327687438275693
332,1.7034953319941600319861801423436
333,1.7041009096726022505132301662843
334,1.7047046714856851490437869763204
335,1.7053066282948271462031503375764
336,1.7059067908642995422053503985837
337,1.7065051698623816149671266897283
338,1.7071017758624999475087095676556
339,1.7076966193443480511261968845657
340,1.7082897106949923756535510443953
341,1.7088810602099604203696463632461
342,1.7094706780943134426776156003575
343,1.7100585744637034023233171490615
344,1.7106447593454141348376659466469
345,1.7112292426793885735147744641235
346,1.7118120343192394946982403908505
347,1.7123931440332473517120002752790
348,1.7129725815053420091371842905643
349,1.7135503563360719223373017967591
350,1.7141264780435583045497785558405
351,1.7147009560644363691255731062971
352,1.7152737997547833292596306829401
353,1.7158450183910324395683999060019
354,1.7164146211708744939689661434164
355,1.7169826172141471451217423356659
356,1.7175490155637102552040103411400
357,1.7181138251863105170373104011046
358,1.7186770549734345895549973793177
359,1.7192387137421464927336337009795
360,1.7197988102359181998929188503471
361,1.7203573531254451722187678286214
362,1.7209143510094533170953026447498
363,1.7214698124154919658452420317261
364,1.7220237458007178948588654773970
365,1.7225761595526686264652931165628
366,1.7231270619900238872029512074316
367,1.7236764613633581154865766350574
368,1.7242243658558808073873315867727
369,1.7247707835841693330594318755532
370,1.7253157225988899369763345611392
371,1.7258591908855097752741700947036
372,1.7264011963649989466699318447475
373,1.7269417468945224836587931130283
374,1.7274808502681266124587473785699
375,1.7280185142174099732612715095632
376,1.7285547464121912569925295653521
377,1.7290895544611650477846062893101
378,1.7296229459125490385574278565853
379,1.7301549282547244595018804210550
380,1.7306855089168664762178948522735
381,1.7312146952695674329322091382328
382,1.7317424946254500589546494143795
383,1.7322689142397753130231292243642
384,1.7327939613110398292269031597138
385,1.7333176429815665857510266155920
386,1.7338399663380894550827815596860
387,1.7343609384123273850036975875665
388,1.7348805661815521471523506939302
389,1.7353988565691503278296266009015
390,1.7359158164451767501377132322961
391,1.7364314526268996443783532706890
392,1.7369457718793411750710180372596
393,1.7374587809158107980614116230043
394,1.7379704863984300288002427950348
395,1.7384808949386514786475733304224
396,1.7389900130977718100528828377713
397,1.7394978473874382405009084970549
398,1.7400044042701486033396595568229
399,1.7405096901597435312633388911549
400,1.7410137114218950623894063688950
401,1.7415164743745877178307249395792
402,1.7420179852885927959602799986419
403,1.7425182503879387040896101200566
404,1.7430172758503752206311203768779
405,1.7435150678078291531706503411101
406,1.7440116323468575014651050236592
407,1.7445069755090952420661112767761
408,1.7450011032916952377438650121148
409,1.7454940216477631327686963453977
410,1.7459857364867897485088921313156
411,1.7464762536750752393428974041943
412,1.7469655790361485914553231464389
413,1.7474537183511835435563720363345
414,1.7479406773594073533500967487495
415,1.7484264617585066936939952155479
416,1.7489110772050271080628289022328
417,1.7493945293147688737833315173676
418,1.7498768236631764362557023456670
419,1.7503579657857256926536353742129
420,1.7508379611783041070041139347465
421,1.7513168152975876088107240598481
422,1.7517945335614135568019927375465
423,1.7522711213491476039246547205662
424,1.7527465840020480772854219997074
425,1.7532209268236242523802800869885
426,1.7536941550799921284301336219857
427,1.7541662740002251894307719711611
428,1.7546372887767001645829679728955
429,1.7551072045654417004680100639053
430,1.7555760264864588070516079927645
431,1.7560437596240805811472998982805
432,1.7565104090272883568299086695017
433,1.7569759797100396206723847910346
434,1.7574404766515947897186150988777
435,1.7579039047968346758416593998847
436,1.7583662690565765374524321186683
437,1.7588275743078868799028995279980
438,1.7592878253943899866214853664515
439,1.7597470271265728622588631381290
440,1.7602051842820876590301116012094
441,1.7606623016060487460786880657566
442,1.7611183838113279854803915577576
443,1.7615734355788478625541596973067
444,1.7620274615578670898218155321096
445,1.7624804663662680152457401690661
446,1.7629324545908368590637509680085
447,1.7633834307875439483595384015804
448,1.7638333994818171675386307674576
449,1.7642823651688164651833484441979
450,1.7647303323137015696959098860407
451,1.7651773053519004167913379735448
452,1.7656232886893711301554661233026
453,1.7660682867028632983065819374023
454,1.7665123037401749365753448996958
455,1.7669553441204087580411917850223
456,1.7673974121342230503894153717538
457,1.7678385120440818543602349077055
458,1.7682786480845008396510100724014
459,1.7687178244622913921598546303657
460,1.7691560453568025548769356333271
461,1.7695933149201586721112474551539
462,1.7700296372774959500655761181442
463,1.7704650165271965374923108207707
464,1.7708994567411182872980055324408
465,1.7713329619648241677927880015807
466,1.7717655362178084542423305468979
467,1.7721971834937189811988598148479
468,1.7726279077605804712116583816741
469,1.7730577129610114165731893541840
470,1.7734866030124420386005579928710
471,1.7739145818073275915172480616175
472,1.7743416532133613085050172569199
473,1.7747678210736823407856291355185
474,1.7751930892070861936828299963806
475,1.7756174614082265823759717839501
476,1.7760409414478212211061498357226
477,1.7764635330728518787863259161766
478,1.7768852400067633769583697539655
479,1.7773060659496604194344073066156
480,1.7777260145785026481567006768799
481,1.7781450895472964761025468042314
482,1.7785632944872872659726709563353
483,1.7789806330071472346103344278292
484,1.7793971086931619028552465105816
485,1.7798127251094165676570874413405
486,1.7802274857979773811892201950422
487,1.7806413942790738856912458627347
488,1.7810544540512776004725979814941
489,1.7814666685916798891212940833839
490,1.7818780413560669699057288443190
491,1.7822885757790942035123710827663
492,1.7826982752744582461640630434476
493,1.7831071432350670429831250386252
494,1.7835151830332087554921840815448
495,1.7839223980207178155992534978292
496,1.7843287915291413503359477270308
497,1.7847343668699016627154841403849
498,1.7851391273344587138066931110389
499,1.7855430761944701031856248542452
500,1.785946216701950678074423015466
501,1.786348552089427517012965269327
502,1.786750085570097743048352373735
503,1.787150820337980634367571449635
504,1.787550759568071876007620134371
505,1.787949906416492799899891123617
506,1.788348264020640343124825692323
507,1.788745835499335572187833210504
508,1.789142623952970413055535787118
509,1.789538632463650817618747990524
510,1.789933864095342419591144735657
511,1.790328321894011910689703611320
512,1.790722008887768037060359960885
513,1.791114928087000831452161504896
514,1.791507082484519757369054431130
515,1.791898475055691139263236849970
516,1.792289108758573088924562877496
517,1.792678986534049002622620750988
518,1.793068111305961414205031552379
519,1.793456485981242985913790278312
520,1.793844113450047493740995963418
521,1.794230996585877602371060623439
522,1.794617138245713705728028950498
523,1.795002541270140270104198872820
