Eigenstate,Potential Energy
1,0.500000000212007606084243279675889545
2,0.64623093903499994945864426748333908
3,0.73633761377007331634168375734660195
4,0.79966528628150506641596662785459916
5,0.8480465899530150650954932967519585
6,0.8870660195671937135554535427108515
7,0.9197208565754566721651644443391688
8,0.9477838873619037036153247118464263
9,0.9723836109371595641539076912446585
10,0.9942802814527378185491651464833740
11,1.0140094690518765844580647012287957
12,1.0319622690409997135757913169056740
13,1.0484328114874880354741913658503217
14,1.0636477940759441949372149587819169
15,1.0777855979224398995977026475481530
16,1.090989092445000264389315257487819
17,1.103374468825133836701919585743035
18,1.115037491014049415157725071817442
19,1.126058018836645730952096922758027
20,1.136503345625456487118219461089284
21,1.146430704302353802183182650401062
22,1.155889178537293005789802853222922
23,1.164921180684840832658251661384675
24,1.173563609184600319234588051057800
25,1.181848765357139352675900032251098
26,1.189805087211580153076169058430138
27,1.197457742408176524270485820105830
28,1.204829111617354869220671828275896
29,1.211939185721667123571868073402338
30,1.218805894657616176979600131529557
31,1.225445381548375841259771319569490
32,1.231872232700527832135730322732979
33,1.238099671728290421715345934030100
34,1.244139724318167148613167265164790
35,1.250003358807748903912670462166481
36,1.255700606718923830347897350868565
37,1.261240666581664921852216064199260
38,1.266631993754146466169977051195007
39,1.271882378447091822699245553957993
40,1.276999013764434243403957838400239
41,1.281988555255622170298611741573733
42,1.286857173219907841019584606684421
43,1.291610598796471688697127283782435
44,1.296254164706141006531783230122862
45,1.300792841372891778237037718090037
46,1.305231269040186292719002829418916
47,1.309573786403722548872012242503027
48,1.313824456204585091991401590235906
49,1.317987088162124379301357140121849
50,1.32206525957176905835509006200664
51,1.32606233384750857952061026344303
52,1.32998147725043834940581298513524
53,1.33382567401230951348135679698067
54,1.33759774003546432466278386369539
55,1.34130033532706256206695507797080
56,1.34493597530542989400424946730035
57,1.34850704109916011412475751225709
58,1.35201578894480599332675119720117
59,1.35546435877623954274237802318739
60,1.35885478208773797540062283632476
61,1.36218898914328742665076206995745
62,1.36546881559629548830683910768896
63,1.36869600857666172244467130307930
64,1.37187223229584284085445730629242
65,1.37499907321501439617450875555038
66,1.37807804481658349167226409564569
67,1.38111059201504472531032577966724
68,1.38409809523941542292352241301493
69,1.38704187421617354460574457830153
70,1.38994319147869338013715504573206
71,1.39280325562657544555401448672020
72,1.39562322435596875057971931414380
73,1.39840420727993060023531384460418
74,1.40114726855605024539283085152602
75,1.40385342933693159593470073876548
76,1.40652367005768065342599768300345
77,1.40915893257324092179176177612051
78,1.41176012215725425631146128850459
79,1.41432810937307779125291609073822
80,1.41686373182664946082434452642289
81,1.41936779581004528665069996379209
82,1.42184107784381015442722671108259
83,1.42428432612545506861707318462801
84,1.42669826189088958234614016457526
85,1.42908358069499882347698091912837
86,1.43144095361705867245736880108299
87,1.43377102839622517674275932699439
88,1.43607443050191090885824021887767
89,1.43835176414347747300826526903947
90,1.44060361322333014841579235146258
91,1.44283054223717920552610356416667
92,1.44503309712494413367402678231371
93,1.44721180607551476376214228284435
94,1.44936718028834034076275926630815
95,1.45149971469459644683152672172139
96,1.45360988864047785370787669109020
97,1.45569816653498104097277889051749
98,1.45776499846436724244210185861311
99,1.45981082077534341079144206359709
100,1.46183605662885215009403567899121
101,1.46384111652623236180569404870594
102,1.46582639880938677501253899958552
103,1.46779229013648461814964073703970
104,1.46973916593462042469445493499017
105,1.47166739083075689158418012178005
106,1.47357731906218894487024776950989
107,1.47546929486768808517100606649398
108,1.47734365286040684593557488542976
109,1.47920071838355460400286383799530
110,1.48104080784979356181964606522412
111,1.48286422906523785948917537037583
112,1.48467128153888934119420722961966
113,1.48646225677828796474942816402273
114,1.48823743857210608528850698434712
115,1.48999710326037539559429204241168
116,1.49174151999298697393879785065866
117,1.49347095097707317729854423074586
118,1.49518565171383908671318306846097
119,1.49688587122537749784388727292404
120,1.49857185227197560756116461170796
121,1.50024383156038328015413680833851
122,1.50190203994349386362662599049094
123,1.50354670261185633362222696091835
124,1.50517803927741986271752039955002
125,1.50679626434988234656856018009885
126,1.50840158710599922110499408372934
127,1.50999421185218832708728061991079
128,1.51157433808074399116222606494462
129,1.51314216061996141931955171093682
130,1.51469786977845411679589325597521
131,1.51624165148393164436127833097291
132,1.51777368741669004373297513086314
133,1.51929415513805548328281165542485
134,1.52080322821401039925966238793886
135,1.52230107633421329941092495876709
136,1.52378786542661970836810809714435
137,1.52526375776789842622845262595756
138,1.52672891208982365978116946873144
139,1.52818348368182147993415120940129
140,1.52962762448983361293894669696831
141,1.53106148321165701552874954937067
142,1.53248520538890961083347026385675
143,1.53389893349576391177376756669707
144,1.53530280702458307901154558220584
145,1.53669696256858977278621643716281
146,1.53808153390169028922902850496118
147,1.53945665205556826879100931437623
148,1.54082244539416330640063182524762
149,1.54217903968563626490671706959073
150,1.54352655817192493329433916152660
151,1.54486512163598594455601542800941
152,1.54619484846681325302434451562668
153,1.54751585472232212151305171119240
154,1.54882825419018251817335962352832
155,1.55013215844668015973860702217613
156,1.55142767691368306821497817367766
157,1.55271491691378468832910614571418
158,1.55399398372369538456020109267458
159,1.5552649806259459913275565304990
160,1.5565280089589697546296764737024
161,1.5577831681656211620252210467280
162,1.5590305558401911228462771612060
163,1.5602702677739733527465721374969
164,1.5615023979994366000049709493269
165,1.5627270388330513146426785422269
166,1.5639442809168212768016259408678
167,1.5651542132585674175841861117016
168,1.5663569232710065221663606752950
169,1.5675524968096698781932578793776
170,1.5687410182097016135133377646427
171,1.5699225703215769186712089895113
172,1.5710972345457780218002302059212
173,1.5722650908664633192488015836588
174,1.5734262178841655064823051312112
175,1.5745806928475526952429585019899
176,1.5757285916842822243938990848830
177,1.5768699890309804260839337056505
178,1.5780049582623775027511468110392
179,1.5791335715196239610598594001229
180,1.5802558997378195503455162447403
181,1.5813720126727773553536164445888
182,1.5824819789270507398878500129805
183,1.5835858659752461918986944155718
184,1.5846837401886463128338003031120
185,1.5857756668591647606902501584786
186,1.5868617102226541167316758948042
187,1.5879419334815904777467374946457
188,1.5890163988271502115712029825793
189,1.5900851674607026084023681141086
190,1.5911482996147340804557398513112
191,1.5922058545732231340217536333954
192,1.5932578906914824976657091125768
193,1.5943044654154867119957589213616
194,1.5953456353006985233935422296158
195,1.5963814560304120157170486059999
196,1.5974119824336261735645991558531
197,1.5984372685024632541498057403089
198,1.5994573674091461315352596304839
199,1.6004723315225474488924424548518
200,1.6014822124243245208396205681516
201,1.6024870609246509641755755155903
202,1.6034869270775584351059354779780
203,1.6044818601958991296711379471951
204,1.6054719088659406643197332412306
205,1.6064571209616033040650295989315
206,1.6074375436583525591028229231370
207,1.6084132234467530227465467650796
208,1.6093842061456976743684251448582
209,1.6103505369153183925172787788865
210,1.6113122602695891762055242878561
211,1.6122694200886294357773390137360
212,1.6132220596307175829957216602806
213,1.6141702215440193008122806757987
214,1.6151139478780454711396336082360
215,1.6160532800948389695576371721130
216,1.6169882590799042841732887399678
217,1.6179189251528839205065126461591
218,1.6188453180779905677556563295762
219,1.6197674770741983023531797876893
220,1.6206854408252053399850529523636
221,1.6215992474891662414904082810832
222,1.6225089347082107732097456803007
223,1.6234145396177429858954692828669
224,1.6243160988555355748503839277766
225,1.6252136485706220812899405961535
226,1.6261072244319904764068239299753
227,1.6269968616370867746149258520428
228,1.6278825949201304898970509593047
229,1.6287644585602490912167239245478
230,1.6296424863894361471478828181618
231,1.6305167118003349530047533893977
232,1.6313871677538580535063171629702
233,1.6322538867866376507020945116570
234,1.6331169010183230475589617973167
235,1.6339762421587183027525828803591
236,1.6348319415147697999961950525520
237,1.6356840299974073567186303346031
238,1.6365325381282406079064071902116
239,1.6373774960461161056276328977871
240,1.6382189335135372927205339581473
241,1.6390568799229516371950743023446
242,1.6398913643029077886385896137878
243,1.6407224153240867928855138044606
244,1.6415500613052090588166412684339
245,1.6423743302188214561850015837680
246,1.6431952496969670689810019392620
247,1.6440128470367389922225418488486
248,1.6448271492057257590001443325645
249,1.6456381828473433727364262036255
250,1.6464459742860643354007016311278
251,1.6472505495325415779195866667216
252,1.6480519342886300976828469198632
253,1.6488501539523113819642894807455
254,1.6496452336225202809169994685400
255,1.6504371981038782171853721983765
256,1.6512260719113328247376649251487
257,1.6520118792747104157089230346186
258,1.6527946441431777275934245480556
259,1.6535743901896197621510858726148
260,1.6543511408149341104963847437591
261,1.6551249191522420864271715833457
262,1.6558957480710214020032407305831
263,1.6566636501811592447917592416534
264,1.6574286478369312167558540432253
265,1.6581907631409046694096964769819
266,1.6589500179477686126803641887884
267,1.6597064338680934207065103912415
268,1.6604600322720203785861891293863
269,1.6612108342928853506304857667383
270,1.6619588608307723052090420192500
271,1.6627041325560059914658172045316
272,1.6634466699125777591278178703402
273,1.6641864931215119765608415184019
274,1.6649236221841702685111092595472
275,1.6656580768854974619294771516171
276,1.6663898767972075314646040609280
277,1.6671190412809170422862725849706
278,1.6678455894912178589860973021173
279,1.6685695403787006382697971126228
280,1.6692909126929212140289857427628
281,1.6700097249853177798278400963909
282,1.6707259956120763817878672845480
283,1.6714397427369479515464763238742
284,1.6721509843340140536093550111709
285,1.6728597381904081726905928485058
286,1.6735660219089885846963426942411
287,1.6742698529109678901665706060712
288,1.6749712484384956320832256143998
289,1.6756702255571986668918415247466
290,1.6763668011586800427161161545186
291,1.6770609919629742478422854425135
292,1.6777528145209617372408218393690
293,1.6784422852167466665061017844583
294,1.6791294202699928944984548661888
295,1.6798142357382203669971294354400
296,1.6804967475190694929461929087896
297,1.6811769713525234718636335411444
298,1.6818549228230979169214342092796
299,1.6825306173619946052443630238150
300,1.6832040702492211356536397231169
301,1.6838752966156769359487183764047
302,1.6845443114452077443181180264481
303,1.6852111295766257707636782764606
304,1.6858757657056991499280584936464
305,1.6865382343871121488809081520430
306,1.6871985500363954293070882049528
307,1.6878567269318235835549665810200
308,1.6885127792162874617764861616952
309,1.6891667208991374195796581891600
310,1.6898185658579978628969799595540
311,1.6904683278405567279974752966390
312,1.6911160204663274543170086859264
313,1.6917616572283848889830070231318
314,1.6924052514950769750674697438479
315,1.6930468165117115926920614897548
316,1.6936863654022199798975284240443
317,1.6943239111707943249827810959014
318,1.6949594667035049366096538620562
319,1.6955930447698941902882759739432
320,1.6962246580245473116418275889142
321,1.6968543190086439767130513571932
322,1.6974820401514869073401498963893
323,1.6981078337720110416035541842725
324,1.6987317120802723249067259460434
325,1.6993536871789179546746584397795
326,1.6999737710646363895842771513503
327,1.7005919756295900205382930566276
328,1.7012083126628277719962332995827
329,1.7018227938516826909293178297735
330,1.7024354307831510406923021643669
331,1.7030462349452544273019357406208
332,1.7036552177283861117352598806939
333,1.7042623904266419827757893614942
334,1.7048677642391344741786180553663
335,1.7054713502712938447826820568822
336,1.7060731595361529874283839233045
337,1.7066732029556187510406106919123
338,1.7072714913617309513328093084171
339,1.7078680354979052559718934695820
340,1.7084628460201661617597019706152
341,1.7090559334983659088040727458965
342,1.7096473084173919655925507217478
343,1.7102369811783628651592200041376
344,1.7108249620998125343527638251488
345,1.7114112614188650900186026442841
346,1.7119958892923977378444621839898
347,1.7125788557981955069471218924830
348,1.7131601709360948067543307918519
349,1.7137398446291195333815072308750
350,1.7143178867246074579219354329617
351,1.7148943069953291825021955167852
352,1.7154691151405995533318132710836
353,1.7160423207873810309577516944358
354,1.7166139334913806575240856772931
355,1.7171839627381412215319637051049
356,1.7177524179441250755500957674227
357,1.7183193084577941025203114305494
358,1.7188846435606853427405469314600
359,1.7194484324684783068825467110013
360,1.7200106843320632058323064631157
361,1.7205714082386021485004251202690
362,1.7211306132125901095004272113795
363,1.7216883082169105974182419548918
364,1.7222445021538913983288840819381
365,1.7227992038663589979945085570294
366,1.7233524221386909447105719455312
367,1.7239041656978694473242062127235
368,1.7244544432145334188051690173072
369,1.7250032633040340397889336569936
370,1.7255506345274900184026422888393
371,1.7260965653928458853483198927863
372,1.7266410643559327900372471510832
373,1.7271841398215322988747526148976
374,1.7277258001444480649688572409416
375,1.7282660536305766495505849189217
376,1.7288049085379895695293617142811
377,1.7293423730780190097933092667212
378,1.7298784554163510500177759589853
379,1.7304131636741289630343533944418
380,1.7309465059290640956723925785253
381,1.7314784902165580007227449889513
382,1.7320091245308337727893069007214
383,1.7325384168260821411146859606384
384,1.7330663750176182079570332514643
385,1.7335930069830534279223387384117
386,1.7341183205634845132646747831458
387,1.7346423235646960963045393940434
388,1.7351650237583822264314324268692
389,1.7356864288833885794979750533664
390,1.7362065466469738382736086290845
391,1.7367253847260919009896394879621
392,1.7372429507686999415079878569142
393,1.7377592523950912895661532215536
394,1.7382742971992532921369659979356
395,1.7387880927502546831778812496256
396,1.7393006465936638794003655542541
397,1.7398119662529997014543233403805
398,1.7403220592312165076638223892930
399,1.7408309330122244019350944951297
400,1.7413385950624510363307559733481
401,1.7418450528324434109205109197795
402,1.7423503137585129121024257242849
403,1.7428543852644290581677478041250
404,1.7433572747631626559108122125556
405,1.7438589896586788184461013395378
406,1.7443595373477891243991628853812
407,1.7448589252220634058744110890835
408,1.7453571606698022530649024359809
409,1.7458542510780769107461008685822
410,1.7463502038348431414683851881097
411,1.7468450263311276401901011227282
412,1.7473387259632951917512753649165
413,1.7478313101354025642776165293820
414,1.7483227862616408048926323032909
415,1.7488131617688758176427591012287
416,1.7493024440992896299881619703743
417,1.7497906407131315832526770241214
418,1.7502777590915834397560273616473
419,1.7507638067397499919658511093356
420,1.7512487911897779781179451762297
421,1.7517327200041156362316907281896
422,1.7522156007789211602833922605412
423,1.7526974411476275290410587394037
424,1.7531782487846776617524329098833
425,1.7536580314094373858984171018523
426,1.7541367967903017597865493020371
427,1.7546145527490050716614806681303
428,1.7550913071651483448894177063128
429,1.7555670679809631417305757132455
430,1.7560418432063205659949461512758
431,1.7565156409240102674236602583456
432,1.7569884692953052712229327669295
433,1.7574603365658281440672737332085
434,1.7579312510717514053152580603535
435,1.7584012212463436075454209089397
436,1.7588702556268945454162391125813
437,1.7593383628620454557996240425259
438,1.7598055517195532424243011310223
439,1.7602718310945220350654783137104
440,1.7607372100181386143314053034375
441,1.7612016976669474341752110093419
442,1.7616653033727108035487349597529
443,1.7621280366328996467450992021876
444,1.7625899071218593967576581552622
445,1.7630509247027148841908744745759
446,1.7635110994400648603918786228252
447,1.7639704416135385638491316503437
448,1.7644289617322790226185617924348
449,1.7648866705504393259959847081406
450,1.7653435790837700973415749968292
451,1.7657996986274003023078118831742
452,1.7662550407749083922997829509235
453,1.7667096174388043131042954462486
454,1.7671634408725454288724731908670
455,1.7676165236942299318713525732600
456,1.7680688789121178678984283069916
457,1.7685205199521560126242461749314
458,1.7689714606876933127505777344497
459,1.7694217154716008666545471067846
460,1.7698712991710313912618329951118
461,1.7703202272050782664693375977220
462,1.7707685155856300970148519847892
463,1.7712161809617466874108419999121
464,1.7716632406679211465720164871393
465,1.7721097127766433356716604658644
466,1.7725556161557240006081078948538
467,1.7730009705308993249553394214348
468,1.7734457965543080802693274456844
469,1.7738901158794975764639185585875
470,1.7743339512437177445142377645233
471,1.7747773265583509968968716766184
472,1.7752202670084529529241541469918
473,1.7756627991625062352340963673899
474,1.7761049510936597944650689328803
475,1.7765467525138918339671953767255
476,1.7769882349227732043910359656560
477,1.7774294317727381323278751892253
478,1.7778703786530798800334727777888
479,1.7783111134952326047894817025136
480,1.7787516768023155725667887996510
481,1.7791921119064047047632730107339
482,1.7796324652575859352018442858174
483,1.7800727867495354810087815208803
484,1.7805131300872183263416912809685
485,1.7809535532033056742845433799650
486,1.7813941187311285214406480213758
487,1.7818348945434837966684282290178
488,1.7822759543684132663017547397910
489,1.7827173784953126495070576011443
490,1.7831592545874719823035371681089
491,1.7836016786205616197517796075256
492,1.7840447559708264366471326797817
493,1.7844886026820865519713377396935
494,1.7849333469473790770350473757083
495,1.7853791308496328946208657600420
496,1.7858261124167311464776114587567
497,1.7862744680604402451353353848626
498,1.7867243954870635923949731196575
499,1.7871761171917577952579479940092
500,1.787629884680320370683199914060
501,1.788085983604823178058311419421
502,1.788544740056945691360194762531
503,1.789006528341297143335789872554
504,1.789471780659429239580528441090
505,1.789940999286968286348643509844
506,1.790414772041764400692356510292
507,1.790893792151633862683304437711
508,1.791378884085916942510777268259
509,1.791871037595831806250419118265
510,1.792371453246768560768091939353
511,1.792881604345259500374514628020
512,1.793403322755067375109806657699
513,1.793938920364145019858791361825
514,1.794491365221392013047774475010
515,1.795064544168510193827126982957
516,1.795663667376004295837601749751
517,1.796295915843625708738361096059
518,1.796971526675230447947299075660
519,1.797705717705953234981979271628
520,1.798522351097688035556378524887
521,1.799461577309620537432997137183
522,1.800597893330025756450134708265
523,1.802091178197122772285384339347
