Eigenstate,Potential Energy
1,0.500000000015167602244141654348249301
2,0.64623093775012079545642609549374321
3,0.73633760999579800442993513369805899
4,0.79966527841998793241805928200563825
5,0.8480465763349658980170683496851032
6,0.8870659984939221303804146168944424
7,0.9197208263343354072083813040281970
8,0.9477838462327914628537577891386548
9,0.9723835571953637814503046687449794
10,0.9942802133704963706408168170726874
11,1.0140093848991422625639527667718180
12,1.0319621670858693533673324182076955
13,1.0484326899964381602879957113421451
14,1.0636476513139552690667644337789183
15,1.0777854321530533435891465710951014
16,1.090988901930333195600521183734134
17,1.103374251825866271000314115487006
18,1.115037245789392960192156920314904
19,1.126057743644299489168794863417459
20,1.136503038721553895095171319441371
21,1.146430363941402897527160861491787
22,1.155888802972111825056608599356099
23,1.164920768166489128731973584526380
24,1.173563157962308442267807057502682
25,1.181848273678234903760094592719689
26,1.189804553321412856536380781533657
27,1.197457164550041649075397608041844
28,1.204828488032415447162489740776895
29,1.211938514648875151558432210298522
30,1.218805174333632946288794960822691
31,1.225444610207491503382146512460590
32,1.231871408574580285739428594874873
33,1.238098793046583586116084456983759
34,1.244138789307388674369503145740923
35,1.250002365691887359681021653591887
36,1.255699553719185396116932091217606
37,1.261239551916389611541066897449738
38,1.266630815638723896883087003524485
39,1.271881135093876543355421567475610
40,1.276997703382660631752641767630315
41,1.281987176051318904315729840837395
42,1.286855723395811948194936314549313
43,1.291609076551942174674966061314833
44,1.296252568237072062860360295433789
45,1.300791168871625567553651507299322
46,1.305229518695425308491896610407582
47,1.309571956400441545797933767341296
48,1.313822544723942582273189365912075
49,1.317985093381373689277997256416699
50,1.32206317966416893930525420537868
51,1.32606016698223336589175007712973
52,1.32997922159248765722140403432996
53,1.33382332772241747123644244275241
54,1.33759530127000832862302252993997
55,1.34129780223797154753158323051170
56,1.34493334604009211377180611054683
57,1.34850431380033041510714946608421
58,1.35201296175051258198643202002424
59,1.35546142981969022977783376315467
60,1.35885174949722588987095677129518
61,1.36218585104209618951025032664521
62,1.36546557010260383511154302280669
63,1.36869265380344756479452453018015
64,1.37186876635078675594338003446151
65,1.37499549420040253363615554114998
66,1.37807435082920988673048222365958
67,1.38110678114611300706837013093886
68,1.38409416557443990645506275947254
69,1.38703782383487969534081527247711
70,1.38993901845491763887113610754003
71,1.39279895802816440224029414973020
72,1.39561880024467765490366334198675
73,1.39839965471132119680126085548923
74,1.40114258557938792119248997759951
75,1.40384861399508182759932335968358
76,1.40651872038700474160020712933268
77,1.40915384660349099979905321074821
78,1.41175489791146756011367409388299
79,1.41432274486747017753592795193033
80,1.41685822507050815987155072401846
81,1.41936214480562087649112373234985
82,1.42183528058620774257022639032481
83,1.42427838060252466750724931548045
84,1.42669216608311566449126191063147
85,1.42907733257538904201870793290488
86,1.43143455115103173276846298981524
87,1.43376446954149784444490849919123
88,1.43606771320838413946304676466817
89,1.43834488635312164818822303620382
90,1.44059657287006940371373797146323
91,1.44282333724677483410898325678832
92,1.44502572541487705053162279004836
93,1.44720426555486701454172192281877
94,1.44935946885767563921763920756232
95,1.45149183024583972464449744057558
96,1.45360182905679380622964194352196
97,1.45568992969065165218987022192664
98,1.45775658222466827226056437119472
99,1.45980222299641982748767552400964
100,1.46182727515759249054751425289019
101,1.46383214920014200188476618012309
102,1.46581724345646009223811824624282
103,1.46778294457507602850998935290043
104,1.46972962797331427522643358231590
105,1.47165765826823619007642508624913
106,1.47356738968710290777599077653006
107,1.47545916645851848454725944299068
108,1.47733332318533313594811192311429
109,1.47919018520031780725394378919560
110,1.48103006890555889546801777508478
111,1.48285328209645608083833602243459
112,1.48466012427115679212550303874703
113,1.48645088692620529407197650005883
114,1.48822585383913562776675570800085
115,1.48998530133869718609698703262085
116,1.49172949856335337482975678587532
117,1.49345870770866209686056222217646
118,1.49517318426410576605938632388388
119,1.49687317723990484342901355914775
120,1.49855892938432304605522665925035
121,1.50023067739193411208431576091436
122,1.50188865210330109183052024222063
123,1.50353307869648694218405253263748
124,1.50516417687079752168166691612614
125,1.50678216102312851733865016893189
126,1.50838724041727263704353936652761
127,1.50997961934652282343046926156749
128,1.51155949728988465795418352080566
129,1.51312706906219905065461004917202
130,1.51468252495845792923066185709888
131,1.51622605089258023692482739860910
132,1.51775782853090057151929847093401
133,1.51927803542061101616051430125755
134,1.52078684511338543677001233173745
135,1.52228442728439741245708150274708
136,1.52377094784693927781835451963873
137,1.52524656906283644806580521738838
138,1.52671144964883758593410675729728
139,1.52816574487915906341263768784895
140,1.52960960668434672537916725278934
141,1.53104318374661340472232381358131
142,1.53246662159180256527279039587087
143,1.53388006267811979869399012748786
144,1.53528364648176672184591292746639
145,1.53667750957960763337678641795491
146,1.53806178572899141954621550488668
147,1.53943660594484299631751652132556
148,1.54080209857413961672361572599718
149,1.54215838936787384443653274638309
150,1.54350560155060683439338923189741
151,1.54484385588770783470798352895723
152,1.54617327075037020901242144915267
153,1.54749396217849292889656048770847
154,1.54880604394151143566109584820529
155,1.55010962759725610735023763402669
156,1.55140482254891619739995624174704
157,1.55269173610018029147769332574217
158,1.55397047350862510058695906639328
159,1.5552411380374162632422434928700
160,1.5565038310053874942239575761731
161,1.5577586518355565760043454793837
162,1.5590056981021376539157321496391
163,1.5602450655761046883304323579779
164,1.5614768482693607004172227613059
165,1.5627011384775614116620271820828
166,1.5639180268216437927114945892571
167,1.5651276022881067538288660680786
168,1.5663299522680866658455657179721
169,1.5675251625952727736690809207074
170,1.5687133175827022454326992646370
171,1.5698945000584750517178273378799
172,1.5710687914004265414766959076439
173,1.5722362715697931169560893432866
174,1.5733970191439068511059152298263
175,1.5745511113479530323754972420479
176,1.5756986240858203432202084575886
177,1.5768396319700769328257016664471
178,1.5779742083511015384157164179557
179,1.5791024253453961000590125992870
180,1.5802243538631108153440453910603
181,1.5813400636348042824772335476077
182,1.5824496232374664271598337136561
183,1.5835531001198272624869469907586
184,1.5846505606269757233742531668888
185,1.5857420700243103836052194253302
186,1.5868276925208430240875549569629
187,1.5879074912918788527855163556943
188,1.5889815285010888126116788321111
189,1.5900498653219977083348332184738
190,1.5911125619589038035476002211249
191,1.5921696776672491102111095627557
192,1.5932212707734567529445056431863
193,1.5942673986942537118715033840338
194,1.5953081179554922847701582004757
195,1.5963434842104882008476450300413
196,1.5973735522578890780024024859293
197,1.5983983760590875988565804286930
198,1.5994180087551935674996374919528
199,1.6004325026835776807582159450757
200,1.6014419093940009541530047846048
201,1.6024462796643407789210189783690
202,1.6034456635159269862142643117124
203,1.6044401102284985731565319997290
204,1.6054296683547927056194271555141
205,1.6064143857347759630293420537129
206,1.6073943095095308439019133484643
207,1.6083694861348034027291138380805
208,1.6093399613942262396232118407808
209,1.6103057804122225855448459079814
210,1.6112669876666029787138632917140
211,1.6122236270008618911589740233175
212,1.6131757416361845325278977595743
213,1.6141233741831682090455687454658
214,1.6150665666532732133035650736363
215,1.6160053604700024511049883700193
216,1.6169397964798237598149644703898
217,1.6178699149628388772517098290007
218,1.6187957556432080335606889713978
219,1.6197173576993334390002825755814
220,1.6206347597738141757591344087150
221,1.6215479999831703960872957248483
222,1.6224571159273540240988179282774
223,1.6233621446990395220690039197722
224,1.6242631228927097805164916136095
225,1.6251600866135396886045151406645
226,1.6260530714860809227939289075228
227,1.6269421126627565965861460497430
228,1.6278272448321675815468898878305
229,1.6287085022272176517456351481884
230,1.6295859186330621378386433917951
231,1.6304595273948818800495517899220
232,1.6313293614254928889516099946764
233,1.6321954532127866995392631635636
234,1.6330578348270175646379938423720
235,1.6339165379279296587354265586475
236,1.6347715937717339909846306869592
237,1.6356230332179386474890896574967
238,1.6364708867360340938625033489297
239,1.6373151844120389736251202103045
240,1.6381559559549085558347281493101
241,1.6389932307028101132815914101294
242,1.6398270376292680871778356207484
243,1.6406574053491830690940624529893
244,1.6414843621247262883589486499647
245,1.6423079358711139780116268695715
246,1.6431281541622641378532669846139
247,1.6439450442363370763620748838824
248,1.6447586330011673120041539633269
249,1.6455689470395818024340984098759
250,1.6463760126146148856840331306696
251,1.6471798556746178327461351874910
252,1.6479805018582658094415623308623
253,1.6487779764994673191718932823812
254,1.6495723046321757828030079516374
255,1.6503635109951071351037909855192
256,1.6511516200363635224992378257131
257,1.6519366559179694928751674347593
258,1.6527186425203171214861326348045
259,1.6534976034465268758097047169134
260,1.6542735620267246050443493308659
261,1.6550465413222349673007193270247
262,1.6558165641296960192111079766130
263,1.6565836529850938178364777866646
264,1.6573478301677224850216314197288
265,1.6581091177040682587234106943412
266,1.6588675373716196983417100122045
267,1.6596231107026072565825151127248
268,1.6603758589876722508492604796567
269,1.6611258032794695033588081709999
270,1.6618729643961993734033377488834
271,1.6626173629250784649915813043076
272,1.6633590192257429887103596858275
273,1.6640979534335922201975778472623
274,1.6648341854630692635207896159605
275,1.6655677350108829943172838975010
276,1.6662986215591694603243073733146
277,1.6670268643786002225897138704119
278,1.6677524825314293912867038280536
279,1.6684754948744908585773861495174
280,1.6691959200621378213707911613753
281,1.6699137765491324827785176962330
282,1.6706290825934834285160381538735
283,1.6713418562592338906760409153136
284,1.6720521154191980553888136642430
285,1.6727598777576522216098841533459
286,1.6734651607729768357602850745233
287,1.6741679817802544614901487405687
288,1.6748683579138200863213907872053
289,1.6755663061297684132135460235911
290,1.6762618432084188695595347742340
291,1.6769549857567361745315155217526
292,1.6776457502107093496628996867899
293,1.6783341528376930784208448022953
294,1.6790202097387064516631968457884
295,1.6797039368506911861046722728560
296,1.6803853499487369013315551623737
297,1.6810644646482633870692436855718
298,1.6817412964071691774335598431451
299,1.6824158605279432350005146527018
300,1.6830881721597414952769836999677
301,1.6837582463004286829871311855798
302,1.6844260977985874930838878220108
303,1.6850917413554923095911741715160
304,1.6857551915270510397828630851176
305,1.6864164627257164922015295762071
306,1.6870755692223665617134655999890
307,1.6877325251481504035498857859147
308,1.6883873444963080747593872116302
309,1.6890400411239597323335905255681
310,1.6896906287538647231489852503042
311,1.6903391209761541606242386932454
312,1.6909855312500345012217887403306
313,1.6916298729054635135392243755341
314,1.6922721591448004442604885558198
315,1.6929124030444297006062981997007
316,1.6935506175563594249223323881001
317,1.6941868155097925000066188071354
318,1.6948210096126753364176376827002
319,1.6954532124532215833214077286215
320,1.6960834365014107641324660594190
321,1.6967116941104657558794321286331
322,1.6973379975183052267223566367144
323,1.6979623588489745456578454729410
324,1.6985847901140541415475484647492
325,1.6992053032140470734476704023122
326,1.6998239099397440494623206562061
327,1.7004406219735687148724741366708
328,1.7010554508909003987316769338300
329,1.7016684081613792937830850954618
330,1.7022795051501905013604024993567
331,1.7028887531193283798449042475715
332,1.7034961632288422578989316622069
333,1.7041017465380638910094894332205
334,1.7047055140068148453436577633837
335,1.7053074764965981238266513086147
336,1.7059076447717700924722300195999
337,1.7065060295006955791895294040712
338,1.7071026412568872038964090170563
339,1.7076974905201250044243794175913
340,1.7082905876775624495332348861904
341,1.7088819430248145525910116187919
342,1.7094715667670305830466800871968
343,1.7100594690199510134625333244122
344,1.7106456598109486957911525693809
345,1.7112301490800560862091587026365
346,1.7118129466809759932801705205975
347,1.7123940623820794147834775655108
348,1.7129735058673872749102788989399
349,1.7135512867375396067297463129569
350,1.7141274145107497222432324813443
351,1.7147018986237454576084103995051
352,1.7152747484326971758764699978410
353,1.7158459732141318115985745555389
354,1.7164155821658343717563897437999
355,1.7169835844077372582789211595362
356,1.7175499889827956219128148680592
357,1.7181148048578519864697663941857
358,1.7186780409244893874370377364225
359,1.7192397059998687700754103550452
360,1.7197998088275595849090412930512
361,1.7203583580783553254623687211789
362,1.7209153623510804898298195502827
363,1.7214708301733835616780612241949
364,1.7220247700025210346611642624271
365,1.7225771902261307166026753300094
366,1.7231280991629931911014546243106
367,1.7236775050637843285591428144387
368,1.7242254161118156353458609554414
369,1.7247718404237670736376849184431
370,1.7253167860504080650893005081442
371,1.7258602609773095316396746725823
372,1.7264022731255459299183631879949
373,1.7269428303523872459572855020104
374,1.7274819404519852586760527159991
375,1.7280196111560447637001060904796
376,1.7285558501344912137160517737905
377,1.7290906649961265645642862243372
378,1.7296240632892764944694437350177
379,1.7301560525024308361995997709870
380,1.7306866400648739789081846593044
381,1.7312158333473081150835286132873
382,1.7317436396624664507651238751358
383,1.7322700662657210536770712640848
384,1.7327951203556803029683903896779
385,1.7333188090747795618035311880695
386,1.7338411395098657314438843086153
387,1.7343621186927714361443895721504
388,1.7348817536008827756505649685023
389,1.7354000511577013199677719572847
390,1.7359170182333975354944947157760
391,1.7364326616453559594451338927377
392,1.7369469881587157309234781386513
393,1.7374600044869039521174483033000
394,1.7379717172921604606950652333978
395,1.7384821331860568702576670701100
396,1.7389912587300095297004087689180
397,1.7394991004357860313705080389484
398,1.7400056647660052761399609379610
399,1.7405109581346296611656352926665
400,1.7410149869074536902762393048454
401,1.7415177574025850558875212071861
402,1.7420192758909189376434376763164
403,1.7425195485966083385044445655183
404,1.7430185816975283513538583428453
405,1.7435163813257318215484547478380
406,1.7440129535679025144287788916118
407,1.7445083044658029044902356228063
408,1.7450024400167140893894184566457
409,1.7454953661738706898435817345837
410,1.7459870888468932498821781891031
411,1.7464776139022123974485326241828
412,1.7469669471634883479219534105140
413,1.7474550944120268295996467262795
414,1.7479420613871878549645128295671
415,1.7484278537867916216815486633159
416,1.7489124772675179729361103084550
417,1.7493959374453022655808085510333
418,1.7498782398957248093077379321634
419,1.7503593901543981553375216869523
420,1.7508393937173472165272356814531
421,1.7513182560413861710609433623112
422,1.7517959825444914313051205075703
423,1.7522725786061685139486256590224
424,1.7527480495678164251317346172276
425,1.7532224007330859399032100858451
426,1.7536956373682353828247725121671
427,1.7541677647024813943312659949957
428,1.7546387879283446965126729661794
429,1.7551087122019947706836572220166
430,1.7555775426435863088239912457380
431,1.7560452843375949425212108672310
432,1.7565119423331493989067718290156
433,1.7569775216443554214589202106131
434,1.7574420272506225535857391819987
435,1.7579054640969816086378896740869
436,1.7583678370944007273166687921575
437,1.7588291511200981838216796148686
438,1.7592894110178509227763039116139
439,1.7597486215982995082095406189457
440,1.7602067876392505557807214733355
441,1.7606639138859738080726611577109
442,1.7611200050514974165721613612983
443,1.7615750658169010780050362879501
444,1.7620291008316016443679836005966
445,1.7624821147136405372871015501968
446,1.7629341120499639910225232902627
447,1.7633850973967032932578910696470
448,1.7638350752794482418452021391068
449,1.7642840501935216579791731157229
450,1.7647320266042471082102002840780
451,1.7651790089472173383584957691742
452,1.7656250016285562606449277668137
453,1.7660700090251802370775902175776
454,1.7665140354850550480094890543227
455,1.7669570853274521697054875577974
456,1.7673991628431996578836476574876
457,1.7678402722949323329027112638524
458,1.7682804179173376624570981247769
459,1.7687196039173998556685027605195
460,1.7691578344746418108807256226313
461,1.7695951137413627668459682923244
462,1.7700314458428748703158382435319
463,1.7704668348777372637706633701584
464,1.7709012849179858541546882356483
465,1.7713348000093627313146047263245
466,1.7717673841715423667993663629588
467,1.7721990413983538734980164592321
468,1.7726297756580043417170153060765
469,1.7730595908932957283535413881669
470,1.7734884910218428236648345508717
471,1.7739164799362865626994859283347
472,1.7743435615045069789608808428747
473,1.7747697395698311511629759740729
474,1.7751950179512436470296205013223
475,1.7756194004435883868493939159269
476,1.7760428908177744405471086954074
477,1.7764654928209760912245171203873
478,1.7768872101768318411134274391376
479,1.7773080465856412492793544520583
480,1.7777280057245599956105009420558
481,1.7781470912477917219193653806378
482,1.7785653067867802188956680530834
483,1.7789826559503973388589605721625
484,1.7793991423251294540154899654166
485,1.7798147694752639370444172141282
486,1.7802295409430702487552238117335
487,1.7806434602489824815451485253971
488,1.7810565308917779550898486247865
489,1.7814687563487550923118803665350
490,1.7818801400759084386157097475146
491,1.7822906855081029585326925216050
492,1.7827003960592461978215001281590
493,1.7831092751224582858890158383200
494,1.7835173260702408724250737804266
495,1.7839245522546431905985772464728
496,1.7843309570074284910843887301030
497,1.7847365436402365322886021622460
498,1.7851413154447460718690075584822
499,1.7855452756928348567132115034220
500,1.785948427636739241684596612625
501,1.786350774509209182983011681944
502,1.786752319523666061105239300326
503,1.787153065874354801332038622818
504,1.787553016736498135376481161359
505,1.787952175266445851451293367249
506,1.788350544601824762632169982402
507,1.788748127861687241328693404315
508,1.789144928146657959602776791996
509,1.789540948539077066002010296814
510,1.789936192103145851917769983422
511,1.790330661885068138314720206356
512,1.790724360913191282796347513666
513,1.791117292198145422510750396511
514,1.791509458732981629126205868875
515,1.791900863493309349942130301763
516,1.792291509437431345290142635748
517,1.792681399506477196783156609118
518,1.793070536624537171616832080280
519,1.793458923698793224686283748070
520,1.793846563619649995340426965959
521,1.794233459260862593821446904329
522,1.794619613479665453409972065273
523,1.795005029116898685252248040884
