Eigenstate,Potential Energy
1,0.500000000024712590917617221629010238
2,0.64623093781242545450899857897707981
3,0.73633761017881267242841101215400166
4,0.79966527880118590199307544612103017
5,0.8480465769952772732589496289866361
6,0.8870659995156924267274856160041982
7,0.9197208278005730944225241925511652
8,0.9477838482268538854091578433602246
9,0.9723835598008108595805032802850030
10,0.9942802166710161153222694864892409
11,1.0140093889785100970724251373548991
12,1.0319621720279246620084427856726578
13,1.0484326958850702155267854894020727
14,1.0636476582330945558035274912867838
15,1.0777854401866661392965354356893573
16,1.090988911162418195500522697270171
17,1.103374262340452543385301090083072
18,1.115037257670538793648811957199438
19,1.126057756976091854072598882467469
20,1.136503053588108338312680314741048
21,1.146430380426863749161610373670493
22,1.155888821160652634269311299582623
23,1.164920788142313270642969986096297
24,1.173563179809649854633531879983420
25,1.181848297481358923515348424876512
26,1.189804579164617134202805555565261
27,1.197457192517657124632270601013622
28,1.204828518208807374990140708208259
29,1.211938547118444164986846844655888
30,1.218805209180816154439110844430929
31,1.225444647516763614597464364301626
32,1.231871448430454753115696515710653
33,1.238098835533613771570047722070895
34,1.244138834510169028394074027760267
35,1.250002413695054614492835416461588
36,1.255699604607419770335383364074290
37,1.261239605774416024881439824450734
38,1.266630872551313193619637485694525
39,1.271881195145846723529296985680692
40,1.276997766658878089276270001067738
41,1.281987242636699671268795866457021
42,1.286855793375322944724277544835007
43,1.291609150010602464006993662415336
44,1.296252645259954111014094020543321
45,1.300791249543856507408439894192855
46,1.305229603102188207918915158731358
47,1.309572044626976679610638673411880
48,1.313822636855548707790704306054408
49,1.317985189503409325328175257921207
50,1.32206327986205364852195853368141
51,1.32606027134144904018459544096029
52,1.32997933019857980631643270217582
53,1.33382344066099651420357302250720
54,1.33759541862675088832107375227023
55,1.34129792409862174791457582085460
56,1.34493347249046288001144632934995
57,1.34850444492630477649610093762388
58,1.35201309763804497759550830989862
59,1.35546157055480781684760607446677
60,1.35885189516602985492480981382553
61,1.36218600173076306218162272959156
62,1.36546572589738680468314637535226
63,1.36869281479067779945178676691573
64,1.37186893261687472474829953977508
65,1.37499566583183933123131011523657
66,1.37807452791256856078603241394271
67,1.38110696376804988848771499820016
68,1.38409435382169594235731137985767
69,1.38703801779428178484052382917745
70,1.38993921821337997167772688116236
71,1.39279916367268980010149879330573
72,1.39561901186235891591890562945491
73,1.39839987238934244263247259895451
74,1.40114280940502594720119004143319
75,1.40384884405570745594007290014386
76,1.40651895677008417730168023960589
77,1.40915408939658718986502677937923
78,1.41175514720224155567721586158588
79,1.41432300074368249910096836070059
80,1.41685848762002016567682410672626
81,1.41936241411639613403227300812879
82,1.42183555674631340331656490766472
83,1.42427866370013284485034493390898
84,1.42669245620650481496314705785988
85,1.42907762981294534981811189479889
86,1.43143485559125049763399686797800
87,1.43376478127298487291469563721376
88,1.43606803231985713956078146693457
89,1.43834521293341162757609238680211
90,1.44059690700812207135312072733087
91,1.44282367903165200547027856452295
92,1.44502607493575805639494833089525
93,1.44720462290105011343065554709919
94,1.44935983411857943350854425133195
95,1.45149220351100458039435660584987
96,1.45360221041588327676566681849135
97,1.45569031923345390550455189064346
98,1.45775698004109752225611046424153
99,1.45980262917651776911417719657485
100,1.46182768979152973887946917502339
101,1.46383257237821953518093300637975
102,1.46581767526911069902998489510795
103,1.46778338511286575876442720775692
104,1.46973007732694389562848125942929
105,1.47165811652854264347837370130779
106,1.47356785694506077685929135256131
107,1.47545964280524145974405627338697
108,1.47733380871207548766948666346120
109,1.47919067999847586247229488208379
110,1.48103057306667251870123230212173
111,1.48285379571221015958374775406951
112,1.48466064743338272679191034402742
113,1.48645141972688249245825533180091
114,1.48822639637039300413593696955543
115,1.48998585369281466489492830256405
116,1.49173006083276339909784062430437
117,1.49345927998595114139212498571614
118,1.49517376664201585534990899248625
119,1.49687376981133507447035271019538
120,1.49855953224233111602449046456566
121,1.50023129062973785097826701255696
122,1.50188927581428000009669946121720
123,1.50353371297418373340008495531087
124,1.50516482180891967033453383424797
125,1.50678281671554981175600937005163
126,1.50838790695803473752946208736225
127,1.50998029682983682565827973661519
128,1.51156018581013266166939289068046
129,1.51312776871393573374123470556958
130,1.51468323583641212719452219820779
131,1.51622677309165652784775067004191
132,1.51775856214618086653848628139661
133,1.51927878054735615552755971278400
134,1.52078760184703679154448331692056
135,1.52228519572057849188986288339157
136,1.52377172808145734248022565894522
137,1.52524736119168412877713438857962
138,1.52671225376819450855180042238694
139,1.52816656108539347953090527402568
140,1.52961043507401714900089618948499
141,1.53104402441647025495823279216302
142,1.53246747463878981512595427752344
143,1.53388092819937662998752086281867
144,1.53528452457462918635211317488064
145,1.53667840034161032020626191328633
146,1.53806268925786912885591555484390
147,1.53943752233853241939699639833650
148,1.54080302793078102251912751398439
149,1.54215933178581277257299300085449
150,1.54350655712839579475458648714409
151,1.54484482472410801363579201323899
152,1.54617425294435318218614049812678
153,1.54749495782924238095392838025469
154,1.54880705314842488662280362100630
155,1.55011065045994664591025991713916
156,1.55140585916721422114441234746078
157,1.55269278657413525409524020688042
158,1.55397153793850726613421623711274
159,1.5552422165237184675281193371155
160,1.5565049236488269133771397929270
161,1.5577597587370765022886406949289
162,1.5590068193629092788583865438923
163,1.5602462012975288932289121425626
164,1.5614779985530698542904041570420
165,1.5627023034254211767122223811820
166,1.5639192065357549373640270796300
167,1.5651287968708069734164827299094
168,1.5663311618219524110053841575409
169,1.5675263872231210865201247909415
170,1.5687145573875926036026533157541
171,1.5698957551437112202880259552424
172,1.5710700618695584329148047352317
173,1.5722375575266186591064277064796
174,1.5733983206924738633078433125058
175,1.5745524285925611097807576008900
176,1.5756999571310227493805508658330
177,1.5768409809206825006226611974380
178,1.5779755733121765794048520228554
179,1.5791038064222663223014183565182
180,1.5802257511613632497984664542169
181,1.5813414772602892180265967785791
182,1.5824510532962993543464732901154
183,1.5835545467183908260314208272634
184,1.5846520238719216835530133698190
185,1.5857435500225615865630859801723
186,1.5868291893795953811613277522467
187,1.5879090051186033289156401780001
188,1.5889830594035334239194609258232
189,1.5900514134081895289431927069528
190,1.5911141273371509817238846617984
191,1.5921712604461428939110880004357
192,1.5932228710618735248372268910871
193,1.5942690166013570339251720572572
194,1.5953097535907349524798892360558
195,1.5963451376836143071864350178199
196,1.5973752236789360871772306346329
197,1.5984000655383884299522383962752
198,1.5994197164033786880933478627438
199,1.6004342286115772105888318592483
200,1.6014436537130467789290566688850
201,1.6024480424859686743525277845429
202,1.6034474449519787523539975903634
203,1.6044419103911241791367410013934
204,1.6054314873564524448709461862477
205,1.6064162236882426190704561116883
206,1.6073961665278918667851027285021
207,1.6083713623314630962343735078930
208,1.6093418568829079592873405638738
209,1.6103076953069709476167469916083
210,1.6112689220817860801265855113485
211,1.6122255810511735406098411572513
212,1.6131777154366464927587934668395
213,1.6141253678491324504161532312542
214,1.6150685803004241787508326559136
215,1.6160073942143593325833568600232
216,1.6169418504377427863116947388665
217,1.6178719892510156144732577629600
218,1.6187978503786796953862635135400
219,1.6197194729994812107996183736115
220,1.6206368957563655496722693390236
221,1.6215501567662015183648133686038
222,1.6224592936292920546018348544206
223,1.6233643434386650060288631056445
224,1.6242653427891590326549726145098
225,1.6251623277863071897161092818192
226,1.6260553340550217288924976046562
227,1.6269443967480887607190637962146
228,1.6278295505544745883806159382300
229,1.6287108297074508650274202815410
230,1.6295882679925432608398861451218
231,1.6304618987553054290971817915488
232,1.6313317549089286801546855152662
233,1.6321978689416823488187654923765
234,1.6330602729242010011687592733755
235,1.6339189985166116519098564263508
236,1.6347740769755106910087896824777
237,1.6356255391607941397226802107707
238,1.6364734155423429670150037211562
239,1.6373177362065689019213370581077
240,1.6381585308628228952639109706741
241,1.6389958288496705120450946174987
242,1.6398296591410371104512828180397
243,1.6406600503522268382209217103382
244,1.6414870307458171345932663729877
245,1.6423106282374331109287029570680
246,1.6431308704014043285480139724559
247,1.6439477844763053555556523985498
248,1.6447613973703876831805638430259
249,1.6455717356668979701293441406168
250,1.6463788256292929990514558736438
251,1.6471826932063492445225753448516
252,1.6479833640371698504399588307977
253,1.6487808634560940884269173452829
254,1.6495752164975089534975215877119
255,1.6503664479005667764047570611348
256,1.6511545821138089374329075857954
257,1.6519396432997020723724216103602
258,1.6527216553390832147298481911093
259,1.6535006418355206770171542287207
260,1.6542766261195910568187919838065
261,1.6550496312530726806873209567853
262,1.6558196800330602105935894830476
263,1.6565867949959992628119014488809
264,1.6573509984216464893919786301960
265,1.6581123123369536467436818867424
266,1.6588707585198778183654640492798
267,1.6596263585031210042469654470278
268,1.6603791335777991099432687630555
269,1.6611291047970446045181228278616
270,1.6618762929795385707789063694269
271,1.6626207187129814310378531441430
272,1.6633624023574963272417584657396
273,1.6641013640489725978625584169451
274,1.6648376237023465598441130062723
275,1.6655712010148234704624581367894
276,1.6663021154690389467296413020622
277,1.6670303863361673256322390738107
278,1.6677560326789687191301580703194
279,1.6684790733547862663611924497454
280,1.6691995270184856758987042474817
281,1.6699174121253449468668645853505
282,1.6706327469338917651627920118104
283,1.6713455495086917872134338727277
284,1.6720558377230849677832886620256
285,1.6727636292618767390753693126739
286,1.6734689416239800658512028716880
287,1.6741717921250134358427660749917
288,1.6748721978998511872133230934533
289,1.6755701759051308211124883336736
290,1.6762657429217180318342316396922
291,1.6769589155571272954991638519087
292,1.6776497102479009021486623539308
293,1.6783381432619503370068291705893
294,1.6790242307008550478060948256170
295,1.6797079885021206853020249095212
296,1.6803894324414044025189284382501
297,1.6810685781346971444320478581577
298,1.6817454410404722448185201630966
299,1.6824200364617971331137547709207
300,1.6830923795484099018573915056983
301,1.6837624852987611461450331597315
302,1.6844303685620231679970250283535
303,1.6850960440400637187515483449518
304,1.6857595262893878569896292984372
305,1.6864208297230493504972610181644
306,1.6870799686125308854623386530937
307,1.6877369570895902648585466676186
308,1.6883918091480800744427493427450
309,1.6890445386457369056298585680316
310,1.6896951593059404703898693342756
311,1.6903436847194462030681597425496
312,1.6909901283460888622600700533079
313,1.6916345035164585254866857663952
314,1.6922768234335507809440214208009
315,1.6929171011743904359669136191158
316,1.6935553496916301178482386117377
317,1.6941915818151213056166909692757
318,1.6948258102534631440163929634581
319,1.6954580475955261812494275248025
320,1.6960883063119510317372716433328
321,1.6967165987566258828344150429925
322,1.6973429371681389599236254114304
323,1.6979673336712094639303037273711
324,1.6985898002780959583942512865943
325,1.6992103488899839680784568922908
326,1.6998289912983510263396606456967
327,1.7004457391863119920149764915209
328,1.7010606041299418250178311460034
329,1.7016735975995807954999653304598
330,1.7022847309611185582444712170414
331,1.7028940154772585308641322870605
332,1.7035014623087636370279287015459
333,1.7041070825156837932517428494950
334,1.7047108870585633232572411530205
335,1.7053128867996326148118431894352
336,1.7059130925039800770826084818576
337,1.7065115148407072707300225474980
338,1.7071081643840682695743123353988
339,1.7077030516145893183218827896859
340,1.7082961869201748776726816609853
341,1.7088875805971957703664407941397
342,1.7094772428515619252979584501076
343,1.7100651837997793574708439973237
344,1.7106514134699913774773374422476
345,1.7112359418030058498190028362820
346,1.7118187786533059748434959473721
347,1.7123999337900481596365845066287
348,1.7129794168980437895740527890778
349,1.7135572375787284454384265953026
350,1.7141334053511161084217657020475
351,1.7147079296527404405992526872463
352,1.7152808198405828232192096160849
353,1.7158520851919864371691571308936
354,1.7164217349055578000751996001338
355,1.7169897781020561253001905908266
356,1.7175562238252687126109507709563
357,1.7181210810428756095408410975135
358,1.7186843586473027874371935090637
359,1.7192460654565595773205665979292
360,1.7198062102150693034640310248581
361,1.7203648015944848595501846090723
362,1.7209218481944957089953396958404
363,1.7214773585436209050435542499556
364,1.7220313410999931546142936630582
365,1.7225838042521321622611725365869
366,1.7231347563197061319017251651498
367,1.7236842055542843183194932721242
368,1.7242321601400774171588042925890
369,1.7247786281946704259487535445248
370,1.7253236177697436893238404068277
371,1.7258671368517849817420906564355
372,1.7264091933627915841723949341304
373,1.7269497951609623214590482107915
374,1.7274889500413838688358041263132
375,1.7280266657367020191516581748356
376,1.7285629499177893670173420888714
377,1.7290978101944011990758308019117
378,1.7296312541158227578015144811889
379,1.7301632891715097186227014055401
380,1.7306939227917186371253406627405
381,1.7312231623481302417671348037290
382,1.7317510151544626902647161337079
383,1.7322774884670794643088257015899
384,1.7328025894855868663008673081757
385,1.7333263253534247393589941928653
386,1.7338487031584510692377955045122
387,1.7343697299335162174908632889867
388,1.7348894126570307226651926149719
389,1.7354077582535273442041263178673
390,1.7359247735942145381546007432979
391,1.7364404654975216816087558414288
392,1.7369548407296396542457591424787
393,1.7374679060050542504487878770741
394,1.7379796679870710030820377690245
395,1.7384901332883342757878386531278
396,1.7389993084713402746594862529398
397,1.7395072000489436091842577894374
398,1.7400138144848574105786952691640
399,1.7405191581941455732935455102274
400,1.7410232375437114196332773353608
401,1.7415260588527788363960967706542
402,1.7420276283933666287373647754217
403,1.7425279523907589119830495258944
404,1.7430270370239694344686515557000
405,1.7435248884261972968358251436315
406,1.7440215126852801768069141743811
407,1.7445169158441421761439579980826
408,1.7450111039012337929721077345487
409,1.7455040828109668805309948290045
410,1.7459958584841471068182726129764
411,1.7464864367883981751292597352001
412,1.7469758235485813880684962722056
413,1.7474640245472116340783593540389
414,1.7479510455248662203169830890337
415,1.7484368921805908358335885977526
416,1.7489215701722990746609367491054
417,1.7494050851171683672971831800416
418,1.7498874425920294838006906810757
419,1.7503686481337538869946845291692
420,1.7508487072396339176907873660094
421,1.7513276253677597641008112234394
422,1.7518054079373924970261104272969
423,1.7522820603293310069503584083290
424,1.7527575878862764567469461272357
425,1.7532319959131906293464047761726
426,1.7537052896776517771902093400323
427,1.7541774744102054580860387628270
428,1.7546485553047103711374047305160
429,1.7551185375186831051205135483430
430,1.7555874261736346613985718093237
431,1.7560552263554062550122002795083
432,1.7565219431145015434443719570808
433,1.7569875814664106209405232005154
434,1.7574521463919368763045710164957
435,1.7579156428375145378280788383322
436,1.7583780757155248063256386841649
437,1.7588394499046087376284742253355
438,1.7592997702499758565823329325258
439,1.7597590415637091838361951318579
440,1.7602172686250677466158085077951
441,1.7606744561807837333164972082702
442,1.7611306089453578555417793506656
443,1.7615857316013525652632959603332
444,1.7620398287996777464530893790332
445,1.7624929051598782118261986049997
446,1.7629449652704140290216843246484
447,1.7633960136889408453697728637426
448,1.7638460549425834294243264150129
449,1.7642950935282102697435691918560
450,1.7647431339127013833372677679510
451,1.7651901805332168368526028040605
452,1.7656362377974588218225104661742
453,1.7660813100839330270260691632735
454,1.7665254017422056968847268941818
455,1.7669685170931599997430817442261
456,1.7674106604292470030085705188570
457,1.7678518360147359508318425410558
458,1.7682920480859602401991693272745
459,1.7687313008515616093361094672718
460,1.7691695984927321807393984538119
461,1.7696069451634522085355264961082
462,1.7700433449907267431899345829494
463,1.7704788020748198173109719966781
464,1.7709133204894843134272097697468
465,1.7713469042821914824460753072389
466,1.7717795574743572434632516939535
467,1.7722112840615645454105340459067
468,1.7726420880137868061552493213141
469,1.7730719732756049057188196486057
470,1.7735009437664252581265907560007
471,1.7739290033806932289664786327870
472,1.7743561559881061962386128827572
473,1.7747824054338216053682250624067
474,1.7752077555386675223454824084527
475,1.7756322100993446077162905061138
476,1.7760557728886320251983069374252
477,1.7764784476555876178869739684291
478,1.7769002381257470280083026712301
479,1.7773211480013206495688567690191
480,1.7777411809613888084516974474046
481,1.7781603406620937207988082605166
482,1.7785786307368317984321645628840
483,1.7789960547964416812759662267845
484,1.7794126164293908164980177998013
485,1.7798283192019620612104640420515
486,1.7802431666584348934847476220802
487,1.7806571623212680804257268901195
488,1.7810703096912783997518306523466
489,1.7814826122478186429408903444118
490,1.7818940734489527629460871314346
491,1.7823046967316303006401425430352
492,1.7827144855118586780493563509290
493,1.7831234431848733332575976125058
494,1.7835315731253067908906296280767
495,1.7839388786873548605430808811571
496,1.7843453632049432074354254701779
497,1.7847510299918899806840234578426
498,1.7851558823420684442983575625196
499,1.7855599235295671080853242043165
500,1.785963156808849488787132874275
501,1.786365585414909247318453274357
502,1.786767212563428157104758977666
503,1.787168041450928371467468322369
504,1.787568075254926833707182989878
505,1.787967317134084677164369852631
506,1.788365770228357345149935050019
507,1.788763437659143278578287692562
508,1.789160322529430811062055921618
509,1.789556427923941502154602420280
510,1.789951756909275961770335526435
511,1.790346312534055396649992663273
512,1.790740097829062778855840938385
513,1.791133115807382251820841259660
514,1.791525369464537450203767685765
515,1.791916861778629107635410570595
516,1.792307595710470162533778582962
517,1.792697574203719436567216953460
518,1.793086800185015670991698081719
519,1.793475276564108702648467372041
520,1.793863006233990636466414404099
521,1.794249992071023809540694602649
522,1.794636236935069822830393225551
523,1.795021743669616077476427147283
