Eigenstate,Potential Energy
1,0.500000000037076909544396984985592177
2,0.64623093789313332970408898062844193
3,0.73633761041588575652712208883734399
4,0.79966527929498267418049282911344878
5,0.8480465778506356736745376096246438
6,0.8870660008392860336552473214147950
7,0.9197208296999369637703276458736869
8,0.9477838508099782528508975541493422
9,0.9723835631759521816635661893570250
10,0.9942802209466011368371425453200881
11,1.0140093942630837109712508642759187
12,1.0319621784301200853755759657165880
13,1.0484327035135913145265069459393244
14,1.0636476671967051624201105853607046
15,1.0777854505941835861307352014005055
16,1.090988923122709500186971170718995
17,1.103374275962432316606099222564034
18,1.115037273063168303091049324027050
19,1.126057774248378884727109761284241
20,1.136503072849107614605772172461770
21,1.146430401785677762002821970811182
22,1.155888844726432765578044424167886
23,1.164920814024261140264009319468786
24,1.173563208117018836177157632870854
25,1.181848328323455790411718533989748
26,1.189804612650803807513290939426580
27,1.197457228757352501406461084720733
28,1.204828557311489221157696599698678
29,1.211938589193651060558960488255950
30,1.218805254338149481586222218981582
31,1.225444695865889581253915571644494
32,1.231871500081106446335177588507911
33,1.238098890595593236055647451212694
34,1.244138893093349366550959510959678
35,1.250002475909382105069892840060623
36,1.255699670562916003285169633960729
37,1.261239675581180050512650228932337
38,1.266630946319523684470393851708204
39,1.271881272985764147673418184080246
40,1.276997848680846894003782633123964
41,1.281987328951150476267948354175866
42,1.286855884092774744044307444905593
43,1.291609245241664836205746485476450
44,1.296252745115329436997713606539133
45,1.300791354134342195555960256766709
46,1.305229712538678926156023668189902
47,1.309572159020466594156727685547493
48,1.313822756317133728353753889171393
49,1.317985314144289356564615419321475
50,1.32206340979353484761484241152540
51,1.32606040667494608042427615493719
52,1.32997947104561814659433296275307
53,1.33382358713321467435229500097802
54,1.33759557083590273025366663549483
55,1.34129808215657876253268007890790
56,1.34493363650921647986672490126405
57,1.34850461501796859420213754148776
58,1.35201327391485716999858298016449
59,1.35546175312913337497450936616892
60,1.35885208415036291973451797122286
61,1.36218619723772924615525332212846
62,1.36546592803974551929339874004791
63,1.36869302368132458855902490383657
64,1.37186914836884360397579223056154
65,1.37499588855830513337693206402050
66,1.37807475772684928733201935377067
67,1.38110720078360906727391991818141
68,1.38409459815214499148689725214370
69,1.38703826955338238289023000021431
70,1.38993947751504643428765002468415
71,1.39279943063099146302205282522178
72,1.39561928659152252459494037081386
73,1.39840015500375454840682630252747
74,1.40114310001923531022194328711672
75,1.40384914278442745485770186541654
76,1.40651926372819522584402423536081
77,1.40915440469913916037968043040009
78,1.41175547096445620973246161887407
79,1.41432333308095592523783971832947
80,1.41685882864792522440621815082340
81,1.41936276395068491017237795283533
82,1.42183591550291966576706693917326
83,1.42427903149517451390105134052176
84,1.42669283315628643723580696137923
85,1.42907801603396058094130066875337
86,1.43143525120018459275193003387563
87,1.43376518638671718513190621088251
88,1.43606844705546362642553662609841
89,1.43834563740816736570637637253583
90,1.44059734133950377930994364564043
91,1.44282412333734057498399594804391
92,1.44502652933364109205113114508770
93,1.44720508750922448092295754084795
94,1.44936030905535381656684523146744
95,1.45149268889490204649736020671406
96,1.45360270636564385174788648475392
97,1.45569082586803715716856997388467
98,1.45775749747968515310168336507848
99,1.45980315753851621829672613657893
100,1.46182822919657279351119343790464
101,1.46383312294617095108867235961708
102,1.46581823712006683108475603746271
103,1.46778395836715820089831974451958
104,1.46973066210514213065552844636733
105,1.47165871295145670283670669141405
106,1.47356846513374391039277062570217
107,1.47546026288099281564238865868681
108,1.47733444079644280268662317335701
109,1.47919132421325816254377710716121
110,1.48103122953392283008195358192716
111,1.48285446455423823062844330967947
112,1.48466132877275776050152091468045
113,1.48645211368643588991617383260367
114,1.48822710307322111895897265218707
115,1.48998657326228156882470633312809
116,1.49173079339250365885921027038926
117,1.49346002565987260694600384992602
118,1.49517452555430245966891586953248
119,1.49687454208644964496638948125815
120,1.49856031800501819775844009145542
121,1.50023209000502654178278522553879
122,1.50189008892748679774400744729782
123,1.50353453995091539494764271316802
124,1.50516566277507608378234040873696
125,1.50678367179732688015022474842166
126,1.50838877628192727564804992430869
127,1.50998118052264146941525603380724
128,1.51156108399895079037530031761123
129,1.51312868152617640535838705230551
130,1.51468416339979502672658538307391
131,1.51622771553421492900415866103668
132,1.51775951959626460681538998446214
133,1.51927975313363462484772691492956
134,1.52078858969850193459987358873607
135,1.52228619896654782433155567316816
136,1.52377274685157698110132623744988
137,1.52524839561593183583552609917448
138,1.52671330397688275038054792988124
139,1.52816762720917249958530366572961
140,1.52961151724387805549220238545881
141,1.53104512276374812322527173397810
142,1.53246858929516680489685042061840
143,1.53388205929688511768506624778486
144,1.53528567224565491259730241842267
145,1.53667956471889555267576913486885
146,1.53806387047451584065047814649527
147,1.53943872052800548307884948541247
148,1.54080424322691141997774238570902
149,1.54216056432280082087981175529968
150,1.54350780704081438816839216958245
151,1.54484609214690588192190587198683
152,1.54617553801285816541365741094394
153,1.54749626067916472093660578532160
154,1.54880837391586053517046669149946
155,1.55011198928138059005888768636910
156,1.55140721617952382553445801764557
157,1.55269416191459362066896888109982
158,1.55397293174478661132426268705609
159,1.5552436289338935171108182156739
160,1.5565063548013783151655918984157
161,1.5577612087708942568418353391966
162,1.5590082884172961883841319380212
163,1.5602476895122040288597089389577
164,1.5614795060681720419129683681468
165,1.5627038303815125015327158218532
166,1.5639207530738242673925610476451
167,1.5651303631322735020559368365173
168,1.5663327479486692189312123959059
169,1.5675279933573787230391277968925
170,1.5687161836721226876805617939986
171,1.5698974017216900614369300249706
172,1.5710717288846106721334146382173
173,1.5722392451228209300674452137117
174,1.5734000290143584739885953522810
175,1.5745541577851197447347064258104
176,1.5757017073397101928490516196280
177,1.5768427522914203806879718305834
178,1.5779773659913571333871174161382
179,1.5791056205567561836040202829717
180,1.5802275868985072564079878218069
181,1.5813433347479142428752401136606
182,1.5824529326827181577466813021682
183,1.5835564481524059303941577043177
184,1.5846539475028292706030237911130
185,1.5857454960001554172663951328978
186,1.5868311578541707385817356867477
187,1.5879109962409609842193851913069
188,1.5889850733249836257486349457494
189,1.5900534502805560163807289434367
190,1.5911161873127750210747507532698
191,1.5921733436778873395262822090420
192,1.5932249777031269042092342231983
193,1.5942711468060376572854830798408
194,1.5953119075132950471313074156101
195,1.5963473154790441768047725091566
196,1.5973774255027682963193573366626
197,1.5984022915467020140092931331996
198,1.5994219667528033889301951545446
199,1.6004365034592977381129688111541
200,1.6014459532168070988343884020263
201,1.6024503668040763222855177651641
202,1.6034497942433091747521318648855
203,1.6044442848151251009912656554027
204,1.6054338870731482646683768297464
205,1.6064186488582388311693973954290
206,1.6073986173123795114874516945099
207,1.6083738388922232378122858867861
208,1.6093443593823161922297052756246
209,1.6103102239080019313613613842818
210,1.6112714769480181025466588332637
211,1.6122281623467931105258999774754
212,1.6131803233264529617495944688862
213,1.6141280024985426642047850171492
214,1.6150712418754771584446168506218
215,1.6160100828817209860489376813390
216,1.6169445663647106499691089104226
217,1.6178747326055236257956523169776
218,1.6188006213293029963943714146558
219,1.6197222717154409828431119564546
220,1.6206397224075338797925106999726
221,1.6215530115231062975365725860448
222,1.6224621766631219081542578654362
223,1.6233672549212742565487583481332
224,1.6242682828930726956784394274387
225,1.6251652966847260025174258504525
226,1.6260583319218272126821052265712
227,1.6269474237578483165653944486592
228,1.6278326068824466271737360162938
229,1.6287139155295899718052259339153
230,1.6295913834855053938009172688993
231,1.6304650440964531536270507624032
232,1.6313349302763364381963795492501
233,1.6322010745141417639202760779878
234,1.6330635088812262195446045899019
235,1.6339222650384447198564942709151
236,1.6347773742431269690171771133556
237,1.6356288673559077536343383437553
238,1.6364767748474122965718485575158
239,1.6373211268048021070622649795992
240,1.6381619529381834805253241359730
241,1.6389992825868829294255792758590
242,1.6398331447255924011042023674533
243,1.6406635679703883133426427002446
244,1.6414905805846260958777825341951
245,1.6423142104847146109637484781405
246,1.6431344852457729715310324670442
247,1.6439514321071711387118246211298
248,1.6447650779779618792690073078341
249,1.6455754494421990514274283915457
250,1.6463825727641526032109120592566
251,1.6471864738934181826953105177042
252,1.6479871784699241580751496478756
253,1.6487847118288411191452588070260
254,1.6495790990053935164524822035895
255,1.6503703647395773175447378938221
256,1.6511585334807837650827063894521
257,1.6519436293923356275561488961210
258,1.6527256763559323866622078425358
259,1.6535046979760111641939328862431
260,1.6542807175840237741420466787051
261,1.6550537582426302130652911359320
262,1.6558238427498133134594524410909
263,1.6565909936429134100104812847261
264,1.6573552332025884688877044312540
265,1.6581165834566982046082732892651
266,1.6588750661841143515078218447985
267,1.6596307029184603023533543108743
268,1.6603835149517801470999425077971
269,1.6611335233381413809940418728748
270,1.6618807488971670054507138229710
271,1.6626252122175063049445036137098
272,1.6633669336602382787612232581378
273,1.6641059333622151700080141814776
274,1.6648422312393433001827421405047
275,1.6655758469898050841643848230105
276,1.6663068000972205032606186329733
277,1.6670351098337555196087511820334
278,1.6677607952631691858609785843279
279,1.6684838752438109526052749797570
280,1.6692043684315602663745581169896
281,1.6699222932827163470543274300856
282,1.6706376680568356409440446929453
283,1.6713505108195201619054897299893
284,1.6720608394451538771204414041250
285,1.6727686716195939447057656326538
286,1.6734740248428128279179193270230
287,1.6741769164314963452257951533097
288,1.6748773635215940580149223155418
289,1.6755753830708266439747363031567
290,1.6762709918611509886838935611187
291,1.6769642065011808363213205780645
292,1.6776550434285658843973225468955
293,1.6783435189123332282667825947239
294,1.6790296490551861923274294613094
295,1.6797134497957626350350829694487
296,1.6803949369108603132845792638091
297,1.6810741260176192378688017137217
298,1.6817510325756703367550477565324
299,1.6824256718892472290227215260175
300,1.6830980591092628600531582893703
301,1.6837682092353514093956708638009
302,1.6844361371178775642277455542625
303,1.6851018574599103315245901004692
304,1.6857653848191649664529594380681
305,1.6864267336099144455022108173028
306,1.6870859181048697475577605877712
307,1.6877429524370261248772546848860
308,1.6883978506014828424035710895254
309,1.6890506264572324746869610477247
310,1.6897012937289200955688480208211
311,1.6903498660085759555367813019830
312,1.6909963567573191598900017721735
313,1.6916407793070337404706960502396
314,1.6922831468620189252418232325652
315,1.6929234725006129253617668944099
316,1.6935617691767916154045462694894
317,1.6941980497217396453382708229734
318,1.6948323268453993355141188143670
319,1.6954646131379944962353133535279
320,1.6960949210715291731724917634599
321,1.6967232630012652375669462008374
322,1.6973496511671749356614747518330
323,1.6979740976953719114053907515382
324,1.6985966145995196795821642664823
325,1.6992172137822193113486059278755
326,1.6998359070363745694210044055698
327,1.7004527060465373136719772245394
328,1.7010676223902303663419438186516
329,1.7016806675392528117321844355926
330,1.7022918528609641620548956752852
331,1.7029011896195488280253173849694
332,1.7035086889772619554296983224306
333,1.7041143619956570062155587132734
334,1.7047182196367932681197291179539
335,1.7053202727644276077584704882253
336,1.7059205321451865252233694721004
337,1.7065190084497213824207413686153
338,1.7071157122538478639991304762834
339,1.7077106540396657353637147985837
340,1.7083038441966649891109860221604
341,1.7088952930228140934535942282237
342,1.7094850107256328397779172114483
343,1.7100730074232494271158592614577
344,1.7106592931454417772317108783339
345,1.7112438778346648996514391116659
346,1.7118267713470617814223230121955
347,1.7124079834534613669559162090524
348,1.7129875238403604396716397548834
349,1.7135654021108929503597829629981
350,1.7141416277857843345990673463366
351,1.7147162103042929068268278860579
352,1.7152891590251380134221960979600
353,1.7158604832274142291754841098518
354,1.7164301921114930116163454815429
355,1.7169982947999121784798440395730
356,1.7175648003382514180963872703689
357,1.7181297176959970717464995435990
358,1.7186930557673954319853432319848
359,1.7192548233722903020793452531503
360,1.7198150292569537544789693257963
361,1.7203736820949018332010918521631
362,1.7209307904877016817265605660772
363,1.7214863629657646920323152118377
364,1.7220404079891306987576041924207
365,1.7225929339482414548798211400473
366,1.7231439491647022665757567041216
367,1.7236934618920346792873964628427
368,1.7242414803164170037301290206227
369,1.7247880125574173143978341185849
370,1.7253330666687146337496535278966
371,1.7258766506388111553983967208783
372,1.7264187723917344627901124862631
373,1.7269594397877297101022086850977
374,1.7274986606239460738509168689590
375,1.7280364426351081667900762727350
376,1.7285727934941838703294552569017
377,1.7291077208130403746963837432955
378,1.7296412321430915942643724307327
379,1.7301733349759387978652387324993
380,1.7307040367440012108620117811171
381,1.7312333448211394644341757167190
382,1.7317612665232690102575697866871
383,1.7322878091089681752573484179849
384,1.7328129797800758201476617883849
385,1.7333367856822822230297465703364
386,1.7338592339057138467142112653560
387,1.7343803314855077391199430134318
388,1.7349000854023795035622393177439
389,1.7354185025831855136294831264724
390,1.7359355899014765617688869890899
391,1.7364513541780432585354308082311
392,1.7369658021814567908940966927351
393,1.7374789406286025130755335550087
394,1.7379907761852049510951584041535
395,1.7385013154663470778219944029013
396,1.7390105650369835094780802344908
397,1.7395185314124472534900677296419
398,1.7400252210589500158414511960704
399,1.7405306403940746337303516873116
400,1.7410347957872639335052302285558
401,1.7415376935603020628122326337484
402,1.7420393399877890421864131604601
403,1.7425397412976113568408588871481
404,1.7430389036714064817600421851350
405,1.7435368332450188055579254750735
406,1.7440335361089530621522404067582
407,1.7445290183088223869914855235953
408,1.7450232858457885010459102029653
409,1.7455163446769968836576099488477
410,1.7460082007160094487456289790928
411,1.7464988598332289844027214383468
412,1.7469883278563189384926816963467
413,1.7474766105706196293263597168800
414,1.7479637137195573052832018477841
415,1.7484496430050503373603665347728
416,1.7489344040879089743043218497125
417,1.7494180025882315088330025124798
418,1.7499004440857940182072680320600
419,1.7503817341204379576865812906508
420,1.7508618781924505888134836915429
421,1.7513408817629421947354815932436
422,1.7518187502542193641907963246970
423,1.7522954890501521803234282456014
424,1.7527711034965389280779106296975
425,1.7532455989014646995594183818551
426,1.7537189805356575042260269686147
427,1.7541912536328393685700516512995
428,1.7546624233900724390029182832351
429,1.7551324949681040003591042151379
430,1.7556014734917032721527695560836
431,1.7560693640499974862698292470488
432,1.7565361716968043956380048560427
433,1.7570019014509565518016837063523
434,1.7574665582966284493676704058817
435,1.7579301471836543610258149586907
436,1.7583926730278447641659715439876
437,1.7588541407112995204900063044625
438,1.7593145550827167907158672915335
439,1.7597739209576983657079246066030
440,1.7602322431190524852802954327635
441,1.7606895263170913045566867353962
442,1.7611457752699265715677035590398
443,1.7616009946637631638126311632740
444,1.7620551891531851031905363153624
445,1.7625083633614433799950783976966
446,1.7629605218807366103542967509080
447,1.7634116692724916963210367220896
448,1.7638618100676377068510579317931
449,1.7643109487668808202079686390880
450,1.7647590898409724802747067241584
451,1.7652062377309782699024405521943
452,1.7656523968485403426825010405356
453,1.7660975715761391562528943122465
454,1.7665417662673508961271464804643
455,1.7669849852471042139560819515970
456,1.7674272328119315772651941252876
457,1.7678685132302199264127947428421
458,1.7683088307424570347097955827357
459,1.7687481895614760856675716946689
460,1.7691865938726981097613497467496
461,1.7696240478343701304769697016127
462,1.7700605555778022327388249240045
463,1.7704961212076021575344399218734
464,1.7709307488019055836887611393450
465,1.7713644424126060655733094184093
466,1.7717972060655817574942621814509
467,1.7722290437609182053267316547766
468,1.7726599594731322210864669468325
469,1.7730899571513893171887930859395
470,1.7735190407197222249874350152686
471,1.7739472140772447647544594116910
472,1.7743744810983653647697202365520
473,1.7748008456329955804759609503212
474,1.7752263115067611177528267971095
475,1.7756508825212042831224134312576
476,1.7760745624539903747507846389417
477,1.7764973550591083473029412917297
478,1.7769192640670704267018621115577
479,1.7773402931851095642372464720151
480,1.7777604460973751246691323134242
481,1.7781797264651253592666389558849
482,1.7785981379269202326336574775920
483,1.7790156840988099833866060535368
484,1.7794323685745222385047065152433
485,1.7798481949256491583008696495777
486,1.7802631667018291968732511463771
487,1.7806772874309303268931725446255
488,1.7810905606192293252862440546635
489,1.7815029897515903479810455399732
490,1.7819145782916406568438930649408
491,1.7823253296819456330744517109786
492,1.7827352473441816652438484619235
493,1.7831443346793068869767712612637
494,1.7835525950677308583102664342649
495,1.7839600318694813832177004860312
496,1.7843666484243717077137952912046
497,1.7847724480521637840516415066064
498,1.7851774340527315462608856983281
499,1.7855816097062216943392758144289
500,1.785984978273214117562289211432
501,1.786387542994877702916309788929
502,1.786789307093128983798091371566
503,1.787190273770785097071881945623
504,1.787590446211718892281888971890
505,1.787989827581009040449426845364
506,1.788388421025090872500050033644
507,1.788786229671905795307072018718
508,1.789183256631048925271243336136
509,1.789579504993913170280899614830
510,1.789974977833835813247944863614
511,1.790369678206240828254455784650
512,1.790763609148780829460988804532
513,1.791156773681477268479120813832
514,1.791549174806859556631219461899
515,1.791940815510103486365961312946
516,1.792331698759167162186947431001
517,1.792721827504925515861348062967
518,1.793111204681305191324457134262
519,1.793499833205416581257581332432
520,1.793887715977685872382533618560
521,1.794274855881983894741924115141
522,1.794661255785756051215206071836
523,1.795046918540149764475999254180
