Eigenstate,Potential Energy
1,0.500000000064428457974184513141744784
2,0.64623093807167047910021310181590948
3,0.73633761094032648505241107304665860
4,0.79966528038733927341659428252119731
5,0.8480465797428350644719488601608856
6,0.8870660037673231499616962012981117
7,0.9197208339017216575689283165611186
8,0.9477838565244383901869359130251752
9,0.9723835706426175238074864702794252
10,0.9942802304053930100101572624616837
11,1.0140094059542015530096813112527970
12,1.0319621925939773604798528443205412
13,1.0484327203907783052488095427724593
14,1.0636476870279672306236621368746748
15,1.0777854736204087671816812406166285
16,1.090988949584921960938714198299724
17,1.103374306101789628843555505805211
18,1.115037307120961276876356594756692
19,1.126057812466033166326360261489526
20,1.136503115468186530405356421198877
21,1.146430449047886061468970030776782
22,1.155888896873621025771145355564668
23,1.164920871298430665977255187328070
24,1.173563270760326937609414029347242
25,1.181848396578221352923531306695252
26,1.189804686759513090697062310963704
27,1.197457308962665120732033276754591
28,1.204828643856244276959625738468548
29,1.211938682320873387506877572027504
30,1.218805354291055997956550104953720
31,1.225444802887895721932214497449737
32,1.231871614415832666959266054644140
33,1.238099012486871578364950184189696
34,1.244139022785230077052808110555969
35,1.250002613646140300723333128198782
36,1.255699816589058379149122308233573
37,1.261239830141451625290197521262721
38,1.266631109658914580665125167677229
39,1.271881445349516403702576618809668
40,1.276998030314461306120628292296122
41,1.281987520100393468558132008819028
42,1.286856085003685265098172776504801
43,1.291609456160561281345642515200729
44,1.296252966288816595168442342002436
45,1.300791585809318220176872986315040
46,1.305229954962342329392341284242597
47,1.309572412440323264201060344561911
48,1.313823020981003969421413979017628
49,1.317985590300314951401655796733903
50,1.32206369769018614239888486817729
51,1.32606070656102909200762444673497
52,1.32997978317028169209839648678682
53,1.33382391174595752317365310724565
54,1.33759590818658077858662243146117
55,1.34129843249541223055177537296237
56,1.34493400008679713174643972789522
57,1.34850499208526698118055264706347
58,1.35201366472322989671792943015086
59,1.35546215793033038935445490967674
60,1.35885250319653482665459117164123
61,1.36218663078143464524099711087939
62,1.36546637633395836711727809537025
63,1.36869348697944158558176245442576
64,1.37186962692469160656712777288078
65,1.37499638262614859126695844910793
66,1.37807526756139770685522672920265
67,1.38110772664002450077822157550705
68,1.38409514028604955328922267812527
69,1.38703882822086579216902490964494
70,1.38994005297267358531045583502777
71,1.39280002313581002311408570997111
72,1.39561989640107056026146512165983
73,1.39840078237606818002893702141121
74,1.40114374521285639575156633463775
75,1.40384980605841130294378404414294
76,1.40651994534211833882749048046093
77,1.40915510491310700760038979030812
78,1.41175619003911103159670514632317
79,1.41432407127748456850010520286546
80,1.41685958622806700912389443253488
81,1.41936354117673952879711085128331
82,1.42183671263775511484116274203512
83,1.42427984880223505883207674139297
84,1.42669367089960061062716856119726
85,1.42907887447814921496116585713151
86,1.43143613061046888602731244639778
87,1.43376608702892680465934056971052
88,1.43606936919604484499410131740378
89,1.43834658131419123533333656089663
90,1.44059830727867434119365149870331
91,1.44282511157800310648314751197367
92,1.44502754014479039120387231449799
93,1.44720612116051318902375029315106
94,1.44936136581710077932341595549428
95,1.45149376903810071429458946676455
96,1.45360381016197071954980532478342
97,1.45569195358986024459433988004083
98,1.45775864940007252521570818986569
99,1.45980433393124454765786146480000
100,1.46182943033613596403036879822623
101,1.46383434910778870424906824742231
102,1.46581948857969345508318574033129
103,1.46778523540149126327120214138359
104,1.46973196499163125495781989962549
105,1.47166004196831238994659703477959
106,1.47356982055994640502014144777566
107,1.47546164499630101862366336910630
108,1.47733584988140322965382377285860
109,1.47919276054921394956051690909324
110,1.48103269340302278684417379953804
111,1.48285595623944594183286745691958
112,1.48466284855786073598995484159676
113,1.48645366185605476420918452311966
114,1.48822867991281890079753751679391
115,1.48998817905817294134411168943831
116,1.49173242843186433102473318790172
117,1.49346169023074871688560542313995
118,1.49517621994562003054357720696403
119,1.49687626658802409402455608095612
120,1.49856207290756389922678918466931
121,1.50023387560016644425122208894626
122,1.50189190550776209670885302653780
123,1.50353638780979526118278775610554
124,1.50516754220696744821434331410124
125,1.50678558309758427591939534017842
126,1.50839071974686273804377437880388
127,1.50998315644953449438007748457291
128,1.51156309268605835227879477647306
129,1.51313072327274303474820785822057
130,1.51468623850606294877060215636968
131,1.51622982430143426334430302734826
132,1.51776166232670362956067979669963
133,1.51928193013059009344038786207861
134,1.52079080126630947629586948607294
135,1.52228844541059238904348109175396
136,1.52377502847830335935888639514560
137,1.52525071273285524262591280672619
138,1.52671565689259947563848593820303
139,1.52817001623337062610977876903412
140,1.52961394268734824507443158453523
141,1.53104758493839447178003353188477
142,1.53247108851401776739709401563762
143,1.53388459587410450370740010640528
144,1.53528824649655295329393298163548
145,1.53668217695994003999645447975643
146,1.53806652102334333964616801054124
147,1.53944140970343261812696102566242
148,1.54080697134894623577733213410811
149,1.54216333171265421907342435131711
150,1.54351061402091164045571198105945
151,1.54484893904089822053943625478897
152,1.54617842514563445186305950473583
153,1.54749918837686319385344945038572
154,1.54881134250588063823417155250898
155,1.55011499909239488085375824326599
156,1.55141026754148996628116943003620
157,1.55269725515876645175502652204320
158,1.55397606720373030857170437435067
159,1.5552468069414938337290091701926
160,1.5565095756928549093468738521491
161,1.5577644728828131059675858983511
162,1.5590115960875820908191128761031
163,1.5602510410801531943224297413409
164,1.5614829018744647714205726483056
165,1.5627072707682259579291285442113
166,1.5639242383844453374793229811078
167,1.5651338937117117513559000457768
168,1.5663363241432699401264602500702
169,1.5675316155149360791351570482081
170,1.5687198521418929509603954382483
171,1.5699011168544049492799242301652
172,1.5710754910324907807853093842425
173,1.5722430546395892674596773824213
174,1.5734038862552540927169410241847
175,1.5745580631069114763192893658901
176,1.5757056611007104844099270070466
177,1.5768467548514992351828361343588
178,1.5779814177119561545703524325849
179,1.5791097218009027268787960591840
180,1.5802317380308286867561393822664
181,1.5813475361346523010627485272264
182,1.5824571846917434360156461155121
183,1.5835607511532324588656920632726
184,1.5846583018666292156291214400490
185,1.5857499020997738929825662948323
186,1.5868356160641407329261077788775
187,1.5879155069375184006983209591956
188,1.5889896368860824422431121973945
189,1.5900580670858835623024211245926
190,1.5911208577437673741954898715754
191,1.5921780681177448438195278575427
192,1.5932297565368298100573426285525
193,1.5942759804203618854220876222856
194,1.5953167962968280777034381755422
195,1.5963522598222010649558135015051
196,1.5973824257978078157090295623846
197,1.5984073481877429297040559292829
198,1.5994270801358408611132957919011
199,1.6004416739822198580805495770330
200,1.6014511812794115587606434706766
201,1.6024556528080872202574136454842
202,1.6034551385923939565915615230620
203,1.6044496879149116404000721925178
204,1.6054393493312420832497090211138
205,1.6064241706842404598970589909773
206,1.6074041991179019952133290596313
207,1.6083794810909097844208516940256
208,1.6093500623898579680669958642584
209,1.6103159881421560045858779592534
210,1.6112773028286255360683379062398
211,1.6122340502957972062196988728256
212,1.6131862737679176576499926521085
213,1.6141340158586710864081228472155
214,1.6150773185826303294663334647508
215,1.6160162233664366914042693269936
216,1.6169507710597224647668616063476
217,1.6178810019457801031560308635332
218,1.6188069557519870195237212573624
219,1.6197286716599892826210115985588
220,1.6206461883156567197484533890615
221,1.6215595438388073281169729321003
222,1.6224687758327181922028787537465
223,1.6233739213934164679481070751937
224,1.6242750171187654931222651996553
225,1.6251720991173485804098831907278
226,1.6260652030171540311825851691069
227,1.6269543639740700128233838176321
228,1.6278396166801911098232774141938
229,1.6287209953719437008139614432503
230,1.6295985338380348477946833455052
231,1.6304722654272264868373750597329
232,1.6313422230559453292047353243698
233,1.6322084392157234584005034889584
234,1.6330709459804857692319149033592
235,1.6339297750136774199995503291996
236,1.6347849575752409965978672956600
237,1.6356365245284470086691896857893
238,1.6364845063465794488372591910320
239,1.6373289331194818506159332016064
240,1.6381698345599659984263065335961
241,1.6390072400100875710853535960731
242,1.6398411784472915747321651077616
243,1.6406716784904315959813807596436
244,1.6414987684056645635545297493057
245,1.6423224761122253915168873145625
246,1.6431428291880840227038711097209
247,1.6439598548754862541383395328720
248,1.6447735800863859250104342282820
249,1.6455840314077634357526610318243
250,1.6463912351068409823485202174844
251,1.6471952171361924053206127530136
252,1.6479960031387504513308902199322
253,1.6487936184527165190310618941328
254,1.6495880881163725454559770894190
255,1.6503794368727989124230445934686
256,1.6511676891744984577427644771956
257,1.6519528691879329820198395371174
258,1.6527350007979686951416937298546
259,1.6535141076122374053427170600033
260,1.6542902129654138365871953915905
261,1.6550633399234093873675440310059
262,1.6558335112874870556896330123017
263,1.6566007495982963801726052894542
264,1.6573650771398338474623906891856
265,1.6581265159433272905334192245663
266,1.6588850877910464449580456153768
267,1.6596408142200428757239233616425
268,1.6603937165258193076475581022986
269,1.6611438157659326286324783593298
270,1.6618911327635262892463477777696
271,1.6626356881108013819046872228521
272,1.6633775021724203785571820432500
273,1.6641165950888509693229462045661
274,1.6648529867796472104254741029429
275,1.6655866969466718563405291836735
276,1.6663177450772581538442954777909
277,1.6670461504473185813104060235583
278,1.6677719321243922872400111285591
279,1.6684951089706427305303232224228
280,1.6692156996457976153893292366784
281,1.6699337226100390097624413161398
282,1.6706491961268411435832563773642
283,1.6713621382657590993385174108353
284,1.6720725669051655515291977257563
285,1.6727804997349423623347896520480
286,1.6734859542591230582720534440271
287,1.6741889477984912471904935693812
288,1.6748894974931313774279567605842
289,1.6755876203049364872426216048174
290,1.6762833330200736771000497611223
291,1.6769766522514051458081859809272
292,1.6776675944408676754617954928714
293,1.6783561758618144710246995485890
294,1.6790424126213143915223725596619
295,1.6797263206624106600456617051266
296,1.6804079157663466381858234587323
297,1.6810872135547485966843532525167
298,1.6817642294917747991107215717372
299,1.6824389788862277014859183602027
300,1.6831114768936310185180379935645
301,1.6837817385182720679508734974361
302,1.6844497786152114860216341029497
303,1.6851156118922574872215171242663
304,1.6857792529119082459556774700196
305,1.6864407160932638286966444445937
306,1.6871000157139069399196111132211
307,1.6877571659117496638650919550878
308,1.6884121806868536806487079703261
309,1.6890650739032200460779619778700
310,1.6897158592905488704171692289165
311,1.6903645504459724911007793354550
312,1.6910111608357596526266748757805
313,1.6916557037969920864769921144500
314,1.6922981925392152954434635674031
315,1.6929386401460628621035024931876
316,1.6935770595768556571940028971170
317,1.6942134636681734865958636093446
318,1.6948478651354045282824284642352
319,1.6954802765742697009054910314653
320,1.6961107104623219653892262860076
321,1.6967391791604244785812639749878
322,1.6973656949142037135090777577919
323,1.6979902698554810603982072587200
324,1.6986129160036818857140764489938
325,1.6992336452672238113299024773788
326,1.6998524694448824511726837277321
327,1.7004694002271374262295351597476
328,1.7010844491974958472380866174812
329,1.7016976278337982400508330986729
330,1.7023089475095033454729634375508
331,1.7029184194949532322858553139985
332,1.7035260549586197848185102057913
333,1.7041318649683329437448449714300
334,1.7047358604924888842553177324929
335,1.7053380524012424466636665367186
336,1.7059384514676798776294298238416
337,1.7065370683689747543763137388659
338,1.7071339136875281508922226324236
339,1.7077289979120891107562644351945
340,1.7083223314388615180741503828368
341,1.7089139245725930802430040656128
342,1.7095037875276489198402100477529
343,1.7100919304290694135761187521176
344,1.7106783633136122721684623920057
345,1.7112630961307806806283353337855
346,1.7118461387438349739111833204424
347,1.7124275009307914134519627906447
348,1.7130071923854048764733307811150
349,1.7135852227181390031591786320246
350,1.7141616014571213442063224753459
351,1.7147363380490855965306172079202
352,1.7153094418603006096729619069320
353,1.7158809221774854474645696793128
354,1.7164507882087119196138350724336
355,1.7170190490842949486878795740311
356,1.7175857138576689824712799679889
357,1.7181507915062536909451263264956
358,1.7187142909323081920931285721163
359,1.7192762209637695518880768364904
360,1.7198365903550844965929691611334
361,1.7203954077880260824664332572712
362,1.7209526818725018046991536293931
363,1.7215084211473477414221583206663
364,1.7220626340811137570178168959496
365,1.7226153290728380013395250087574
366,1.7231665144528095827530170564570
367,1.7237161984833223072594734769027
368,1.7242643893594162726851164712719
369,1.7248110952096119507416120562915
370,1.7253563240966324703958810238154
371,1.7259000840181169561321953597241
372,1.7264423829073238778578848108408
373,1.7269832286338243794517928626155
374,1.7275226290041898947214024120681
375,1.7280605917626647426296886107795
376,1.7285971245918351583064025026048
377,1.7291322351132865493597630848527
378,1.7296659308882521452068280745636
379,1.7301982194182548795432431360058
380,1.7307291081457392630376318944413
381,1.7312586044546961220157003472691
382,1.7317867156712773216386747191259
383,1.7323134490644051485781562010109
384,1.7328388118463713172374569984941
385,1.7333628111734292211281424076217
386,1.7338854541463800884151122523899
387,1.7344067478111487913350048370655
388,1.7349266991593532466608778249583
389,1.7354453151288680822786831684837
390,1.7359626026043797593721237012959
391,1.7364785684179334675500509178817
392,1.7369932193494754016955178088949
393,1.7375065621273878944375789332803
394,1.7380186034290159857547056621197
395,1.7385293498811882870137920356025
396,1.7390388080607317907469463451421
397,1.7395469844949802565137125291693
398,1.7400538856622761814415701559550
399,1.7405595179924649216918916875125
400,1.7410638878673852652825957947644
401,1.7415670016213525056674201102443
402,1.7420688655416347617784361096781
403,1.7425694858689253657719865176094
404,1.7430688687978092120753027632731
405,1.7435670204772205337072526919031
406,1.7440639470108982154318165915427
407,1.7445596544578357610121144895839
408,1.7450541488327234183121526746099
409,1.7455474361063853238880238872730
410,1.7460395222062141821265450854967
411,1.7465304130165977395370729753321
412,1.7470201143793406373894014405814
413,1.7475086320940827223714496788643
414,1.7479959719187102397411925769569
415,1.7484821395697641935757650057393
416,1.7489671407228423044057681043481
417,1.7494509810129974133902294759698
418,1.7499336660351294969539397059620
419,1.7504152013443755710928920030455
420,1.7508955924564924679864265836225
421,1.7513748448482364378256227139290
422,1.7518529639577388582041941804731
423,1.7523299551848758879739210978297
424,1.7528058238916356800623529538474
425,1.7532805754024795334089954746898
426,1.7537542150047005916661605569241
427,1.7542267479487775741252700258427
428,1.7546981794487235533987623230300
429,1.7551685146824336931107404659717
430,1.7556377587920248085815648983778
431,1.7561059168841742550634541667579
432,1.7565729940304552939616818377925
433,1.7570389952676642758793164036239
434,1.7575039255981507393849030333256
435,1.7579677899901382501576439611150
436,1.7584305933780438825066020523177
437,1.7588923406627945056574839030203
438,1.7593530367121388579230851739977
439,1.7598126863609560911308923149494
440,1.7602712944115618576192705640229
441,1.7607288656340091007752123081290
442,1.7611854047663871139040771765023
443,1.7616409165151185162999526448369
444,1.7620954055552487670844319491481
445,1.7625488765307375486960987468807
446,1.7630013340547430456341795043672
447,1.7634527827099062889039263139645
448,1.7639032270486287856785284334736
449,1.7643526715933512760172389169459
450,1.7648011208368257704564683289030
451,1.7652485792423883729674030623463
452,1.7656950512442257320647700550840
453,1.7661405412476408646070704204630
454,1.7665850536293147427353875683394
455,1.7670285927375672693673757477318
456,1.7674711628926129408109183307825
457,1.7679127683868158938210938618022
458,1.7683534134849407346406663184049
459,1.7687931024244016656379608715642
460,1.7692318394155095536119771429642
461,1.7696696286417147912578220778371
462,1.7701064742598491666514721027639
463,1.7705423804003653463820301823578
464,1.7709773511675721351310012396172
465,1.7714113906398694823824948774889
466,1.7718445028699803689484001679878
467,1.7722766918851788558663505474143
468,1.7727079616875193133996187935871
469,1.7731383162540593089745191403908
470,1.7735677595370836807888352179343
471,1.7739962954643240664435021753498
472,1.7744239279391781865117418586807
473,1.7748506608409242363033171224906
474,1.7752764980249378922351745570864
475,1.7757014433229008580407233574489
476,1.7761255005430134671592148791801
477,1.7765486734702016769013927664147
478,1.7769709658663231330492974458219
479,1.7773923814703711970045490937493
480,1.7778129239986773328680761635680
481,1.7782325971451104081978981912083
482,1.7786514045812764801794334503782
483,1.7790693499567144502215297741389
484,1.7794864368990904098308584411040
485,1.7799026690143921578167717176800
486,1.7803180498871184768744726665906
487,1.7807325830804700216720973985817
488,1.7811462721365364183527640791554
489,1.7815591205764828070648468935806
490,1.7819711319007336941766848779603
491,1.7823823095891562520694356429290
492,1.7827926571012416584133804093067
493,1.7832021778762844537481883879893
494,1.7836108753335610153144442480003
495,1.7840187528725053436569164536881
496,1.7844258138728854105398678656094
497,1.7848320616949757579328802805320
498,1.7852374996797302976678211304205
499,1.7856421311489528135587184515829
500,1.786045959405467301036642425220
501,1.786448987733283895032369349291
502,1.786851219397767846091606790443
503,1.787252657645803017798326053374
504,1.787653305705957754419590529899
505,1.788053166788645971461874051367
506,1.788452244086289204581681502902
507,1.788850540773477470400039040508
508,1.789248060007128584836364881322
509,1.789644804926644175683905608116
510,1.790040778654068448646235056783
511,1.790435984294242944073942933577
512,1.790830424934961190928638116991
513,1.791224103647121880230790206151
514,1.791617023484881241161051195648
515,1.792009187485805001012050599381
516,1.792400598671018146490804324921
517,1.792791260045353568468309597561
518,1.793181174597501383146938987887
519,1.793570345300155719390265684367
520,1.793958775110161837253463884480
521,1.794346466968660381207138670026
522,1.794733423801233052776713880969
523,1.795119648518046148517717705476
