Eigenstate,Potential Energy
1,0.500000000015131695404506866076729002
2,0.64623093774988641468095139308500667
3,0.73633760999510953146176105491131753
4,0.79966527841855392653919039855140071
5,0.8480465763324819167606689682005005
6,0.8870659984900784097570599940068469
7,0.9197208263288196931191574441620259
8,0.9477838462252901933928261431350553
9,0.9723835571855626380419701516537732
10,0.9942802133580805590237098877820529
11,1.0140093848837966666003996012225963
12,1.0319621670672786240471623245399762
13,1.0484326899742867694527306232857775
14,1.0636476512879275428310962967517667
15,1.0777854321228334835149275603002794
16,1.090988901895605292178229539127205
17,1.103374251786314312127362391771646
18,1.115037245744700836296678173163752
19,1.126057743594150996023356733453661
20,1.136503038665632735001589020671532
21,1.146430363879392679328252271065872
22,1.155888802903696063287044195243397
23,1.164920768091351242126437499862299
24,1.173563157880131751781884062458756
25,1.181848273588702630216453026054433
26,1.189804553224208117979046446599328
27,1.197457164444847457893872094298823
28,1.204828487918914707032364588807885
29,1.211938514526750654234157671131119
30,1.218805174202567368276154579143944
31,1.225444610067167402511937779035826
32,1.231871408424680097659281433319837
33,1.238098792886789620713865119043288
34,1.244138789137383112139068266074673
35,1.250002365511352248039000604191681
36,1.255699553527802645677582725849945
37,1.261239551713840992354956888296549
38,1.266630815424691034644326675036003
39,1.271881134868040915581349096742357
40,1.276997703144703563939197349332086
41,1.281987175800921566071216354073702
42,1.286855723132655349354421666587488
43,1.291609076275707161397222505983666
44,1.296252567947439313708935053672119
45,1.300791168568275589563416426631391
46,1.305229518378038433222216711373363
47,1.309571956068697925373422523798684
48,1.313822544377522185412871176985987
49,1.317985093019956297313576315525368
50,1.32206317928743414218908280858374
51,1.32606016658986055819500096933158
52,1.32997922118415603412287642942109
53,1.33382332729780602450236547771056
54,1.33759530082879584257816213468507
55,1.34129780177983659502191323545490
56,1.34493334556471305211896095903769
57,1.34850431330738538205483761964920
58,1.35201296123967949163896084619150
59,1.35546142929064676853086635673913
60,1.35885174894964951233459860641943
61,1.36218585047566411442454078714501
62,1.36546556951699304125440927832577
63,1.36869265319833478688223790930502
64,1.37186876572584848052354069366204
65,1.37499549355531499497321846895064
66,1.37807435016364906268382453856664
67,1.38110678045975461496289245202420
68,1.38409416486695939894430492612005
69,1.38703782310595225626255826863264
70,1.38993901770421817909546016484454
71,1.39279895725536755551004731275855
72,1.39561879944945777366729693396774
73,1.39839965389335234803797906026994
74,1.40114258473834388222965337857124
75,1.40384861313063608192205029495210
76,1.40651871949883047465310235352980
77,1.40915384569126109477999436240025
78,1.41175489697485459375958668571275
79,1.41432274390614641590046877302458
80,1.41685822408414555409462291453428
81,1.41936214379389105856014229741798
82,1.42183527954878202107304878668118
83,1.42427837953907402337668350915038
84,1.42669216499331074674106698719183
85,1.42907733145890016347099681375514
86,1.43143455000752886577241093434726
87,1.43376446837065061658667452316989
88,1.43606771200986182926681977785653
89,1.43834488512659318080828485984299
90,1.44059657161520334661745230356200
91,1.44282333596323939275060958066339
92,1.44502572410234006401684969453336
93,1.44720426421299595128282560414059
94,1.44935946748613759257915906724547
95,1.45149182884430140857932103044983
96,1.45360182762492155090540378886632
97,1.45568992822811139960554770946236
98,1.45775658073112557185316905118679
99,1.45980222147153983172893100489634
100,1.46182727360103995053041112911206
101,1.46383214761158126289988223781019
102,1.46581724183555508933959409037174
103,1.46778294292149028207105018793907
104,1.46972962628671088648434179474756
105,1.47165765654827783666675105307938
106,1.47356738793345183925608786607852
107,1.47545916467083651790882787630846
108,1.47733332136328165111873727230261
109,1.47919018334355774258749456064225
110,1.48103006701375074322378232109871
111,1.48285328016925988264878293382684
112,1.48466012230823213445254681433300
113,1.48645088492721130365162968137247
114,1.48822585180373096704204598940315
115,1.48998529926654004863902160089554
116,1.49172949645410148074681117242658
117,1.49345870556197268819507145650572
118,1.49517318207963560217271670293649
119,1.49687317501731019637389630801496
120,1.49855892712325969593572079393297
121,1.50023067509205734240318104215313
122,1.50188864976426568482387963017400
123,1.50353307631794717414320867155310
124,1.50516417445240715826195455099310
125,1.50678215856454080885519589777416
126,1.50838723791814031375379291837106
127,1.50997961680649809080339498370914
128,1.51155949470861919192596320247167
129,1.51312706643934399287074523024212
130,1.51468252229366388227433308981933
131,1.51622604818549725953138387379826
132,1.51775782578117817377674963952089
133,1.51927803262789815469588524516056
134,1.52078684227733050992143361826501
135,1.52228442440464825543147956591338
136,1.52377094492314315783460652293228
137,1.52524656609464005948322580802975
138,1.52671144663588704536612923171097
139,1.52816574182109990482555354620601
140,1.52960960358082389517578891321034
141,1.53104318059727125681042700869065
142,1.53246661839628485611820580169758
143,1.53388005943606968235820089665457
144,1.53528364319282674500801619596979
145,1.53667750624341973033967681246480
146,1.53806178234519690722686269137046
147,1.53943660251308256922117419299650
148,1.54080209509405334190183326394925
149,1.54215838583910115642882316846936
150,1.54350559797278653015240652859389
151,1.54484385226047806850806434286197
152,1.54617326707336848734134849607501
153,1.54749395845135610533039639022832
154,1.54880604016387570572194743555166
155,1.55010962376875700334678838647012
156,1.55140481866918858325063453528434
157,1.55269173216885835751631555275083
158,1.55397046952534235835069986663171
159,1.5552411340018055402417796949324
160,1.5565038269170809286956412796065
161,1.5577586476941856116442414407974
162,1.5590056939073330345953740348960
163,1.5602450613274964527941385445110
164,1.5614768439665781769608249575869
165,1.5627011341202332127928310793449
166,1.5639180224093978097893481526132
167,1.5651275978205701516881570987420
168,1.5663299477448858773979889439153
169,1.5675251580160334944870241120031
170,1.5687133129470494283130718159013
171,1.5698944953660329012261962698368
172,1.5710687866508185084715379010249
173,1.5722362667626418930930022275517
174,1.5733970142788343633216458276433
175,1.5745511064245804373515930071693
176,1.5756986191037680218261296860099
177,1.5768396269289644845412446828883
178,1.5779742032505477757325677845601
179,1.5791024201850190428612526175015
180,1.5802243486425276852674565241289
181,1.5813400583536314972472226029166
182,1.5824496178953195949077992614454
183,1.5835530947163211760449269267555
184,1.5846505551617243545476637755252
185,1.5857420644969268774235206041208
186,1.5868276869309396930326699219612
187,1.5879074856390671709978093634947
188,1.5889815227849794100733313299642
189,1.5900498595422003650304241807947
190,1.5911125561150274436017294184535
191,1.5921696717589017960028499750115
192,1.5932212648002456791985431641787
193,1.5942673926557851997257347624954
194,1.5953081118513717758196056157047
195,1.5963434780403202511644667452698
196,1.5973735460212773521318296963915
197,1.5983983697556348637885900872939
198,1.5994180023845016866161629303662
199,1.6004324962452476077557180436299
200,1.6014419028876327269401919069017
201,1.6024462730895335134915408549170
202,1.6034456568722788704941883190496
203,1.6044401035156068608263770865228
204,1.6054296615722537099105883365388
205,1.6064143788821850504946993534275
206,1.6073943025864824281604167900193
207,1.6083694791408909381841442824154
208,1.6093399543290422151545377112506
209,1.6103057732753585181739427790241
210,1.6112669804576494072424137041655
211,1.6122236197194083697803185623050
212,1.6131757342818196244112696762900
213,1.6141233667554794798928537931014
214,1.6150665591518472248784112268887
215,1.6160053528944247547340581168742
216,1.6169397888296788898610761763951
217,1.6178699072377103445587092487854
218,1.6187957478426783188697926198741
219,1.6197173498229839863376890248191
220,1.6206347518212253857947043890163
221,1.6215479919539216194640551840470
222,1.6224571078210235547330687813956
223,1.6233621365152045904208341125634
224,1.6242631146309465468304493434537
225,1.6251600782734232361202175573614
226,1.6260530630671852509263980912849
227,1.6269421041646546140756168044623
228,1.6278272362544310995778786658267
229,1.6287084935694173770350351529714
230,1.6295859098947676656926117264007
231,1.6304595185756616873889476135587
232,1.6313293525249143273057650397455
233,1.6321954442304159880078192313652
234,1.6330578257624197828206123855483
235,1.6339165287806687396290667963706
236,1.6347715845413727138482199076034
237,1.6356230239040386306752836525341
238,1.6364708773381557876163447899966
239,1.6373151749297416528493029940609
240,1.6381559463877503128212390283483
241,1.6389932210503478504094858574738
242,1.6398270278910575095768724471127
243,1.6406573955247786772739694260358
244,1.6414843522136813708040347010205
245,1.6423079258729806037405043742673
246,1.6431281440765931489434354917779
247,1.6439450340626780804390472154058
248,1.6447586227390686746949489782950
249,1.6455689366885906397847551429702
250,1.6463760021742770565409271602427
251,1.6471798451444779311008135941506
252,1.6479804912378671567388293241164
253,1.6487779657883519565808644844824
254,1.6495722938298844634508698100428
255,1.6503635001011793162720010661394
256,1.6511516090503373577818393016155
257,1.6519366448393818242990206141384
258,1.6527186313487034715926797663497
259,1.6534975921814214396980819917406
260,1.6542735506676602423754786660931
261,1.6550465298687431942621485891258
262,1.6558165525813070004422788304403
263,1.6565836413413363583141472296858
264,1.6573478184281240219051306341469
265,1.6581091058681548531594785950598
266,1.6588675254389160272285532917704
267,1.6596230986726366042928496396985
268,1.6603758468599565009119940353023
269,1.6611257910535291300990621898151
270,1.6618729520715534335405228692136
271,1.6626173505012445891951955977158
272,1.6633590067022373731132101645353
273,1.6640979408099296178660892686070
274,1.6648341727387629758821257964131
275,1.6655677221854448625429188355320
276,1.6662986086321098566697572199792
277,1.6670268513494280416900843442382
278,1.6677524693996520414077408926319
279,1.6684754816396142528217022590308
280,1.6691959067236663688389341295403
281,1.6699137631065690796845230439412
282,1.6706290690463294492572065790388
283,1.6713418426069891788564878813444
284,1.6720521016613609147965470197863
285,1.6727598638937194071470486461197
286,1.6734651468024435443261822731156
287,1.6741679677026143228167214704041
288,1.6748683437285651537608400567567
289,1.6755662918363891544776740576240
290,1.6762618288064041574104962785764
291,1.6769549712455732774236203784159
292,1.6776457355898839223350793876592
293,1.6783341381066891524394406126426
294,1.6790201948970064259147044039296
295,1.6797039218977758172380576378480
296,1.6803853348840852941497779412052
297,1.6810644494713529848696175497194
298,1.6817412811174757522965672895938
299,1.6824158451249408780266895379268
300,1.6830881566429026067715013793380
301,1.6837582306692239625916784100849
302,1.6844260820524859298554641136560
303,1.6850917254939611720274202135812
304,1.6857551755495558657935081474211
305,1.6864164466317210790255538561971
306,1.6870755530113329557816259036411
307,1.6877325088195388902921292135083
308,1.6883873280495771683567945494074
309,1.6890400245585661654144339551056
310,1.6896906120692634364284480885905
311,1.6903391041717982924874566636692
312,1.6909855143253753772496794794916
313,1.6916298558599506359768108244077
314,1.6922721419778814814271919608668
315,1.6929123857555504762477906418074
316,1.6935506001449639075035640823563
317,1.6941867979753227919455335708226
318,1.6948209919545716632591231849385
319,1.6954531946709222828511319978213
320,1.6960834185943522754299875763567
321,1.6967116760780826083103043175414
322,1.6973379793600300288686921611267
323,1.6979623405642379741868387966343
324,1.6985847717022849300176072588199
325,1.6992052846746720010515938509532
326,1.6998238912721879297070898684495
327,1.7004406031772543841952024065982
328,1.7010554319652487050511998947782
329,1.7016683891058090849867623167940
330,1.7022794859641186137255711956486
331,1.7028887338021696263946051236369
332,1.7034961437800094166913244992475
333,1.7041017269569676933604986125566
334,1.7047054942928639639823533508874
335,1.7053074566491991609828178506793
336,1.7059076247903275678957015885140
337,1.7065060093846119181006949630509
338,1.7071026210055627248674261385031
339,1.7076974701329579071905325640048
340,1.7082905671539488027339603844741
341,1.7088819223641482814400504492108
342,1.7094715459687034569307559973112
343,1.7100594480833526334681413483038
344,1.7106456387354664821588657784873
345,1.7112301278650752657147942353878
346,1.7118129253258795865424894509637
347,1.7123940408862482234976950451076
348,1.7129734842301998690068211262897
349,1.7135512649583723114578252085709
350,1.7141273925889766051785316714698
351,1.7147018765587383155844104967973
352,1.7152747262238255218387217908809
353,1.7158459508607628613814822616648
354,1.7164155596673330307818218564588
355,1.7169835617634661081760281493747
356,1.7175499661921149070586043393138
357,1.7181147819201196004496138708838
358,1.7186780178390608594247796299909
359,1.7192396827660972511321425526394
360,1.7197997854447958342003146924588
361,1.7203583345459476963927784550717
362,1.7209153386683749160947586890550
363,1.7214708063397235432317232931135
364,1.7220247460172476236002530905168
365,1.7225771660885825029652061211756
366,1.7231280748725062885799809767377
367,1.7236774806196923601277194597110
368,1.7242253915134497188001465927188
369,1.7247718156704558070474203106178
370,1.7253167611414775121626568452495
371,1.7258602359120832069985862632275
372,1.7264022479033447842844210111912
373,1.7269428049725296512471823446327
374,1.7274819149137869930062579306142
375,1.7280195854588189962996449132274
376,1.7285558242775484897471603248076
377,1.7290906389787747898498324558053
378,1.7296240371108209201266133461521
379,1.7301560261621740431790607836072
380,1.7306866135621158624379937573807
381,1.7312158066813458690170742946488
382,1.7317436128325945518323582567538
383,1.7322700392712312456382463445349
384,1.7327950931958615806696145491342
385,1.7333187817489181551332814225349
386,1.7338411120172450891898845226345
387,1.7343620910326722097498718987880
388,1.7348817257725828028692120149697
389,1.7354000231604756084166848102265
390,1.7359169900665182461042112865846
391,1.7364326333080923898059582156994
392,1.7369469596503342985273863654352
393,1.7374599758066681774945728600150
394,1.7379716884393309504442371333858
395,1.7384821041598912999698555300492
396,1.7389912295297626267744439093603
397,1.7394990710607095577202104186334
398,1.7400056352153480107916909259188
399,1.7405109284076373827456104442555
400,1.7410149570033691593866710156462
401,1.7415177273206479973705705285486
402,1.7420192456303660227322765144391
403,1.7425195181566731668605425552946
404,1.7430185510774414329894516663395
405,1.7435163505247205586334114582346
406,1.7440129225851911829809879564010
407,1.7445082733006126359483471642864
408,1.7450024086682628520674395076061
409,1.7454953346413732702659853836827
410,1.7459870571295612339986788178673
411,1.7464775819992541517279099277609
412,1.7469669150741090003233847832211
413,1.7474550621354282504210997668029
414,1.7479420289225686375669568648912
415,1.7484278211333470630880054771521
416,1.7489124444244400543045882864395
417,1.7493959044117796325502766862248
418,1.7498782066709427522157605410089
419,1.7503593567375385893088824538499
420,1.7508393601075886614324142636318
421,1.7513182222379037313432943091802
422,1.7517959485464567756757231451728
423,1.7522725444127498549480193395254
424,1.7527480151781784985570783508956
425,1.7532223661463899841000712388201
426,1.7536956025836391178422929500523
427,1.7541677297191390009397178705504
428,1.7546387527454067950822535548709
429,1.7551086768186083999233838724274
430,1.7555775070588949043795915992370
431,1.7560452485507383154309058929180
432,1.7565119063432637139137038538344
433,1.7569774854505731751792493962123
434,1.7574419908520725525309482580584
435,1.7579054274927889470904691767660
436,1.7583678002836867650576900757325
437,1.7588291141019805237092150290134
438,1.7592893737914433881735317825167
439,1.7597485841627121202611209296756
440,1.7602067499935895105363012514793
441,1.7606638760293414534563953304922
442,1.7611199669829922291967892450802
443,1.7615750275356176398293287069026
444,1.7620290623366306191963324552067
445,1.7624820760040686471098712818443
446,1.7629340731248739921959120923486
447,1.7633850582551739525219442044507
448,1.7638350359205543121787968690395
449,1.7642840106163338542902863627442
450,1.7647319868078320828605728965107
451,1.7651789689306376565209453419594
452,1.7656249613908703754921879142367
453,1.7660699685654424648010661229037
454,1.7665139948023155426666273628556
455,1.7669570444207568978945214324040
456,1.7673991217115903732438860310438
457,1.7678402309374465504393463081935
458,1.7682803763330086326887820656183
459,1.7687195621052565385963650789515
460,1.7691577924337088497772582805827
461,1.7695950714706604618624133023987
462,1.7700314033414191519064666653567
463,1.7704667921445396659322663054050
464,1.7709012419520534874802087725107
465,1.7713347568096982558588237260612
466,1.7717673407371439647552778787313
467,1.7721989977282152216825723707158
468,1.7726297317511145838641016464991
469,1.7730595467486394472130199946429
470,1.7734884466384000129058975422470
471,1.7739164353130325986165513229553
472,1.7743435166404125919804303356767
473,1.7747696944638623971497868841718
474,1.7751949726023618783905878501558
475,1.7756193548507502234330667654870
476,1.7760428449799317403376407375780
477,1.7764654467370759208278188322719
478,1.7768871638458164460340442215235
479,1.7773080000064480239862886717999
480,1.7777279588961214533899804038918
481,1.7781470441690354645129461096976
482,1.7785652594566289059218908257721
483,1.7789826083677686570164060117819
484,1.7793990944889360860655956852165
485,1.7798147213844135305723292782700
486,1.7802294925964653847062880806475
487,1.7806434116455206425357113614664
488,1.7810564820303514934899764017166
489,1.7814687072282511980982344850980
490,1.7818800906952091069925715106479
491,1.7822906358660849573191669616262
492,1.7827003461547810346028819195694
493,1.7831092249544121749301452965880
494,1.7835172756374747013439385774306
495,1.7839245015560124867975959117161
496,1.7843309060417833879378775435414
497,1.7847364924064217350837803955344
498,1.7851412639416008234987725870865
499,1.7855452239191929031182397137550
500,1.785948375591428797042895961082
501,1.786350722191052894644382103386
502,1.786752266931480974268697871599
503,1.787153013006952323463830245513
504,1.787552963592684000366425279706
505,1.787952121845020083505281051166
506,1.788350490901581639898223216794
507,1.788748073881415259254522370166
508,1.789144873885139794022529016959
509,1.789540893995089535949381924620
510,1.789936137275459882163575180765
511,1.790330606772448721626329708774
512,1.790724305514397441916321552588
513,1.791117236511930171852465649204
514,1.791509402758091936183928330449
515,1.791900807228486096412711072678
516,1.792291452881409287904283796304
517,1.792681342657984927843217489214
518,1.793070479482297079238812254186
519,1.793458866261521452743262287225
520,1.793846505886056403104678872395
521,1.794233401229650715302976221530
522,1.794619555149532456388191743861
523,1.795004970486535329998416720254
