Eigenstate,Potential Energy
1,0.500000000016825422613883698915465244
2,0.64623093776094216759311910673290539
3,0.73633761002758484219648734843215562
4,0.79966527848619608703271563635431692
5,0.8480465764496515314297746954293858
6,0.8870659986713871255714365857360571
7,0.9197208265889966484093525797307627
8,0.9477838465791262552801693070423849
9,0.9723835576478844119776977370253519
10,0.9942802139437371414561156085128350
11,1.0140093856076523964877234339608899
12,1.0319621679442088912559203228224136
13,1.0484326910191754873014191534634754
14,1.0636476525156655783180999245478822
15,1.0777854335483176652655076902760841
16,1.090988903533737781253032550634794
17,1.103374253652002208835151250939238
18,1.115037247852855945245361758771292
19,1.126057745959689700142853820910756
20,1.136503041303475946407966155065529
21,1.146430366804465845527301012804117
22,1.155888806130929213993353942384543
23,1.164920771635679066405022286114105
24,1.173563161756493698181752581378988
25,1.181848277812043024586531342697125
26,1.189804557809476295061325766118697
27,1.197457169406997903781212391523692
28,1.204828493272907210290733851182416
29,1.211938520287550464007624316523404
30,1.218805180385145358075365617042664
31,1.225444616686500238672270440664227
32,1.231871415495750411670329230232807
33,1.238098800424586184786271071647932
34,1.244138797156901017501295430671543
35,1.250002374027593085555003638240310
36,1.255699562555774688453443789396790
37,1.261239561268559380063465036192935
38,1.266630825521177959344960033321232
39,1.271881145521325808851981380618213
40,1.276997714369823285167205578954697
41,1.281987187612920591777124153004259
42,1.286855735546585963442006331614026
43,1.291609089306629646241089636792445
44,1.296252581610422142004667484134884
45,1.300791182878395616877100954331857
46,1.305229533350381091185915806919298
47,1.309571971718357415481325917456780
48,1.313822560719601673379741953141614
49,1.317985110069568107962916108349592
50,1.32206319705969995484336513423687
51,1.32606018509991160254452211679302
52,1.32997924044713328655335722415304
53,1.33382334732886040486451054653456
54,1.33759532164308841138503455983217
55,1.34129782339253875106226242173790
56,1.34493336799100673047662225290003
57,1.34850433656246325252604058201290
58,1.35201298533874515754088252789816
59,1.35546145424891496589607190343384
60,1.35885177478234630948715910147605
61,1.36218587719802711193462544358258
62,1.36546559714427157226903798587288
63,1.36869268174579011783066258337789
64,1.37186879520875401219641464026883
65,1.37499552398895646397533673398136
66,1.37807438156332474326076076099721
67,1.38110681284077552120234354194459
68,1.38409419824464948735340033483220
69,1.38703785749564862872277836602387
70,1.38993905312127128619715577264568
71,1.39279899371514140026887885578905
72,1.39561883696733011562518754943208
73,1.39839969248471490775144194178936
74,1.40114262441860254614858522999774
75,1.40384865391521110766229649693584
76,1.40651876140315669666629344465840
77,1.40915388873078813042433249053012
78,1.41175494116504704977542244893163
79,1.41432278926248409529465209451120
80,1.41685827062212366343776293109242
81,1.41936219152902041570101834013869
82,1.42183532849658926327455085354673
83,1.42427842971510181587775852687572
84,1.42669221641311799174924310777896
85,1.42907738413806220959016673057282
86,1.43143460396163771787062683692652
87,1.43376452361531514610880367658647
88,1.43606776856070798499697330425691
89,1.43834494299926420008701777562074
90,1.44059663082535996701878922174612
91,1.44282339652656006422402719979141
92,1.44502578603452116149939940705913
93,1.44720432752975198778664078045610
94,1.44935953220320143275965030693302
95,1.45149189497742448278941673592042
96,1.45360189518987406974123371864226
97,1.45568999724068256894903511287274
98,1.45775665120712380841702721177443
99,1.45980229342679297910961710350548
100,1.46182734705139549577462518784114
101,1.46383222257290655359025238205503
102,1.46581731832373755120523078022128
103,1.46778302095243763712867265712218
104,1.46972970587635137171575459719948
105,1.47165773771256042323846022249361
106,1.47356747068834645228689312454030
107,1.47545924903233425679126708234787
108,1.47733340734739501040029366317837
109,1.47919027096632083341751694892688
110,1.48103015629121951537210259771434
111,1.48285337111751234710204566072317
112,1.48466021494336858659431502391082
113,1.48645097926535454703235008134701
114,1.48822594786102653774500227254264
115,1.48998539705915644024843610938731
116,1.49172959599823036992428640796100
117,1.49345880687382916087060355861522
118,1.49517328517545838035654008704952
119,1.49687327991336186559545711416951
120,1.49855903383582693331611537319320
121,1.50023078363745114536741581199785
122,1.50188876015882160045935715318797
123,1.50353318857802552921087177466124
124,1.50516428859439328986655390776292
125,1.50678227460484529578118432479315
126,1.50838735587319920847338350615587
127,1.50997973669277315216334659037322
128,1.51155961654259811851970550998729
129,1.51312719023754065710247949865901
130,1.51468264807261856512177975791208
131,1.51622617596177688601388874820254
132,1.51775795557137654913549575689542
133,1.51927816444863620129298280883738
134,1.52078697614525650486471069474739
135,1.52228456033643806893181922759788
136,1.52377108293550049230271557031111
137,1.52524670620429668937276495088087
138,1.52671158885960305777015626416214
139,1.52816588617566394083328095242381
140,1.52960975008305339199669186509543
141,1.53104332926401269067276197066162
142,1.53246676924441398594905495864611
143,1.53388021248249179425218764057252
144,1.53528379845447689749187826724565
145,1.53667766373726300043991092186643
146,1.53806194208822863734770500864278
147,1.53943676452232861484022853387263
148,1.54080225938657032009066573847576
149,1.54215855243197669520591953794541
150,1.54350576688313951867589788043833
151,1.54484402350545890811569809182871
152,1.54617344067015934344518568535182
153,1.54749413441717116017379416378637
154,1.54880621851596141200638869830970
155,1.55010980452439233873620204507111
156,1.55140500184568530576085777394543
157,1.55269191778356126179742518985552
158,1.55397065759562953286995549309722
159,1.5552413245450886253749692763116
160,1.5565040199508053757346668590546
161,1.5577588432358309427288389345658
162,1.5590058919744131035768861592470
163,1.5602452619375597070393100708179
164,1.5614770471372079201036515019298
165,1.5627013398690478684425181785479
166,1.5639182307540511862024719522826
167,1.5651278087787517074132023366049
168,1.5663301613343209879004759123537
169,1.5675253742544837197634341995765
170,1.5687135318523127815019204682472
171,1.5698947169559441182245556014751
172,1.5710690109432493185654242214476
173,1.5722364937755012906100810129137
174,1.5733972440300688803147104622137
175,1.5745513389321744173214035818000
176,1.5756988543857438944921870619443
177,1.5768398650033830416691305327456
178,1.5779744441355084480265564914021
179,1.5791026638986601779309591671585
180,1.5802245952030268266772924358002
181,1.5813403077792056646575271055709
182,1.5824498702042255653165535166003
183,1.5835533499268557661390005278875
184,1.5846508132922247041726155505684
185,1.5857423255657707341810227141044
186,1.5868279509565456980146650396100
187,1.5879077526398951456665992030334
188,1.5889817927795306442968250699933
189,1.5900501325490179062818354507554
190,1.5911128321526963873330796564758
191,1.5921699508460495772016667786568
192,1.5932215469555423651372455955044
193,1.5942676778979437839132151591561
194,1.5953084001991484731646003790030
195,1.5963437695125147943603485613962
196,1.5973738406367332892725308297306
197,1.5983986675332398572254347863539
198,1.5994183033431878130654207631872
199,1.6004328004039916596667712899009
200,1.6014422102654565151342802328768
201,1.6024465837055041710810827893639
202,1.6034459707455091580927705499723
203,1.6044404206652554730595513657921
204,1.6054299820175255832376993306110
205,1.6064147026423316723519896455732
206,1.6073946296808021474357812139659
207,1.6083698095887292770339252466472
208,1.6093402881497921821728306952659
209,1.6103061104884609229249799611571
210,1.6112673210825931761666197172406
211,1.6122239637757308634847342702999
212,1.6131760817891069563550635258252
213,1.6141237177333668364788097287174
214,1.6150669136200191869612048703227
215,1.6160057108726156205563526195903
216,1.6169401503376729994284511828044
217,1.6178702722953424054645274123202
218,1.6187961164698337335812093590641
219,1.6197177220395991809540582630398
220,1.6206351276472881402897019861643
221,1.6215483714094713994229579973407
222,1.6224574909261518445966644663254
223,1.6233625232900552282475266062017
224,1.6242635050957160605882045657672
225,1.6251604724483611815200772004565
226,1.6260534609725945508093645536799
227,1.6269425058208918993647848295416
228,1.6278276416819070518077897942146
229,1.6287089027885970724702785176327
230,1.6295863229261709210478379470350
231,1.6304599354398634071624696502549
232,1.6313297732425448527390548431355
233,1.6321958688221614476832797620648
234,1.6330582542490224449101007157204
235,1.6339169611829273658057172743122
236,1.6347720208801429148741806077587
237,1.6356234642002332236781315890388
238,1.6364713216127451550669730999309
239,1.6373156232037541032541765618740
240,1.6381563986822724431420546266050
241,1.6389936773865249102232833844367
242,1.6398274882900937669897780949526
243,1.6406578600079377866018711942992
244,1.6414848208022867420335343293104
245,1.6423083985884157737835950418751
246,1.6431286209403021546994888549288
247,1.6439455150961658336777542361595
248,1.6447591079639013387739315927751
249,1.6455694261263960082157389326573
250,1.6463764958467449334183922567289
251,1.6471803430733605134071832342817
252,1.6479809934449794185403314418178
253,1.6487784722955720351283191705782
254,1.6495728046591540471997636792801
255,1.6503640152745040348362715080509
256,1.6511521285897871738359729515530
257,1.6519371687670914274430759406045
258,1.6527191596868726741950616436415
259,1.6534981249523155747308915611740
260,1.6542740878936105632574721375588
261,1.6550470715721472767243504039073
262,1.6558170987846291464315127355289
263,1.6565841920671080019497387173142
264,1.6573483736989441375042699423989
265,1.6581096657066903653467467410006
266,1.6588680898679022231452912642077
267,1.6596236677148775479221235047152
268,1.6603764205383254495350550473595
269,1.6611263693909689528993275699275
270,1.6618735350910770323711754469869
271,1.6626179382259353215266417332116
272,1.6633595991552494771768187828743
273,1.6640985380144886400106328914202
274,1.6648347747181662001595535151462
275,1.6655683289630617425402318722018
276,1.6662992202313824496038161303064
277,1.6670274677938714447823538392835
278,1.6677530907128548305560652086484
279,1.6684761078452389235863656316685
280,1.6691965378454497797604207762752
281,1.6699143991683228979504207585621
282,1.6706297100719405987359126458873
283,1.6713424886204202905155362979904
284,1.6720527526866507795233908320510
285,1.6727605199549834309903959021693
286,1.6734658079238742061760542294337
287,1.6741686339084816345415556138668
288,1.6748690150432171228200753293200
289,1.6755669682842522490284567118719
290,1.6762625104119837739272414739267
291,1.6769556580334542108492780956064
292,1.6776464275847308387832180244226
293,1.6783348353332470644662569244904
294,1.6790208973801011703803267538916
295,1.6797046296623145357766109134823
296,1.6803860479550569162678629591016
297,1.6810651678738287136929340905745
298,1.6817420048766095529846795727045
299,1.6824165742659699688759802714343
300,1.6830888911911479530265962101776
301,1.6837589706500907729857056911892
302,1.6844268274914641558998141002312
303,1.6850924764166260100715609062671
304,1.6857559319815682618758469593361
305,1.6864172085988282365364780483325
306,1.6870763205393688459598182075240
307,1.6877332819344247655755879918531
308,1.6883881067773220786101008045533
309,1.6890408089252674770540609934308
310,1.6896914021011073544679282005338
311,1.6903398998950603855244172785940
312,1.6909863157664211054172500261583
313,1.6916306630452358818815156176287
314,1.6922729549339530840961368379014
315,1.6929132045090467681078714130354
316,1.6935514247226152544156324281552
317,1.6941876284039521363166862516501
318,1.6948218282610950702564972732184
319,1.6954540368823494897406178612156
320,1.6960842667377872440637262119703
321,1.6967125301807240807866917378790
322,1.6973388394491720863891356000926
323,1.6979632066672705991334722505914
324,1.6985856438466945712764628033177
325,1.6992061628880421426059301381402
326,1.6998247755821996625257693872287
327,1.7004414936116869814411574019022
328,1.7010563285519802006353512693774
329,1.7016692918728168554927487091956
330,1.7022803949394799637312004519931
331,1.7028896490140623772157026387086
332,1.7034970652567124985743236480307
333,1.7041026547268617411499490609729
334,1.7047064283844319162900024522343
335,1.7053083970910268628850072000293
336,1.7059085716111043771859972529218
337,1.7065069626131313151251130631840
338,1.7071035806707229259695732709075
339,1.7076984362637624817943604942955
340,1.7082915397795072940920473867763
341,1.7088829015136768310755125624474
342,1.7094725316715254328012150729490
343,1.7100604403688992618801872541398
344,1.7106466376332774834620141472678
345,1.7112311334047994938039822990129
346,1.7118139375372756721982696220585
347,1.7123950597991852215938594305782
348,1.7129745098746579096152704971601
349,1.7135522973644432548805392334826
350,1.7141284317868647009371980093543
351,1.7147029225787608653980867140137
352,1.7152757790964135466204712439392
353,1.7158470106164617722849666354095
354,1.7164166263368033043292436382517
355,1.7169846353774839654990748906584
356,1.7175510467815729972841291676892
357,1.7181158695160276882623328864352
358,1.7186791124725465168393032761236
359,1.7192407844684065535071490338757
360,1.7198008942472940605276405116932
361,1.7203594504801200338949063315930
362,1.7209164617658271691640359419650
363,1.7214719366321828467452010497464
364,1.7220258835365631606443469679125
365,1.7225783108667262270043797030598
366,1.7231292269415736501042592747784
367,1.7236786400119030378141296987438
368,1.7242265582611483552230904042213
369,1.7247729898061127489738942757354
370,1.7253179426976895554679651400089
371,1.7258614249215743462388819328446
372,1.7264034443989669669625412255641
373,1.7269440089872635368087854786997
374,1.7274831264807427166030682677692
375,1.7280208046112369373577034982900
376,1.7285570510488000453775211254327
377,1.7290918734023631531400531118138
378,1.7296252792203818633514192634191
379,1.7301572759914767059690819152641
380,1.7306878711450635449455536831154
381,1.7312170720519768301186459874687
382,1.7317448860250828124074032310193
383,1.7322713203198873969647379496024
384,1.7327963821351335979766682123673
385,1.7333200786133922163518231762889
386,1.7338424168416463989425536443792
387,1.7343634038518658286218467932047
388,1.7348830466215744820018375599927
389,1.7354013520744126294663067885558
390,1.7359183270806902666088725787530
391,1.7364339784579322940031600873689
392,1.7369483129714190536662348049606
393,1.7374613373347196956863850541816
394,1.7379730582102169560956143432647
395,1.7384834822096262028430295126992
396,1.7389926158945084007199117508075
397,1.7395004657767766251271043707066
398,1.7400070383191961328017030058283
399,1.7405123399358765552767338522528
400,1.7410163769927605150134801246968
401,1.7415191558081047131081169750438
402,1.7420206826529542337710986807420
403,1.7425209637516128863006894123619
404,1.7430200052821074776220420612514
405,1.7435178133766434808183131191058
406,1.7440143941220582086701315961084
407,1.7445097535602686089042419438293
408,1.7450038976887111843269260302486
409,1.7454968324607768989000145747862
410,1.7459885637862435842191254399955
411,1.7464790975317001063928611888261
412,1.7469684395209658758930099597598
413,1.7474565955355067794164664080475
414,1.7479435713148439575847960932449
415,1.7484293725569597124248888768813
416,1.7489140049186969742443551657796
417,1.7493974740161551763691172394842
418,1.7498797854250797009600114421704
419,1.7503609446812491744006548710304
420,1.7508409572808555941593381782069
421,1.7513198286808812392885455660895
422,1.7517975642994716461454013290280
423,1.7522741695163024854533287124628
424,1.7527496496729439544092880659484
425,1.7532240100732190631769213635068
426,1.7536972559835594225848828138206
427,1.7541693926333560176393688747244
428,1.7546404252153049805177467772825
429,1.7551103588857522754092789422115
430,1.7555791987650301572868642702775
431,1.7560469499377929082418107212580
432,1.7565136174533490008734730435215
433,1.7569792063259850266073914063624
434,1.7574437215352924868561355331150
435,1.7579071680264852706729955776719
436,1.7583695507107157198644019603166
437,1.7588308744653874429064140761122
438,1.7592911441344638597039066192902
439,1.7597503645287731584712985747762
440,1.7602085404263107359224537352445
441,1.7606656765725362805958230290269
442,1.7611217776806690629339840624386
443,1.7615768484319810797859378921271
444,1.7620308934760826726747142607433
445,1.7624839174312099504609586703274
446,1.7629359248845050407225441499383
447,1.7633869203922963389896445026743
448,1.7638369084803719740064883777197
449,1.7642858936442543294943633203117
450,1.7647338803494677748261745099571
451,1.7651808730318071076751716347237
452,1.7656268760975995499548313443066
453,1.7660718939239660400887855180714
454,1.7665159308590782105275303112843
455,1.7669589912224146743506477256222
456,1.7674010793050119179201922558151
457,1.7678421993697144952579883444864
458,1.7682823556514209200088534530906
459,1.7687215523573277688795337894988
460,1.7691597936671716388608355559932
461,1.7695970837334668079219924214355
462,1.7700334266817418121911353823366
463,1.7704688266107735433564122219972
464,1.7709032875928170271562540859313
465,1.7713368136738348516565045283169
466,1.7717694088737233759738472333237
467,1.7722010771865349999228304635690
468,1.7726318225807015101884635887802
469,1.7730616489992509796823140680431
470,1.7734905603600257445826780286404
471,1.7739185605558957261255283927857
472,1.7743456534549713947175926310169
473,1.7747718429008117272323898110291
474,1.7751971327126346614414714635584
475,1.7756215266855189702935603715620
476,1.7760450285906100698040172288792
477,1.7764676421753200935077429517858
478,1.7768893711635269094196335231783
479,1.7773102192557709688420669122928
480,1.7777301901294503815547272943017
481,1.7781492874390127682153438934820
482,1.7785675148161474587107288779895
483,1.7789848758699734164078408228419
484,1.7794013741872257080099820042588
485,1.7798170133324419958447594863021
486,1.7802317968481436373260814761137
487,1.7806457282550182403207354555814
488,1.7810588110520982708531480471686
489,1.7814710487169389411944715860943
490,1.7818824447057932413253988516743
491,1.7822930024537862479175338757491
492,1.7827027253750872988798366579343
493,1.7831116168630800083359139023073
494,1.7835196802905312159273223889719
495,1.7839269190097570627907986091416
496,1.7843333363527894384806665677425
497,1.7847389356315384842044685576600
498,1.7851437201379550974706502127249
499,1.7855476931441909353110745376335
500,1.785950857902758046390507152752
501,1.786353217646683877850468871349
502,1.786754775589669111874375306234
503,1.787155534926239799901720961372
504,1.787555498831901638127077561939
505,1.787954670463289231543458718366
506,1.788353052958316076407486653288
507,1.788750649436323108940056976324
508,1.789147462998225460003568414397
509,1.789543496726655646423882906185
510,1.789938753686109251968940193699
511,1.790333236923086328831751700682
512,1.790726949466232419583552680326
513,1.791119894326477815103142462609
514,1.791512074497175724713021639998
515,1.791903492954239732589509485759
516,1.792294152656278750602999592029
517,1.792684056544730542147814326736
518,1.793073207543995602167327514943
519,1.793461608561568175138750710554
520,1.793849262488167267841486923630
521,1.794236172197864451958426557386
522,1.794622340548212732531662959785
523,1.795007770380372919251038229058
