Eigenstate,Potential Energy
1,0.500000000038785546275168047781867030
2,0.64623093790428643559693510634460636
3,0.73633761044864717697092254056734245
4,0.79966527936322117710793800269934454
5,0.8480465779688391772851224876747738
6,0.8870660010221962986192707169556326
7,0.9197208299624150176645675347683468
8,0.9477838511669482881083625219476041
9,0.9723835636423754878391335517828379
10,0.9942802215374628882993996682241625
11,1.0140093949933858063677157306185820
12,1.0319621793148770710151781547555948
13,1.0484327045678279866836030433626851
14,1.0636476684354551358862410501301760
15,1.0777854520324884457117319382251070
16,1.090988924775618318404875127070417
17,1.103374277845001409640880110498840
18,1.115037275190461146521075045659204
19,1.126057776635466139377973853093875
20,1.136503075511067230104077703110300
21,1.146430404737595136353994339942525
22,1.155888847983400945924946403132822
23,1.164920817601381054453256344073861
24,1.173563212029399547748533600490900
25,1.181848332586214771664985814962637
26,1.189804617279067226723580899319995
27,1.197457233766255521260790817201871
28,1.204828562716176306203830258871814
29,1.211938595009276291980985690956560
30,1.218805260579876878007040681760078
31,1.225444702548893424552861796433556
32,1.231871507220571611686384003820781
33,1.238098898206715525558624044023160
34,1.244138901191335845952580060721348
35,1.250002484509451443176263764541576
36,1.255699679680298813739674256654683
37,1.261239685231119235677949025117887
38,1.266630956517274781201118275769966
39,1.271881283746595674805525638429977
40,1.276997860020040701418227989811902
41,1.281987340884002095412035773887105
42,1.286855896634593739815113830854032
43,1.291609258407775160117276651198954
44,1.296252758921069781567712067276678
45,1.300791368595066349860153563575075
46,1.305229727669756132507456876562051
47,1.309572174837281905876150980864641
48,1.313822772835088368603998005073772
49,1.317985331378801078227800451918999
50,1.32206342776003829419628794597906
51,1.32606042538889314797126781612286
52,1.32997949052247834662155636052181
53,1.33382360738847549776891594562909
54,1.33759559188507001228974778023351
55,1.34129810401517704866499281052882
56,1.34493365919278939274606203162984
57,1.34850463854207920158601711726383
58,1.35201329829508835369481339231552
59,1.35546177838108820080245404850134
60,1.35885211028966500851212390994821
61,1.36218622428002314572097324004682
62,1.36546595600069707757310056785027
63,1.36869305257662132768884693937046
64,1.37186917821419509549264221258271
65,1.37499591936944337448903395472213
66,1.37807478951952907828252693110392
67,1.38110723357360838981117780044507
68,1.38409463195526538845543647882109
69,1.38703830438544933895705883692809
70,1.38993951339190975781881329663382
71,1.39279946756852566912484966375651
72,1.39561932460562721934152525943338
73,1.39840019411035481425527649813231
74,1.40114314023428209265117781153989
75,1.40384918412389795023293828315964
76,1.40651930620809327052972891868397
77,1.40915444833549562111722622666609
78,1.41175551577332937529996140129979
79,1.41432337907843189940986025705973
80,1.41685887585011832023128116651442
81,1.41936281237373804558639805498445
82,1.42183596516300476056105756990882
83,1.42427908240849288806165507597554
84,1.42669288533906921067735813868547
85,1.42907806950246907464836330961896
86,1.43143530597071073135139519171479
87,1.43376524247558390091394194140140
88,1.43606850447902526483283538351687
89,1.43834569618281009231132655178624
90,1.44059740148164598829952177404837
91,1.44282418486343329917233349733181
92,1.44502659226016841443988874469265
93,1.44720515185270394782978677974702
94,1.44936037483233685234240025809713
95,1.45149275612197436985145010373128
96,1.45360277505942589370556447357988
97,1.45569089604518448067707144828991
98,1.45775756915688887430931556892591
99,1.45980323073250342952496003730957
100,1.46182830392410698794136914454635
101,1.46383319922405244918488969883504
102,1.46581831496513320877468844662947
103,1.46778403779628471953384383840862
104,1.46973074313524216877522637479568
105,1.47165879559948218975247222382096
106,1.47356854941668576162288542602200
107,1.47546034881588137021364541839908
108,1.47733452840034826232818965115399
109,1.47919141350329103279570964871600
110,1.48103132052723436334139161561968
111,1.48285455726802087115672554033972
112,1.48466142322424559141562707070587
113,1.48645220989290508218804254706630
114,1.48822720105199038244646401341048
115,1.48998667303071260535812287714177
116,1.49173089496800161740747006077783
117,1.49346012905988654088680031855461
118,1.49517463079632578618722411586759
119,1.49687464918802060660607978455725
120,1.49856042698372032615179815111341
121,1.50023220087848912358294071494938
122,1.50189020171338534278551794450130
123,1.50353465466697210666063289211393
124,1.50516577943906033188577854158567
125,1.50678379042705567565018533919866
126,1.50838889689526574816691394031258
127,1.50998130313750334687808327585621
128,1.51156120863329888107975838294228
129,1.51312880819802308245487740566559
130,1.51468429212720271513534619256933
131,1.51622784633529659479640782254289
132,1.51775965248918424908575016998579
133,1.51927988813660777010539398990460
134,1.52078872682979613370618370932107
135,1.52228633824448315201190073768277
136,1.52377288829452653805950023068907
137,1.52524853924232225349887363809480
138,1.52671344980519469830450901248459
139,1.52816777525794119554613470409540
140,1.52961166753169377829696659126634
141,1.53104527530925672826833738337379
142,1.53246874411707024249247508294110
143,1.53388221641394195420576594906404
144,1.53528583167668085444813100833540
145,1.53667972648276397313467605250784
146,1.53806403459015830960532298662828
147,1.53943888701441229969177764316492
148,1.54080441210313214830806350610925
149,1.54216073560794482849659030011874
150,1.54350798075405138778432231438157
151,1.54484626830746647608032953995141
152,1.54617571664003439426080987341750
153,1.54749644179231061311145951769852
154,1.54880855753439266184480746553289
155,1.55011217542477862216058476666459
156,1.55140740486733109418717168865721
157,1.55269435316641768088172001964767
158,1.55397312558029980896474868599476
159,1.5552438253728335591965038549266
160,1.5565065538635488435069999977863
161,1.5577614104761654250727308814560
162,1.5590084927856052424135979486865
163,1.5602478965635558907814198232395
164,1.5614797158226398974072959234850
165,1.5627040428592383907975781743631
166,1.5639209682950196796393355700237
167,1.5651305811172199736069772647418
168,1.5663329687177189349558955112894
169,1.5675282169309551229657011508145
170,1.5687164100707210743213326072815
171,1.5698976309658782138648156653480
172,1.5710719609950294623480175711755
173,1.5722394801201849434893632306620
174,1.5734002669194566338208981483078
175,1.5745543986188159402309436707239
176,1.5757019511229439115274663711180
177,1.5768429990452073445319966451773
178,1.5779776157367899390725968888394
179,1.5791058733150049467939636638057
180,1.5802278426908202601560551672041
181,1.5813435935956185901795128911745
182,1.5824531946072204282957375045087
183,1.5835567131751928415477501408733
184,1.5846542156454683426502209101726
185,1.5857457672842956430042054888130
186,1.5868314323015432572579449667589
187,1.5879112738733797598835021738951
188,1.5889853541643461300553942534691
189,1.5900537343488439158909330302376
190,1.5911164746320548690988025863708
191,1.5921736342703112725560431487350
192,1.5932252715909333429843347054885
193,1.5942714440115520125407429160467
194,1.5953122080589304300722028650983
195,1.5963476193873021143585261133883
196,1.5973777327962394512095576057501
197,1.5984026022480669097024869248889
198,1.5994222808848331395033106834610
199,1.6004368210448547830910026879050
200,1.6014462742788459430481418429996
201,1.6024506913656442807998296740440
202,1.6034501223275471229153166021157
203,1.6044446164452682296572569413095
204,1.6054342222725268406433232059563
205,1.6064189876502789629351421642573
206,1.6073989597206039202547807905039
207,1.6083741849402520339573422638366
208,1.6093447090938676571675845973633
209,1.6103105773068933049113349874626
210,1.6112718340581663758441257738847
211,1.6122285231922158245366088250588
212,1.6131806879312690114423522301929
213,1.6141283708869731084393577609151
214,1.6150716140718460356322051396451
215,1.6160104589104561356429613936915
216,1.6169449462503445398449929680880
217,1.6178751163726941855785329703040
218,1.6188010090027544567944751625148
219,1.6197226633200247210590855669822
220,1.6206401179682092710436470636828
221,1.6215534110649415727854529814594
222,1.6224625802112950180820116179901
223,1.6233676625010737418457545120166
224,1.6242686945298985637138725753989
225,1.6251657124040906104519672677084
226,1.6260587517493561570883788101267
227,1.6269478477192813296218469542483
228,1.6278330350036384794979179543931
229,1.6287143478365113819935264042013
230,1.6295918200042439447420747948949
231,1.6304654848532142156580295209691
232,1.6313353752974440991693020839772
233,1.6322015238260397662502706995282
234,1.6330639625104789043089980449182
235,1.6339227230117379780166564567288
236,1.6347778365872691998347433529061
237,1.6356293340978308303548297995995
238,1.6364772460141725394489022430531
239,1.6373216024235812637970006903682
240,1.6381624330362897141958706509864
241,1.6389997671917518139825591966015
242,1.6398336338647879245089104924197
243,1.6406640616716038884255069924399
244,1.6414910788756855789955563545727
245,1.6423147133935733285343911626837
246,1.6431349928005187545266245199203
247,1.6439519443360253651903123955882
248,1.6447655949092805250267032020191
249,1.6455759711044737488547735984737
250,1.6463830991860117084354393590195
251,1.6471870051036278510961143602415
252,1.6479877144973894282543580266609
253,1.6487852527026070054430130373622
254,1.6495796447546461100925794998732
255,1.6503709153936448964994703846725
256,1.6511590890691379127460210557556
257,1.6519441899445923603155902300122
258,1.6527262419018532904606014747119
259,1.6535052685455045401734146347273
260,1.6542812932071457934636758864745
261,1.6550543389495860809984815787947
262,1.6558244285709584428367614930748
263,1.6565915846087546041441421390870
264,1.6573558293437851140455222701500
265,1.6581171848040634721474638236522
266,1.6588756727686164097667608502530
267,1.6596313147712235384017070526319
268,1.6603841321040863984497589994237
269,1.6611341458214311773745077142772
270,1.6618813767430408207511939088554
271,1.6626258454577258194311518938650
272,1.6633675723267276516741819710478
273,1.6641065774870623226470493152327
274,1.6648428808548012095902898405390
275,1.6655765021282930875166883818553
276,1.6663074607913256130785114678241
277,1.6670357761162337499011371660547
278,1.6677614671669468893152044744452
279,1.6684845528019861689399853000878
280,1.6692050516774040819719879862582
281,1.6699229822496742659903218180857
282,1.6706383627785289675352693380959
283,1.6713512113297473948950641352767
284,1.6720615457778921156241842399212
285,1.6727693838090003060432832595106
286,1.6734747429232258774533819176857
287,1.6741776404374375383454183345152
288,1.6748780934877691943693488689535
289,1.6755761190321273341160206930366
290,1.6762717338526561332283007848558
291,1.6769649545581581177708875492644
292,1.6776557975864732717543764348370
293,1.6783442792068204945775441685953
294,1.6790304155220964452920697639753
295,1.6797142224711338608235469607404
296,1.6803957158309269336989392318339
297,1.6810749112188136809946888942972
298,1.6817518240946246212464509198790
299,1.6824264697627945621657756322840
300,1.6830988633744392497568933499126
301,1.6837690199293972902590315906366
302,1.6844369542782394378340296420493
303,1.6851026811242424211165202937785
304,1.6857662150253308861431335591803
305,1.6864275703959888841755363447295
306,1.6870867615091401676248538641680
307,1.6877438024979944760389410691707
308,1.6883987073578672905892376909621
309,1.6890514899479691463311604629605
310,1.6897021639931648373925866239734
311,1.6903507430857061100019203374998
312,1.6909972406869353564974287994992
313,1.6916416701289617030747143809591
314,1.6922840446163112955557318937144
315,1.6929243772275511028311223781208
316,1.6935626809168876136275471664455
317,1.6941989685157379652140679785838
318,1.6948332527342788553029681711420
319,1.6954655461629703787160713727814
320,1.6960958612740547900852833349823
321,1.6967242104230341115317253021348
322,1.6973506058501226997650930262268
323,1.6979750596816782866520395453188
324,1.6985975839316104704049944998341
325,1.6992181905027684193823900923434
326,1.6998368911883060257383093521759
327,1.7004536976730273296879628173203
328,1.7010686215347094035953748320683
329,1.7016816742454076707527093276018
330,1.7022928671727400905295126856144
331,1.7029022115811516484797240701397
332,1.7035097186331602126423519186424
333,1.7041153993905841345858178695614
334,1.7047192648157497792137683039979
335,1.7053213257726832982595738317976
336,1.7059215930282827055158462651934
337,1.7065200772534731260403892141925
338,1.7071167890243462781853172516547
339,1.7077117388232802529514675640007
340,1.7083049370400456820046952098207
341,1.7088963939728940079267690417601
342,1.7094861198296303538465627410880
343,1.7100741247286706302364594732179
344,1.7106604187000828725780750663874
345,1.7112450116866146292273295535060
346,1.7118279135447038742710301674980
347,1.7124091340454770107305914869184
348,1.7129886828757307758338317429438
349,1.7135665696389015932772911194801
350,1.7141428038560199148175626302011
351,1.7147173949666516387934569452344
352,1.7152903523298262879425127040723
353,1.7158616852249512308894970478676
354,1.7164314028527133617824469920045
355,1.7169995143359686033599148727726
356,1.7175660287206174432384772316386
357,1.7181309549764697424663086994623
358,1.7186943019980980603504089346448
359,1.7192560786056752407053492284165
360,1.7198162935458051974505280894747
361,1.7203749554923386444339561184715
362,1.7209320730471802510927631365378
363,1.7214876547410818195731032874157
364,1.7220417090344265073143588229474
365,1.7225942443180023314768898330548
366,1.7231452689137638328937879595760
367,1.7236947910755847915707709305220
368,1.7242428189899987824756999712908
369,1.7247893607769322041779173791820
370,1.7253344244904254935261023156206
371,1.7258780181193453796902055837226
372,1.7264201495880871340611850769606
373,1.7269608267572667827412793672874
374,1.7275000574244075901206928167659
375,1.7280378493246115051276742135718
376,1.7285742101312270263851093376666
377,1.7291091474565052755036662698670
378,1.7296426688522474459393881568661
379,1.7301747818104454672382674027331
380,1.7307054937639126414508290305399
381,1.7312348120869071271731270571312
382,1.7317627440957453894033430013394
383,1.7322892970494102898968065872279
384,1.7328144781501487817405302570214
385,1.7333382945440628294232622213154
386,1.7338607533216942130745102541302
387,1.7343818615185989662299227709817
388,1.7349016261159153839426879883913
389,1.7354200540409262759460536396510
390,1.7359371521676126539946346111998
391,1.7364529273171991703443479792962
392,1.7369673862586949157685641307068
393,1.7374805357094270506169545698476
394,1.7379923823355658500339095109343
395,1.7385029327526440202302517898617
396,1.7390121935260699366956458612866
397,1.7395201711716344342807712638110
398,1.7400268721560111573053890743391
399,1.7405323028972490355038703737967
400,1.7410364697652611857890449161088
401,1.7415393790823062887752955803181
402,1.7420410371234631853008372084218
403,1.7425414501171015137117550746526
404,1.7430406242453462810214060960281
405,1.7435385656445338334146872357396
406,1.7440352804056653351563888022618
407,1.7445307745748548726490664541205
408,1.7450250541537696868600815134684
409,1.7455181251000653952215753057070
410,1.7460099933278187175086049891921
411,1.7465006647079519657409003148931
412,1.7469901450686528807259029091328
413,1.7474784401957908943319591244176
414,1.7479655558333262413661719786147
415,1.7484514976837162050500667939524
416,1.7489362714083149257570112384251
417,1.7494198826277696215299973441604
418,1.7499023369224103836481710420208
419,1.7503836398326378257877391226793
420,1.7508637968593035687323715794184
421,1.7513428134640875128517916439013
422,1.7518206950698711799867735519772
423,1.7522974470611049609162124389744
424,1.7527730747841728821684140989325
425,1.7532475835477512715734179565066
426,1.7537209786231649294351729389767
427,1.7541932652447382899910537212496
428,1.7546644486101415868871097929038
429,1.7551345338807359350952405835246
430,1.7556035261819101914189294206772
431,1.7560714306034170972828429743180
432,1.7565382521997058533617492723837
433,1.7570039959902464639884447732108
434,1.7574686669598569493207443490817
435,1.7579322700590212489835458636539
436,1.7583948102042057182228949842427
437,1.7588562922781723779840796003571
438,1.7593167211302879010242205505235
439,1.7597761015768290154093102676593
440,1.7602344384012853966565485887943
441,1.7606917363546572084202201836086
442,1.7611480001557508554181283904481
443,1.7616032344914725963398464267375
444,1.7620574440171146361591600432147
445,1.7625106333566430285592057538962
446,1.7629628071029784128698462757073
447,1.7634139698182767547375436048934
448,1.7638641260342033087838002591376
449,1.7643132802522076438073838908809
450,1.7647614369437918830266835143979
451,1.7652086005507796625133330608693
452,1.7656547754855786492190111754391
453,1.7660999661314423617258440740959
454,1.7665441768427276827270075886471
455,1.7669874119451516871678525636084
456,1.7674296757360430831088927762217
457,1.7678709724845929610760046139443
458,1.7683113064321012478597166806397
459,1.7687506817922213787486299873669
460,1.7691891027512028306071562166914
461,1.7696265734681293655870455369558
462,1.7700630980751561985898945830779
463,1.7704986806777446923202756975266
464,1.7709333253548927409051405227537
465,1.7713670361593648108859567380599
466,1.7717998171179187703522469573909
467,1.7722316722315287868076466698404
468,1.7726626054756093094829531823119
469,1.7730926208002326128722154680063
470,1.7735217221303474261070934752447
471,1.7739499133659929153598819179384
472,1.7743771983825123169656604519746
473,1.7748035810307615722498825893015
474,1.7752290651373204681389693850413
475,1.7756536545046952063954942972307
476,1.7760773529115249153705364646927
477,1.7765001641127824373584523749946
478,1.7769220918399740676341609659166
479,1.7773431398013371346483095081687
480,1.7777633116820358160565180987371
481,1.7781826111443537415517144493398
482,1.7786010418278869513852756863330
483,1.7790186073497325906713676482270
484,1.7794353113046761593310815996936
485,1.7798511572653787946536143218317
486,1.7802661487825591713713834194408
487,1.7806802893851768681382039605796
488,1.7810935825806117970030414617426
489,1.7815060318548429240885234065122
490,1.7819176406726241446294332684269
491,1.7823284124776594466851869111589
492,1.7827383506927759517433291994998
493,1.7831474587200948072553120208971
494,1.7835557399412010251773176960273
495,1.7839631977173104590437220118894
496,1.7843698353894371640305678004396
497,1.7847756562785568255632605623059
498,1.7851806636857702017561982864477
499,1.7855848608924640770457140903067
500,1.785988251160471857520385373954
501,1.786390837732229554002911267754
502,1.786792623830934608069442007563
503,1.787193612660699029147415946161
504,1.787593807406704686536927918824
505,1.787993211235353603831805493843
506,1.788391827294418985838683902077
507,1.788789658713194826029640301791
508,1.789186708602643734499864710118
509,1.789582980055541217328969591683
510,1.789978476146622460594553156224
511,1.790373199932724850127038907670
512,1.790767154452930127216708237652
513,1.791160342728704796027044195369
514,1.791552767764039459202310412154
515,1.791944432545587455992408913907
516,1.792335340042801013317044205023
517,1.792725493208065984596678300150
518,1.793114894976836961829708396018
519,1.793503548267769542959207182641
520,1.793891455982852611636743121811
521,1.794278621007537424723140785644
522,1.794665046210867783841851565189
523,1.795050734445607728263003989960
