Eigenstate,Potential Energy
1,0.500000000015532998989442676740269456
2,0.64623093775250591138503785114010253
3,0.73633761000280407358411638862707417
4,0.79966527843458072760087982109891072
5,0.8480465763602435020175630550581669
6,0.8870659985330367804729435510484420
7,0.9197208263904646823558368790714940
8,0.9477838463091262526614984808684526
9,0.9723835572951026780141598519155917
10,0.9942802134968428095368889580745770
11,1.0140093850553029580005005752492967
12,1.0319621672750533928140620416935994
13,1.0484326902218564581195564675217983
14,1.0636476515788202268118148908507749
15,1.0777854324605786348130698833442576
16,1.090988902283733629069391335601412
17,1.103374252228357704758473861335236
18,1.115037246244192249776506568347237
19,1.126057744154624459331228645492449
20,1.136503039290623328101415697152744
21,1.146430364572436533393258738437870
22,1.155888803668330370546523483264711
23,1.164920768931114272895709939590148
24,1.173563158798562876938521804615728
25,1.181848274589342347864680200297480
26,1.189804554310598083376991305969945
27,1.197457165620530515953519453030486
28,1.204828489187434926870836826550820
29,1.211938515891653365377812068001760
30,1.218805175667399198209592578565005
31,1.225444611635476315331654876934607
32,1.231871410100015433642740459333466
33,1.238098794672702136653715580457262
34,1.244138791037425022322224942672158
35,1.250002367529077265773602521212335
36,1.255699555666766025289121182958428
37,1.261239553977599571587294253833355
38,1.266630817816803277412813492609207
39,1.271881137392066955034455553040743
40,1.276997705804205245792503763030599
41,1.281987178599462492183638474823463
42,1.286855726073800921521474458947630
43,1.291609079363024625340170080262499
44,1.296252571184497803242017029335538
45,1.300791171958646170924111607446313
46,1.305229521925294149551817913588675
47,1.309571959776413841337132023199920
48,1.313822548249275431950256102330147
49,1.317985097059326116511599052601904
50,1.32206318349800193227108812767741
51,1.32606017097520991862003753302922
52,1.32997922574787281079057797089330
53,1.33382333204347835505934595015898
54,1.33759530576001420182250697253992
55,1.34129780690019384040288801175121
56,1.34493335087780446932952884526814
57,1.34850431881680873071498310965712
58,1.35201296694903505106817321092678
59,1.35546143520353738360844391758564
60,1.35885175506968063944670826437290
61,1.36218585680644386749720552103701
62,1.36546557606213223787180518195205
63,1.36869265996144699448986818807637
64,1.37186877271055006271601976333521
65,1.37499550076522515786654145408263
66,1.37807435760238990137213202651824
67,1.38110678813095116005985021172407
68,1.38409417277423966320932668351842
69,1.38703783125294728131218988639904
70,1.38993902609456208220032562200648
71,1.39279896589269757647783466131620
72,1.39561880833741432181232571372074
73,1.39839966303557904923795690341257
74,1.40114259413848762607027911131990
75,1.40384862279234706893017579608823
76,1.40651872942576226361920737807573
77,1.40915385588707065017077717241927
78,1.41175490744320233322149816176162
79,1.41432275465069625785507085771985
80,1.41685823510856496542666472983737
81,1.41936215510185110239929071140324
82,1.42183529114395740467023889525037
83,1.42427839142514314607606814678545
84,1.42669217717395574804857322018757
85,1.42907734393780697122052554935641
86,1.43143456278838724439072750815657
87,1.43376448145715421545806207252231
88,1.43606772540570823119858093007887
89,1.43834489883548395059820180778643
90,1.44059658564084407972432028503989
91,1.44282335030933976406898365421912
92,1.44502573877261387675715644270475
93,1.44720427921116118595799609701057
94,1.44935948281591645609896587695042
95,1.45149184450942038345360815030036
96,1.45360184362911144455740363493133
97,1.45568994457510739379650544098459
98,1.45775659742466727221949036842960
99,1.45980223851537131743308797181693
100,1.46182729099890982402684877197034
101,1.46383216536724269981718115182464
102,1.46581725995276588848014936185944
103,1.46778296140401291552953528639878
104,1.46972964513831254988624436034689
105,1.47165767577273049952826493200581
106,1.47356740753453229546666081761842
107,1.47545918465232643633767302297235
108,1.47733334172896762634662088015002
109,1.47919020409723134576512096471751
110,1.48103008815920857305811224774106
111,1.48285330171030361651862288987433
112,1.48466014424866857965475193620574
113,1.48645090727085244877927880564016
114,1.48822587455439403349595014623002
115,1.48998532242804754227393419925056
116,1.49172952003028124365372210684106
117,1.49345872955665795062096422164288
118,1.49517320649666503457918654384729
119,1.49687319986052796163602256937038
120,1.49855895239651550168261155570779
121,1.50023070079920649350159771398394
122,1.50188867590916913600636226274525
123,1.50353310290447158278213973403266
124,1.50516420148442493729099411510403
125,1.50678218604593017983953235045866
126,1.50838726585278536011066776153772
127,1.50997964519828881117435268059588
128,1.51155952356145155370230367973731
129,1.51312709575711998587364659342021
130,1.51468255208029157259113175738504
131,1.51622607844489084350950249056813
132,1.51775785651725803217676982882817
133,1.51927806384459090700527148147990
134,1.52078687397856906883041953308254
135,1.52228445659437188147264696667297
136,1.52377097760529751418767414079928
137,1.52524659927317726694659341905248
138,1.52671148031476573749672246404563
139,1.52816577600428528324851841260505
140,1.52960963827228778506559930215265
141,1.53104321580099216254497703133981
142,1.53246665411624801710745835494777
143,1.53388009567626712904898473263620
144,1.53528367995725735506656143859363
145,1.53667754353608928501349755729344
146,1.53806182017011814788758612771015
147,1.53943664087427525408994799451301
148,1.54080213399554430295893152451453
149,1.54215842528492435650908788247250
150,1.54350563796698312022817268813621
151,1.54484389280709644516122209392147
152,1.54617330817646435042620339089423
153,1.54749400011499251582900228247154
154,1.54880608239212314379358610866097
155,1.55010966656569342657329741434622
156,1.55140486203889948507926954533569
157,1.55269177611543682590186346270998
158,1.55397051405288913459855215132001
159,1.5552411791144290780537101083137
160,1.5565038726188974534200014159027
161,1.5577586939893191797323341812524
162,1.5590057407999155932657544035670
163,1.5602451088216678999066154579710
164,1.5614768920664864211019263537423
165,1.5627011828300342335745294238378
166,1.5639180717332557183628268302534
167,1.5651276477626572514744383315577
168,1.5663299983093827250372287528905
169,1.5675252092071289610082985350920
170,1.5687133647689407605264983583095
171,1.5698945478229257833392227651066
172,1.5710688397469271239312733228310
173,1.5722363205021889866564392809781
174,1.5733970686660513033556587312689
175,1.5745511614637072783646097355962
176,1.5756986747990535672333654282686
177,1.5768396832846663496654072378369
178,1.5779742602709324510419587970381
179,1.5791024778743619574472075705429
180,1.5802244070051132705630483710936
181,1.5813401173937532509892018616879
182,1.5824496776172801453437245879054
183,1.5835531551244323463874798833734
184,1.5846506162603072276781196439851
185,1.5857421262903118608463907027379
186,1.5868277494234665840835238772016
187,1.5879075488350852223063036502178
188,1.5889815866888473952834867803802
189,1.5900499241582866447801991754670
190,1.5911126214477100317639497911664
191,1.5921697378125684261895835825590
192,1.5932213315792938715309767740334
193,1.5942674601646223278716943545035
194,1.5953081800944151343008010112690
195,1.5963435470219971229356045371761
196,1.5973736157460250764337225869340
197,1.5983984402279009042774321677054
198,1.5994180736087436997711177383940
199,1.6004325682259335115670085230483
200,1.6014419756292407698798834723489
201,1.6024463465965523437692302908884
202,1.6034457311492076055997938158652
203,1.6044401785669551573623082842117
204,1.6054297374025418337155053393955
205,1.6064144554959439470611251888461
206,1.6073943799882537933485174129532
207,1.6083695573352272892339235905308
208,1.6093400333205069619987687833834
209,1.6103058530685260350541725461604
210,1.6112670610571051046303477733839
211,1.6122237011297487666069546293202
212,1.6131758165076524206061363277257
213,1.6141234498014236292357463089815
214,1.6150666430225330081660044433177
215,1.6160054375944938532638198753060
216,1.6169398743637844592349039592226
217,1.6178699936105170888087229134793
218,1.6187958350588625649087638520262
219,1.6197174378872337587365611325160
220,1.6206348407382404818896965029733
221,1.6215480817284136847958729878415
222,1.6224571984577161588207326452587
223,1.6233622280188333028726651069341
224,1.6242632070062590137947628162937
225,1.6251601715251792570783198508294
226,1.6260531572001568558304518452535
227,1.6269421991836261408340154913210
228,1.6278273321641992718907171776797
229,1.6287085903747913825823472607221
230,1.6295860076005692346780272614691
231,1.6304596171867251714414492693945
232,1.6313294520460867787422301002649
233,1.6321955446665572394590770747259
234,1.6330579271184025272237430679767
235,1.6339166310613786105887097832922
236,1.6347716877517083663696171042561
237,1.6356231280489118222719112673736
238,1.6364709824224914597948808430289
239,1.6373152809584780129748021620026
240,1.6381560533658389163653427262283
241,1.6389933289827536835845252401926
242,1.6398271367827590723587711697265
243,1.6406575053807680668168467610463
244,1.6414844630389643652494304987671
245,1.6423080376725767464241585314792
246,1.6431282568555358330026249170897
247,1.6439451478260146338234399276698
248,1.6447587374918604455839788579433
249,1.6455690524359130824145689572411
250,1.6463761189212198174439405138854
251,1.6471799628961449357609531244559
252,1.6479806099993766966655566411149
253,1.6487780855648367768050825243975
254,1.6495724146264918504458678082277
255,1.6503636219230711863025799370008
256,1.6511517319026903456848244900083
257,1.6519367687273873726983270127727
258,1.6527187562775679205521997108385
259,1.6534977181563661168156168588950
260,1.6542736776939215533209992886141
261,1.6550466579515727137636778420161
262,1.6558166817259715637227021785853
263,1.6565837715531181529823327344957
264,1.6573479497123206803046926440241
265,1.6581092382300795451785856708020
266,1.6588676588838975535742055638077
267,1.6596232332060194902330528246795
268,1.6603759824871010904893156289732
269,1.6611259277798116808190424516381
270,1.6618730899023662115384647007478
271,1.6626174894419959648848869714240
272,1.6633591467583519173211149333523
273,1.6640980819868481984546513643418
274,1.6648343150419428548657610833052
275,1.6655678656203597937003510721178
276,1.6662987532042501836563966866291
277,1.6670269970643007966541302208719
278,1.6677526162627810441137289671055
279,1.6684756296565402102852726882061
280,1.6691960558999469754765898937382
281,1.6699139134477791179821955851992
282,1.6706292205580608909614561405336
283,1.6713419952948512866922423174434
284,1.6720522555309803447152270946020
285,1.6727600189507403111090329951185
286,1.6734653030525276736215761134951
287,1.6741681251514411319284014949458
288,1.6748685023818319047737731100819
289,1.6755664516998110220385913641938
290,1.6762619898857143342419683668884
291,1.6769551335465230803966538591755
292,1.6776458991182428991043760144505
293,1.6783343028682451886454719415081
294,1.6790203608975658529568016553270
295,1.6797040891431635206227720313161
296,1.6803855033801448224187470064400
297,1.6810646192239466591112512548041
298,1.6817414521324847762458725564794
299,1.6824160174082654487576088428329
300,1.6830883302004620259861473473454
301,1.6837584055069567485108880088728
302,1.6844262581763499297151605072721
303,1.6850919029099336751852446600341
304,1.6857553542636337174502730181396
305,1.6864166266499207945661141890082
306,1.6870757343396908357396935487392
307,1.6877326914641111359437264105605
308,1.6883875120164399979470290507822
309,1.6890402098538159310222157107070
310,1.6896907986990167414740571816072
311,1.6903392921421921098875388317328
312,1.6909857036425671682246753845818
313,1.6916300465301184695155659832152
314,1.6922723340072241544136615439924
315,1.6929125791502876342547967404720
316,1.6935507949113361662585617402505
317,1.6941869941195918594733912757373
318,1.6948211894830204627069935950861
319,1.6954533935898550760004489515943
320,1.6960836189100947869008273127125
321,1.6967118777969821504631150843133
322,1.6973381824884556274087533174844
323,1.6979625451085804944766315901450
324,1.6985849776689572041023911159695
325,1.6992054920701089554035640261301
326,1.6998241001028467136934688458937
327,1.7004408134496144992756425422980
328,1.7010556436858121347100371137471
329,1.7016686022811004254056041698747
330,1.7022797006006852052017436561295
331,1.7028889499065816855110857096966
332,1.7034963613588601692437571100603
333,1.7041019460168735080470381515162
334,1.7047057148404644868620323276664
335,1.7053076786911574507082652138786
336,1.7059078483333302317259152947277
337,1.7065062344353692486998626135830
338,1.7071028475708088378956796930506
339,1.7076976982194508796925648871669
340,1.7082907967684708123315666863604
341,1.7088821535135057463346035136086
342,1.7094717786597271767218507072580
343,1.7100596823228979307943858023665
344,1.7106458745304133451671470189464
345,1.7112303652223284913643470674699
346,1.7118131642523689247498406002035
347,1.7123942813889285221291593676097
348,1.7129737263160512197247532029407
349,1.7135515086344001964271596231229
350,1.7141276378622120446401050711777
351,1.7147021234362380163017462441703
352,1.7152749747126720264247870779152
353,1.7158462009680646985121311662733
354,1.7164158114002248663027403835741
355,1.7169838151291088971099048447781
356,1.7175502211976960465193745275012
357,1.7181150385728530834707720879361
358,1.7186782761461874297085839697254
359,1.7192399427348845587269153485280
360,1.7198000470825385921127379549802
361,1.7203585978599678381425336645321
362,1.7209156036660217542184361150810
363,1.7214710730283739287435790396347
364,1.7220250144043061064168578659069
365,1.7225774361814814933016057274188
366,1.7231283466787062193246248170206
367,1.7236777541466818502037845880081
368,1.7242256667687457375207646185893
369,1.7247720926616038394725013779679
370,1.7253170398760517254649217316619
371,1.7258605163976866178467009505178
372,1.7264025301476094272509111728577
373,1.7269430889831167482491971629020
374,1.7274822006983871237869497788453
375,1.7280198730251522699584523205613
376,1.7285561136333647173267316500399
377,1.7290909301318536579881219306451
378,1.7296243300689721657822234655268
379,1.7301563209332376294381109151825
380,1.7306869101539621554109379963379
381,1.7312161051018758158339570591748
382,1.7317439130897398597449038329957
383,1.7322703413729545622375884572858
384,1.7327953971501566752281078280745
385,1.7333190875638101010793198425899
386,1.7338414197007904477243999356339
387,1.7343624005929592146135314792025
388,1.7348820372177315462692676449312
389,1.7354003364986382281224087705701
390,1.7359173053058791137201578459069
391,1.7364329504568683002322550567812
392,1.7369472787167746606163218063626
393,1.7374602967990552059128567736944
394,1.7379720113659798587502992359189
395,1.7384824290291504949158901374308
396,1.7389915563500139038426048018149
397,1.7394993998403682979028832570936
398,1.7400059659628633786254253318045
399,1.7405112611314925256086239855740
400,1.7410152917120814080700465866299
401,1.7415180640227690679329565873909
402,1.7420195843344822196484113887175
403,1.7425198588714055874736533379773
404,1.7430188938114461732779460354880
405,1.7435166952866889203022519027475
406,1.7440132693838498818882633328501
407,1.7445086221447240118775443523557
408,1.7450027595666250798561338157967
409,1.7454956876028205723018362373723
410,1.7459874121629640940934141902031
411,1.7464779391135195303802596594293
412,1.7469672742781805513823699512437
413,1.7474554234382865391603235298058
414,1.7479423923332313601815746041716
415,1.7484281866608692676255628370473
416,1.7489128120779143630412099231188
417,1.7493962742003364658237289421038
418,1.7498785786037505537271909705300
419,1.7503597308238040529048514287225
420,1.7508397363565569593791759303115
421,1.7513186006588587441053538541893
422,1.7517963291487213232107838897488
423,1.7522729272056859295302633604980
424,1.7527484001711874991415294857602
425,1.7532227533489129522400792519240
426,1.7536959920051569751729373430449
427,1.7541681213691727882396395645069
428,1.7546391466335179129266784209621
429,1.7551090729543988509413261848759
430,1.7555779054520075371281974665344
431,1.7560456492108570698999964605156
432,1.7565123092801138686738242761813
433,1.7569778906739215961865301554685
434,1.7574423983717279436023538687599
435,1.7579058373186021020629131445888
436,1.7583682124255508216448594579499
437,1.7588295285698312190698908014928
438,1.7592897905952593162053482311969
439,1.7597490033125149906340946413732
440,1.7602071714994444094801434908612
441,1.7606642999013571063160226535627
442,1.7611203932313212647705831360791
443,1.7615754561704568565048089277762
444,1.7620294933682212528980346990476
445,1.7624825094426966410741933661862
446,1.7629345089808702685881908275913
447,1.7633854965389146859107935493494
448,1.7638354766424612048830975894433
449,1.7642844537868744136143931644316
450,1.7647324324375199002331708099029
451,1.7651794170300326885534893490387
452,1.7656254119705792269726961047647
453,1.7660704216361186736396370791831
454,1.7665144503746598668084685582285
455,1.7669575025055176042170473165329
456,1.7673995823195635284546536500081
457,1.7678406940794763139910021107185
458,1.7682808420199875517283320639821
459,1.7687200303481258449655158067785
460,1.7691582632434587590809729991929
461,1.7695955448583304746230784932114
462,1.7700318793180983568211671840028
463,1.7704672707213670452508189423059
464,1.7709017231402182245214991840106
465,1.7713352406204400446839689049649
466,1.7717678271817533220152736967769
467,1.7721994868180338006589326085204
468,1.7726302234975354907211650046658
469,1.7730600411631075594802429255439
470,1.7734889437324123002093119383037
471,1.7739169350981384456783457208049
472,1.7743440191282141239057407790548
473,1.7747701996660148070202222658653
474,1.7751954805305737571841546709409
475,1.7756198655167838922901505660654
476,1.7760433583956035851930478020143
477,1.7764659629142567294291068541206
478,1.7768876827964317473664129749001
479,1.7773085217424784301246551133456
480,1.7777284834296030037990741925684
481,1.7781475715120599728161752441994
482,1.7785657896213443091602751246514
483,1.7789831413663793674191054661319
484,1.7793996303337033453532558169599
485,1.7798152600876557668153565536223
486,1.7802300341705585717599343010485
487,1.7806439561028986620741295333195
488,1.7810570293835064996617818025749
489,1.7814692574897339848262548494607
490,1.7818806438776294779404916729394
491,1.7822911919821120985483874677695
492,1.7827009052171438899428105847465
493,1.7831097869758998240855198714011
494,1.7835178406309367407629327360868
495,1.7839250695343594133248141658689
496,1.7843314770179869852764053128113
497,1.7847370663935154630909995417888
498,1.7851418409526802103403748424954
499,1.7855458039674159403058466018395
500,1.785948958690016337380192427348
501,1.786351308353289053107413388000
502,1.786752856170713531846074897160
503,1.787153605336593133982880985661
504,1.787553559026209400331476820954
505,1.787952720395971304974771529456
506,1.788351092583565226427343130910
507,1.788748678708103484930394715518
508,1.789145481870271085619337978652
509,1.789541505152468898231208837302
510,1.789936751618959326362683986094
511,1.790331224316007697125027683006
512,1.790724926272023271161098372406
513,1.791117860497698488528936319580
514,1.791510029986147126681835842878
515,1.791901437713041744610096313180
516,1.792292086636748623300627656506
517,1.792681979698461277071553028190
518,1.793071119822334320986920310045
519,1.793459509915614476114564757281
520,1.793847152868771569449764853603
521,1.794234051555626323552697254932
522,1.794620208833479211920263221322
523,1.795005627543236817068999225584
