Eigenstate,Potential Energy
1,0.500000000032816889808934000020054943
2,0.64623093786532611122134898287337043
3,0.73633761033420416051805174946043526
4,0.79966527912484884980206670944794671
5,0.8480465775559282208204428222355940
6,0.8870660003832508441465702645089915
7,0.9197208290455227946919275935262323
8,0.9477838499199766476255113535063289
9,0.9723835620130625087936452514785953
10,0.9942802194734635771900571591059529
11,1.0140093924422971566609577235458707
12,1.0319621762242523497819169200679751
13,1.0484327008851851564279351135876903
14,1.0636476641082819011002694969713165
15,1.0777854470082452631219351797093446
16,1.090988919001740128037324535209676
17,1.103374271268898533719683528259464
18,1.115037267759519630216130949963543
19,1.126057768297047706985623172396314
20,1.136503066212508969856933887582455
21,1.146430394426208989600254088299276
22,1.155888836606473052531880269616268
23,1.164920805106170990674464860331444
24,1.173563198363139482355059328357660
25,1.181848317696108559018090028593319
26,1.189804601112289450517481589883680
27,1.197457216269950499165712706438806
28,1.204828543837457063129245033216195
29,1.211938574695223507851452576841220
30,1.218805238777537814595287270369082
31,1.225444679205280834908670149147644
32,1.231871482282662634940399690703022
33,1.238098871621450569300899410320498
34,1.244138872905617457939489292440015
35,1.250002454470143173772634514438784
36,1.255699647834224070231164318327610
37,1.261239651525060129373911410802691
38,1.266630920897970968077222844124906
39,1.271881246160743190298350035387189
40,1.276997820414290789873392433867392
41,1.281987299204960034597636652324420
42,1.286855852828817660838792191856850
43,1.291609212421774863024960525056896
44,1.296252710701305546852242587715332
45,1.300791318087947746066645270445582
46,1.305229674821640820087707562452698
47,1.309572119594474437415484964072343
48,1.313822715143838985519541445553379
49,1.317985271185304504016578859681620
50,1.32206336501043252429401864978202
51,1.32606036002925823626777419636567
52,1.32997942249883518866594890816764
53,1.33382353664678461068668853371335
54,1.33759551837123031142445018167663
55,1.34129802767502462094892318642162
56,1.34493357997209626679728235715785
57,1.34850455638655211452277832517978
58,1.35201321315036751465299922067737
59,1.35546169019274605113689474208769
60,1.35885201900320497865838368739556
61,1.36218612984087840869050824851011
62,1.36546585835422929905133373501648
63,1.36869295166811941270277365120233
64,1.37186907398887393161194745835009
65,1.37499581177244257152231363109106
66,1.37807467849591170442808462110306
67,1.38110711906835970421992803746516
68,1.38409451391329157016171434790164
69,1.38703818275157621213150697500855
70,1.38993938811088151329610675931765
71,1.39279933858500358215763187480668
72,1.39561919186418836353073416297780
73,1.39840005755549077160587531173840
74,1.40114299981039765970125702904106
75,1.40384903977530984020314991772813
76,1.40651915787902881143911828392204
77,1.40915429597009144981062440106453
78,1.41175535931563012733130312090185
79,1.41432321847238889472498257931005
80,1.41685871103958824459307365868167
81,1.41936264330248162768439169284485
82,1.42183579177468544474693573170871
83,1.42427890464667550265145286960726
84,1.42669270314721863176055083784126
85,1.42907788282394888534336968069692
86,1.43143511474878187644649122441979
87,1.43376504665340333683194978105042
88,1.43606830399964460485742125621035
89,1.43834549098917424701218964736682
90,1.44059719151659180109318962853955
91,1.44282397006968817695476851867691
92,1.44502637258034895322657556955158
93,1.44720492722931455333843995983479
94,1.44936014520776835545292888228689
95,1.45149252143850263687729562203511
96,1.45360253525921043141002581374032
97,1.45569065107026703596770256998961
98,1.45775731894919202854301759797855
99,1.45980297523382918735582375141810
100,1.46182804307613536064286952076504
101,1.46383293296834003237751678237547
102,1.46581804324311175448956381995382
103,1.46778376054925970254241454159486
104,1.46973046030439134711456255760659
105,1.47165850712585415937522280239726
106,1.47356825524119850510042895556489
107,1.47546004887932079942041449167827
108,1.47733422264336675503469341831992
109,1.47919110186640596309719465745356
110,1.48103100295082662584858940881598
111,1.48285423369233339887458352450684
112,1.48466109358938186723538486546334
113,1.48645187413882764391750169174877
114,1.48822685911851932130270370909408
115,1.48998632485752405784640714960959
116,1.49173054049462625050952913747004
117,1.49345976822570803048104534980886
118,1.49517426354057928862303860553062
119,1.49687427544979122335357851326554
120,1.49856004670194156144794713395463
121,1.50023181399194133499438648938378
122,1.50188980816069418460782867250298
123,1.50353425438660696607305013815091
124,1.50516537236933275778005778165006
125,1.50678337650611780005136247403613
126,1.50838847606110870016332075961157
127,1.50998087532795565897727681524073
128,1.51156077378602488790640236313593
129,1.51312836625052131170595082123626
130,1.51468384301680427070745786544093
131,1.51622738999916353199931882772531
132,1.51775918886430794185550124203925
133,1.51927941715980727012983528371269
134,1.52078824843771652137504913126583
135,1.52228585237359387910274040395280
136,1.52377239488111976207026474876715
137,1.52524803822251116353714627693335
138,1.52671294111491183244271756816097
139,1.52816725883293674955131408244673
140,1.52961114330753390564295478700568
141,1.53104474322132183133753909628923
142,1.53246820410055325487361926333159
143,1.53388166840384661399328805691849
144,1.53528527560781996844802573979793
145,1.53667916228975767188102637351650
146,1.53806346220743229309075863106892
147,1.53943830637619607371449765763905
148,1.54080382314345725133713303710350
149,1.54216013826064304895644482618688
150,1.54350737495275297165873953500849
151,1.54484565398559832473501994679709
152,1.54617509373081825238320158999087
153,1.54749581022876124666530126145155
154,1.54880791724931602593636247462304
155,1.55011152635077001871236027947307
156,1.55140674693677331931414005619901
157,1.55269368631147916186429742232011
158,1.55397244973293273071170407369099
159,1.5552431404647719800902113437240
160,1.5565058598263068005224188067853
161,1.5577607072410350280606638418822
162,1.5590077802836547574377596532112
163,1.5602471747256278123979569355288
164,1.5614789845793490097743980251147
165,1.5627033021409698175018663446330
166,1.5639202180319269221247075505734
167,1.5651298212392229380906436700711
168,1.5663321991545019477152519685809
169,1.5675274376119649338787323311732
170,1.5687156209251648485422082499960
171,1.5698968319227215115151752570570
172,1.5710711519829942061035820747764
173,1.5722386610677473739402793530620
174,1.5733994377548452524831969339694
175,1.5745535592700094400853928673372
176,1.5757011015176690949610237126039
177,1.5768421391109370285558511648655
178,1.5779767454007408476897554663809
179,1.5791049925041355903881742195041
180,1.5802269513318288017725622564982
181,1.5813426916149406985671873290719
182,1.5824522819310271175787537052586
183,1.5835557897293882973938291616869
184,1.5846532813556877348012493313349
185,1.5857448220759029240338340242039
186,1.5868304760996289474194777753532
187,1.5879103066027587179100891408954
188,1.5889843757495553097733627328506
189,1.5900527447141401085057165478431
190,1.5911154737014124310116435370676
191,1.5921726219674198385683067228501
192,1.5932242478391955247449649854289
193,1.5942704087340810820909881584495
194,1.5953111611785479883403898372563
195,1.5963465608265357444562674507696
196,1.5973766624773203563793537491554
197,1.5984015200929275357652834394767
198,1.5994211868151047816531374057146
199,1.6004357149818651768823306196168
200,1.6014451561436168394201368650649
201,1.6024495610788890049801321029033
202,1.6034489798096681170446435266757
203,1.6044434616163545789743145291680
204,1.6054330550523517830682146424890
205,1.6064178079582973818877610260180
206,1.6073977674759498205431329019210
207,1.6083729800617360005691325289113
208,1.6093434914999742967967485235730
209,1.6103093469157786700496348306970
210,1.6112705907876553712660878439119
211,1.6122272669597995960046735701607
212,1.6131794186541023164571128183799
213,1.6141270884818716688582645058956
214,1.6150703184552838719781777277975
215,1.6160091499985628829227555433925
216,1.6169436239589027446952605346302
217,1.6178737806171365845557473569469
218,1.6187996596981612356230619581417
219,1.6197213003811207546502520482146
220,1.6206387413093613440954865214358
221,1.6215520206001555807730394216682
222,1.6224611758542131484442429204515
223,1.6233662441649716351738006702503
224,1.6242672621276824547440836138739
225,1.6251642658482944486640823694848
226,1.6260572909521387067078938300366
227,1.6269463725924232488233470588109
228,1.6278315454585393786041100563149
229,1.6287128437841868604625228778213
230,1.6295903013553226067336532616393
231,1.6304639515179346639669332684801
232,1.6313338271856519073120266898143
233,1.6321999608471844284892473819511
234,1.6330623845736107633959734483479
235,1.6339211300255051304346405998259
236,1.6347762284599143783159012494903
237,1.6356277107371882634492696572136
238,1.6364756073276647879167706964983
239,1.6373199483182160335943242989894
240,1.6381607634186566458216836777000
241,1.6389980819680192479529324920326
242,1.6398319329406996427207648336885
243,1.6406623449524758311706212545225
244,1.6414893462664025373826486803155
245,1.6423129647985856120747664024593
246,1.6431332281238388336360880428548
247,1.6439501634812244883575529647972
248,1.6447637977794853103956949862442
249,1.6455741576023627499660469035407
250,1.6463812692138119538683509922994
251,1.6471851585631113577514700990336
252,1.6479858512898696880141389808732
253,1.6487833727289354449407246447698
254,1.6495777479152085233255194455767
255,1.6503690015883578500106401026392
256,1.6511571581974451231010364612742
257,1.6519422419054610435965425934666
258,1.6527242765937704834963070889645
259,1.6535032858664733932220177504660
260,1.6542792930546818340605612131622
261,1.6550523212207134486796676209137
262,1.6558223931622060944443078164710
263,1.6565895314161524894174304030698
264,1.6573537582628603211986132176256
265,1.6581150957298363431295548802285
266,1.6588735655955966248995977448271
267,1.6596291893934061700844090393816
268,1.6603819884149479336178921209383
269,1.6611319837139255083970740165000
270,1.6618791961095952044455300491729
271,1.6626236461902368038724291713848
272,1.6633653543165569704722222339366
273,1.6641043406250327563598516422671
274,1.6648406250311924139399926963925
275,1.6655742272328373880698690725430
276,1.6663051667132037660488672794118
277,1.6670334627440706687290139902881
278,1.6677591343888073366743606420233
279,1.6684822005053704138181310991683
280,1.6692026797492435214677331505046
281,1.6699205905763270114651293188001
282,1.6706359512457753947547691003367
283,1.6713487798227856577901485223426
284,1.6720590941813336232982995870278
285,1.6727669120068651626473696999370
286,1.6734722507989382845466318364085
287,1.6741751278738211593547497800107
288,1.6748755603670424807568893677421
289,1.6755735652358988128587370757815
290,1.6762691592619196552099751955731
291,1.6769623590532880666815342453135
292,1.6776531810472197330880431600059
293,1.6783416415123043843143230677380
294,1.6790277565508045978457359984301
295,1.6797115421009140758311738608875
296,1.6803930139389829812239764806068
297,1.6810721876817002647102455938998
298,1.6817490787882422991601518366909
299,1.6824237025623846244428689683044
300,1.6830960741545785531928591819855
301,1.6837662085639930489476296303390
302,1.6844341206405239695718852803575
303,1.6850998250867678490793875182043
304,1.6857633364599637953641679825540
305,1.6864246691739049323497625819082
306,1.6870838375008186497589549716769
307,1.6877408555732128424594688426713
308,1.6883957373856956178169806609167
309,1.6890484967967645603231474721260
310,1.6896991475305658886476551281984
311,1.6903477031786271000197398136674
312,1.6909941772015606150745581087983
313,1.6916385829307398159157597182663
314,1.6922809335699492816706088724125
315,1.6929212421970085411838512843742
316,1.6935595217653707184951576202867
317,1.6941957851056936097081086339462
318,1.6948300449273885424990711394362
319,1.6954623138201441598308657141830
320,1.6960926042554251291328152990452
321,1.6967209285879496958850520988416
322,1.6973472990571421960412788726235
323,1.6979717277885640413324470486070
324,1.6985942267953221545949388798872
325,1.6992148079794566171075396308736
326,1.6998334831333057651676768211147
327,1.7004502639408515566658630280261
328,1.7010651619790423968570109041625
329,1.7016781887190983981911176856601
330,1.7022893555277955058730405772398
331,1.7028986736687299277318398420710
332,1.7035061543035639296275493157187
333,1.7041118084932533749371748648089
334,1.7047156471992551921296611784001
335,1.7053176812847190853487339671117
336,1.7059179215156595460416887983690
337,1.7065163785621110378664312368965
338,1.7071130629992674137156903028853
339,1.7077079853086016293511203323602
340,1.7083011558789718449753100899974
341,1.7088925850077096283051715088853
342,1.7094822829016927562833977580868
343,1.7100702596784022532036523775863
344,1.7106565253669636589439887382748
345,1.7112410899091743466292796759719
346,1.7118239631605143645048629089908
347,1.7124051548911443673672086470667
348,1.7129846747868874492629802504558
349,1.7135625324501984223682309992513
350,1.7141387374011180843764733624491
351,1.7147132990782145619866186169843
352,1.7152862268395114128442169477979
353,1.7158575299634017703025108038137
354,1.7164272176495499454684312107272
355,1.7169952990197808518055661951337
356,1.7175617831189554620728313204340
357,1.7181266789158355366322507554851
358,1.7186899953039368671230019050268
359,1.7192517411023667806372732250030
360,1.7198119250566548423131442949895
361,1.7203705558395685012107453246172
362,1.7209276420519201610693272989740
363,1.7214831922233602715560988455416
364,1.7220372148131614639986606204051
365,1.7225897182109919679676116676048
366,1.7231407107376771863773578850043
367,1.7236902006459523211153326025847
368,1.7242381961212028379287352500221
369,1.7247847052821974031144727584228
370,1.7253297361818090051882869205788
371,1.7258732968077271148438569164551
372,1.7264153950831598396821750209992
373,1.7269560388675260404290919841136
374,1.7274952359571417171225862322325
375,1.7280329940858913568422116544459
376,1.7285693209258956991983778605153
377,1.7291042240881677087963525945974
378,1.7296377111232599220880836035081
379,1.7301697895219050084177874785952
380,1.7307004667156463020292020659029
381,1.7312297500774611804743508899643
382,1.7317576469223744075965465337125
383,1.7322841645080661157541503075347
384,1.7328093100354693909890126443081
385,1.7333330906493610823984809524675
386,1.7338555134389464943672513531785
387,1.7343765854384337109984392755930
388,1.7348963136276014895457136833866
389,1.7354147049323613975334845258030
390,1.7359317662253113826741175391059
391,1.7364475043262810925234400490874
392,1.7369619260028725522526813079623
393,1.7374750379709936740244131090968
394,1.7379868468953831790695409685139
395,1.7384973593901297893385811520293
396,1.7390065820191853395950292963703
397,1.7395145212968714398593113684492
398,1.7400211836883796963374446993777
399,1.7405265756102640566263817581821
400,1.7410307034309295791538693774568
401,1.7415335734711136757724055388910
402,1.7420351920043605727251466394457
403,1.7425355652574918107231599802153
404,1.7430346994110706772255245926481
405,1.7435326005998580363673256724824
406,1.7440292749132656655719905612364
407,1.7445247283958042155686883730899
408,1.7450189670475232970105519381603
409,1.7455119968244465547719207876137
410,1.7460038236390042444053751981729
411,1.7464944533604575707776212672955
412,1.7469838918153183714764627058130
413,1.7474721447877652240505884398317
414,1.7479592180200524009303586269039
415,1.7484451172129159559952265401102
416,1.7489298480259733724237218333423
417,1.7494134160781196203163327473547
418,1.7498958269479167873319199204221
419,1.7503770861739815608524366082186
420,1.7508571992553655436032924699598
421,1.7513361716519323549164083343300
422,1.7518140087847307992447739620625
423,1.7522907160363619380719865446437
424,1.7527662987513436789484805816616
425,1.7532407622364692610180192360282
426,1.7537141117611632438811788847880
427,1.7541863525578324844306189996980
428,1.7546574898222121153514736108163
429,1.7551275287137104376797622700050
430,1.7555964743557455895307891369689
431,1.7560643318360814946563978426058
432,1.7565311062071602403515750604106
433,1.7569968024864262226125782168973
434,1.7574614256566531564896156079012
435,1.7579249806662617753133763818405
436,1.7583874724296361197917383924397
437,1.7588489058274365783513140131844
438,1.7593092857069086607937271358241
439,1.7597686168821881865765836443535
440,1.7602269041346039589375877790908
441,1.7606841522129750847206515982932
442,1.7611403658339065035551442621852
443,1.7615955496820823740896739782322
444,1.7620497084105519366563184297772
445,1.7625028466410171830298835799091
446,1.7629549689641133576364422690988
447,1.7634060799396894593853284069646
448,1.7638561840970819623319868745525
449,1.7643052859353895956810830704945
450,1.7647533899237413355768204764400
451,1.7652005005015651117809808393364
452,1.7656466220788500705912253682309
453,1.7660917590364081370788081703604
454,1.7665359157261312655992506753611
455,1.7669790964712480024548139628649
456,1.7674213055665746577140394289305
457,1.7678625472787657819009709521888
458,1.7683028258465603434572770512204
459,1.7687421454810261209088412405497
460,1.7691805103658019520860381944691
461,1.7696179246573356901299506503555
462,1.7700543924851210793413644810210
463,1.7704899179519321546511276538374
464,1.7709245051340533256255445069197
465,1.7713581580815091137494490520174
466,1.7717908808182906736932867856842
467,1.7722226773425783790868156215997
468,1.7726535516269654884499542307493
469,1.7730835076186753679874789143296
470,1.7735125492397797957953013353697
471,1.7739406803874126145958101198230
472,1.7743679049339830306243983446513
473,1.7747942267273839095782426526540
474,1.7752196495912025736322659971319
475,1.7756441773249230222876776754084
476,1.7760678137041320908681001747676
477,1.7764905624807198796725534808550
478,1.7769124273830791297834966472158
479,1.7773334121163024349255230328689
480,1.7777535203623776839668883927152
481,1.7781727557803802849509846805492
482,1.7785911220066657394557069576803
483,1.7790086226550579472888632637877
484,1.7794252613170360612873524967951
485,1.7798410415619213691066613063904
486,1.7802559669370587868056856327210
487,1.7806700409679998130219892158272
488,1.7810832671586815402335547963581
489,1.7814956489916049512207919491134
490,1.7819071899280103637835201047091
491,1.7823178934080521579247296983296
492,1.7827277628509713736177360342661
493,1.7831368016552661540918679878026
494,1.7835450131988611286008229947692
495,1.7839524008392739270962518799733
496,1.7843589679137820711490850463376
497,1.7847647177395859265615131002363
498,1.7851696536139716628437552686718
499,1.7855737788144717167955224149334
500,1.785977096599024890580254460221
501,1.786379610206131830222176511374
502,1.786781322855013339590021694211
503,1.787182237745762997878428481501
504,1.787582358059501924306143649071
505,1.787981686958528537373842870020
506,1.788380227586469038646310128816
507,1.788777983068426468957708307313
508,1.789174956511127976871081329656
509,1.789571151003068530150883672951
510,1.789966569614657123348615560446
511,1.790361215398358712447228790051
512,1.790755091388835776619985085180
513,1.791148200603088122708297122095
514,1.791540546040591608746923929069
515,1.791932130683436160701538727057
516,1.792322957496461292676854693626
517,1.792713029427390205257115112248
518,1.793102349406964247288796438952
519,1.793490920349074522975711555312
520,1.793878745150893501219003628946
521,1.794265826693003422359802591156
522,1.794652167839525778459351548436
523,1.795037771438248304205532795200
