Eigenstate,Potential Energy
1,0.500000000015987135002159036992028315
2,0.64623093775547027031644941353665261
3,0.73633761001151161917517800079272346
4,0.79966527845271749494730252604743572
5,0.8480465763916599712281514894969152
6,0.8870659985816507414235210746181516
7,0.9197208264602254253836165441041375
8,0.9477838464039996165815732928903526
9,0.9723835574190640808774312982760778
10,0.9942802136538736961795439055919409
11,1.0140093852493888560528425178417659
12,1.0319621675101827883462078599791050
13,1.0484326905020201174911197988750799
14,1.0636476519080107753034100112925920
15,1.0777854328427902901602610306419383
16,1.090988902722962032289701323598983
17,1.103374252728599814257415998159636
18,1.115037246809446277881382750976537
19,1.126057744788889838042944993502782
20,1.136503039997900695449184814592191
21,1.146430365356727734626918200427879
22,1.155888804533638470218543485287359
23,1.164920769881443575073039111613901
24,1.173563159837918951578704550632111
25,1.181848275721732061932570941051611
26,1.189804555540029635654967237361546
27,1.197457166951013474764225745579184
28,1.204828490622980270122499412801997
29,1.211938517436273522481187431341865
30,1.218805177325108093518159641782752
31,1.225444613410289412833193458084473
32,1.231871411995949782688214498277584
33,1.238098796693776418553446559358671
34,1.244138793187659597673280205662595
35,1.250002369812494222408699632261506
36,1.255699558087389226758021857724976
37,1.261239556539454706097994990659312
38,1.266630820523917907172838175431133
39,1.271881140248470565942976079295929
40,1.276997708813929297442421028985888
41,1.281987181766540468139583130858363
42,1.286855729402268379845260491837734
43,1.291609082856919249339814387872291
44,1.296252574847859452424217877245282
45,1.300791175795516932133216534147662
46,1.305229525939718388280928515326249
47,1.309571963972438253199182831649755
48,1.313822552630949094298750436273850
49,1.317985101630700540202240672549170
50,1.32206318826313111355687032661549
51,1.32606017593815039117347483627399
52,1.32997923091268369784772898188780
53,1.33382333741422142168109686488824
54,1.33759531134075390726929876780235
55,1.34129781269499739061968043086698
56,1.34493335689074186953832513534125
57,1.34850432505195283811270069312801
58,1.35201297341046162762804695802168
59,1.35546144189532514898349911585852
60,1.35885176199591132397414705111229
61,1.36218586397120226530282258564227
62,1.36546558346950626007378369653653
63,1.36869266761552772250152040741934
64,1.37186878061543180164721653420706
65,1.37499550892500549002375037614538
66,1.37807436602116973985711852502485
67,1.38110679681283480246723665421153
68,1.38409418172333484542331607569145
69,1.38703784047336523140286765956350
70,1.38993903559041757442004770524635
71,1.39279897566810898535829378005359
72,1.39561881839650367636296446915859
73,1.39839967338247208724646659859349
74,1.40114260477731384850598454189917
75,1.40384863372723979445116471618079
76,1.40651874066085868318411581665648
77,1.40915386742651188175618300679932
78,1.41175491929113347664593219803636
79,1.41432276681126644971067612417272
80,1.41685824758592743411959386265779
81,1.41936216790016322329994010780659
82,1.42183530426738075537446803846020
83,1.42427840487784356177857459984615
84,1.42669219096010337702962382605361
85,1.42907735806157633044726258217461
86,1.43143457725395727523429989175693
87,1.43376449626870833952784804742977
88,1.43606774056743440629479137091280
89,1.43834491435157472678417387206152
90,1.44059660151549665551982690226202
91,1.44282336654675604276590142062745
92,1.44502575537700052285885235202185
93,1.44720429618672968174381136642551
94,1.44935950016688315831518433582147
95,1.45149186224000658013231547137512
96,1.45360186174354341196465580041438
97,1.45568996307761645351123370224639
98,1.45775661631948984834459059223383
99,1.45980225780674899394015200022621
100,1.46182731069108940223600073854356
101,1.46383218546447625601350034182649
102,1.46581728045931083166816877753357
103,1.46778298232413204532731742051485
104,1.46972966647627411456054794583782
105,1.47165769753280825417231952789829
106,1.47356742972100556032208705292762
107,1.47545920726948015526208345714952
108,1.47733336478109242542845787784658
109,1.47919022758862359208729534443349
110,1.48103011209417043361200571025381
111,1.48285332609314311727003751801029
112,1.48466016908369966476340054363087
113,1.48645093256239503997340813491384
114,1.48822590030677408960370900843219
115,1.48998534864559711891310217956114
116,1.49172954671733855308142189499964
117,1.49345875671756742174499631992787
118,1.49517323413577737313262538082635
119,1.49687322798220021051673469003005
120,1.49855898100511110145934829545511
121,1.50023072989909534308833512672861
122,1.50188870550472765350657042573849
123,1.50353313300008276650467263562914
124,1.50516423208447842693928371406724
125,1.50678221715482231787580864988887
126,1.50838729747491925329691063099520
127,1.50997967733807439229170150754726
128,1.51155955622330564345065832414965
129,1.51312712894546635495320177326763
130,1.51468258579956100396759561491003
131,1.51622611269952119486475793326771
132,1.51775789131169429854674844173475
133,1.51927809918328528360682287069340
134,1.52078690986598101407896125911516
135,1.52228449303496818019238574462189
136,1.52377101460355234101621765384018
137,1.52524663683357224993575768144908
138,1.52671151844179002191136479952733
139,1.52816581470243559556522996044836
140,1.52960967754606849717310582385582
141,1.53104325565491535614809594242176
142,1.53246669455483354833647782580461
143,1.53388013670404269327634343178115
144,1.53528372157875855193271109877202
145,1.53667758575585968366383513750348
146,1.53806186299270935242236780453737
147,1.53943668430424696922909885102587
148,1.54080217803746439992367132125198
149,1.54215846994336893912230826632630
150,1.54350568324653659123551553611501
151,1.54484393871235157277480893339071
152,1.54617335471202233509298428181983
153,1.54749404728546305722570131600110
154,1.54880613020212450805023400756082
155,1.55010971501985251372734765444928
156,1.55140491114185189676229819789380
157,1.55269182587182693326088996095876
158,1.55397056446737014645400903127835
159,1.5552412301916631092960947756728
160,1.5565039243635555936472665892876
161,1.5577587464060815621300891540252
162,1.5590057938934714637323586438439
163,1.5602451625967156864252359122021
164,1.5614769465277338033616731833269
165,1.5627012379821982128427849983846
166,1.5639181275810626876108797600664
167,1.5651277043108430657585704853386
168,1.5663300555626927721373963760157
169,1.5675252671703182323265799220411
170,1.5687134234467739222474630538818
171,1.5698946072201772478544321156410
172,1.5710688998683811215300841917364
173,1.5722363813526396374853507722191
174,1.5733971302503026896484045156577
175,1.5745512237865735169452358872989
176,1.5756987378653588822945619388128
177,1.5768397470992451458243325606667
178,1.5779743248386293866758536690618
179,1.5791025432000320183110803637857
180,1.5802244730936218436917304164372
181,1.5813401842499761988861003055425
182,1.5824497452461038804586057776471
183,1.5835532235307539058856099886017
184,1.5846506854490343485031500280810
185,1.5857421962663630550793482960460
186,1.5868278201917712146002813420430
187,1.5879076204005835787359587157577
188,1.5889816590564907702700436756540
189,1.5900499973330374105500088548833
190,1.5911126954345417170013221885217
191,1.5921698126164657932230665572392
192,1.5932214072052529938327745825249
193,1.5942675366176506678726845681658
194,1.5953082573795316215237073680838
195,1.5963436251442322324488123528810
196,1.5973736947104209076282908372545
197,1.5983985200395112599698510272825
198,1.5994181542726341656343895933770
199,1.6004326497471815358926307114383
200,1.6014420580129357436733550223519
201,1.6024464298477956811816672515587
202,1.6034458152731128246983348560554
203,1.6044402635686479612419256334339
204,1.6054298232871601919549036494647
205,1.6064145422686381775254347031119
206,1.6073944676541866443414481210708
207,1.6083696458995740220021353571089
208,1.6093401227884554335911808542384
209,1.6103059434452767815389705062395
210,1.6112671523478714246724715006486
211,1.6122237933397568054088560200426
212,1.6131759096421412542145916996335
213,1.6141235438656453492176066971289
214,1.6150667380217528066556804296731
215,1.6160055335339901083853993561901
216,1.6169399712488488209017744510563
217,1.6178700914464545649036012113336
218,1.6187959338509916078470650730859
219,1.6197175376408863524160498189935
220,1.6206349414587622290293708876521
221,1.6215481834211638946670702433308
222,1.6224573011280679353734656024927
223,1.6233623316721736332602001495724
224,1.6242633116479888572994876400087
225,1.6251602771607136344419686696079
226,1.6260532638349249389917609657859
227,1.6269423068230713430769095345746
228,1.6278274408137793384061763342667
229,1.6287087000399784814470712761930
230,1.6295861182868500482530827993703
231,1.6304597288996009881940829865395
232,1.6313295647910735854940691991249
233,1.6321956584491858140639278124609
234,1.6330580419442185316782764128595
235,1.6339167469359426845792640740358
236,1.6347718046805962212584772510975
237,1.6356232460377143355263218982708
238,1.6364711014768147698621965289477
239,1.6373154010839436146071160110101
240,1.6381561745680837563969878904484
241,1.6389934512674302571658734311449
242,1.6398272601555355196497570442097
243,1.6406576298473282701436842946107
244,1.6414845886050080467280182836404
245,1.6423081643438195660536899430688
246,1.6431283846377094872329059758446
247,1.6439452767248669545995360164006
248,1.6447588675131554998717214499302
249,1.6455691835854312722105786796597
250,1.6463762512047579802737615838388
251,1.6471800963195164456690140484593
252,1.6479807445684115657005959618356
253,1.6487782212853817570048011724372
254,1.6495725515044105363245178492907
255,1.6503637599642441178452858223979
256,1.6511518711130151118524157791852
257,1.6519369091127787154465100515660
258,1.6527188978439578393689305060020
259,1.6534978609097039737805501997763
260,1.6542738216401741786909040348104
261,1.6550468030967245120877837237222
262,1.6558168280760246204919491026027
263,1.6565839191140923418164496139765
264,1.6573480984902537706812158557536
265,1.6581093882310273107078113825328
266,1.6588678101139338808241797328375
267,1.6596233856712364881087092218428
268,1.6603761361936092001698880839158
269,1.6611260827337397862579533178787
270,1.6618732461098617505298609734439
271,1.6626176469092250407010726583114
272,1.6633593054914994109251582024257
273,1.6640982419921178812924326187121
274,1.6648344763255575022418014546192
275,1.6655680281885612987418196941663
276,1.6662989170632996718696205867215
277,1.6670271622204787410780925287453
278,1.6677527827223873810749833744591
279,1.6684757974258944557587757587613
280,1.6691962249853883420569835799759
281,1.6699140838556666324700836254864
282,1.6706293922947735125692755527527
283,1.6713421683667880258743742337089
284,1.6720524299445603826269821589691
285,1.6727601947124031196992346168541
286,1.6734654801687331363634694324611
287,1.6741683036286696651936397370534
288,1.6748686822265845798543365957457
289,1.6755666329186096878214119084517
290,1.6762621724851017405412093150327
291,1.6769553175330630019485125144792
292,1.6776460844985202602293750521614
293,1.6783344896488661885832657387151
294,1.6790205490851580918784941218578
295,1.6797042787443761263257928775329
296,1.6803856944016485777094737217113
297,1.6810648116724341298804487686116
298,1.6817416460146704402421798643586
299,1.6824162127308858250642825657876
300,1.6830885269702758052063124101591
301,1.6837586037307449236666872456143
302,1.6844264578609159278660370793568
303,1.6850921040621034897708295714205
304,1.6857555568902560413633033612474
305,1.6864168307578671539608139637207
306,1.6870759399358557245811798723257
307,1.6877328985554121513039909223769
308,1.6883877206098179760530849680715
309,1.6890404199562350840621486699217
310,1.6896910103174647951665091547334
311,1.6903395052836804418204752170605
312,1.6909859183141309469692288019918
313,1.6916302627388167945207270136055
314,1.6922725517601401966877594023312
315,1.6929127984545287778396339282641
316,1.6935510157740341505021804578790
317,1.6941872165479029221075500256046
318,1.6948214134841254837353273779712
319,1.6954536191709597224034997481673
320,1.6960838460784296581640442070973
321,1.6967121065598029249341039857795
322,1.6973384128530432094899787919509
323,1.6979627770822411626599463799879
324,1.6985852112590227598516829783641
325,1.6992057272839368728919329846767
326,1.6998243369478202904014714248358
327,1.7004410519331430074570831786593
328,1.7010558838153309737318736056185
329,1.7016688440640712749685194031459
330,1.7022799440445961794482237865022
331,1.7028891950189474880275747904659
332,1.7034966081472222489637327369861
333,1.7041021944888002160619052034444
334,1.7047059650035512341466096560527
335,1.7053079305530268667678951801579
336,1.7059081019016323241722119350999
337,1.7065064897177815637621633574273
338,1.7071031045750366218752354101828
339,1.7076979569532272413667794039882
340,1.7082910572395568863154008511203
341,1.7088824157296908574066031341217
342,1.7094720426288290051219515740631
343,1.7100599480527626785010944213117
344,1.7106461420289159031615328870433
345,1.7112306344973726078882769462420
346,1.7118134353118873745662543410859
347,1.7123945542408832767918744740166
348,1.7129740009684336188656814426941
349,1.7135517850952311200686083733890
350,1.7141279161395420865401047948844
351,1.7147024035381476583402909218172
352,1.7152752566472718140389818781387
353,1.7158464847434954171884068827518
354,1.7164160970246577191340694439658
355,1.7169841026107456834263863112377
356,1.7175505105447693416003593430845
357,1.7181153297936264193469172550302
358,1.7186785692489554770622013850396
359,1.7192402377279733098991053360657
360,1.7198003439743055452258457780289
361,1.7203588966588021823465426377978
362,1.7209159043803445560700550531314
363,1.7214713756666383197266721133925
364,1.7220253189749974716131571031290
365,1.7225777426931176612205007061303
366,1.7231286551398376529012177240431
367,1.7236780645658918389740599127195
368,1.7242259791546505909831583489123
369,1.7247724070228530816450572319414
370,1.7253173562213282906472778264055
371,1.7258608347357070475963936757601
372,1.7264028504871240685833613897300
373,1.7269434113329099530709640261918
374,1.7274825250672774495718802753499
375,1.7280201994219926816763560680661
376,1.7285564420670427906345676801763
377,1.7290912606112917836933526472823
378,1.7296246626031277555883207148847
379,1.7301566555311033229824169244693
380,1.7306872468245660286049284313484
381,1.7312164438542815905160296088032
382,1.7317442539330471146561845514324
383,1.7322706843162989453309783444115
384,1.7327957422027101173211431312739
385,1.7333194347347810308615031965349
386,1.7338417689994240081295019769034
387,1.7343627520285374805677526281796
388,1.7348823907995737438261232664454
389,1.7354006922361009549951618744507
390,1.7359176632083565612230976656278
391,1.7364333105337924766417298580902
392,1.7369476409776156159628009132623
393,1.7374606612533212582155255378371
394,1.7379723780232178217055348749447
395,1.7384827978989459070510677446966
396,1.7389919274419912591471446255444
397,1.7394997731641912779479838230218
398,1.7400063415282350861845244307462
399,1.7405116389481557197905221552861
400,1.7410156717898187409767309038775
401,1.7415184463714033228543384060319
402,1.7420199689638765508061817807738
403,1.7425202457914637613267125556007
404,1.7430192830321128114019705784473
405,1.7435170868179497438559001207523
406,1.7440136632357319576787208728728
407,1.7445090183272960000384662802793
408,1.7450031580899974831506719921020
409,1.7454960884771459870639578938684
410,1.7459878153984374628208215729121
411,1.7464783447203783959919672724511
412,1.7469676822667053131545117659692
413,1.7474558338188007103537771769852
414,1.7479428051161018273750100880733
415,1.7484286018565065517677650746591
416,1.7489132296967728822364738484021
417,1.7493966942529147998645244025902
418,1.7498790011005917103882591244642
419,1.7503601557754957360129143021047
420,1.7508401637737318386728346308265
421,1.7513190305521947268997173190949
422,1.7517967615289418278813954556223
423,1.7522733620835601608314142537927
424,1.7527488375575307253736513074210
425,1.7532231932545867842815680901932
426,1.7536964344410696473914315799111
427,1.7541685663462794412983657075922
428,1.7546395941628208785012843640778
429,1.7551095230469479383628512317084
430,1.7555783581189003219679571627596
431,1.7560461044632391845124896074581
432,1.7565127671291792947137457930456
433,1.7569783511309129591159660841084
434,1.7574428614479368092048756767921
435,1.7579063030253692749808246825035
436,1.7583686807742666459565574614627
437,1.7588299995719358809240554826766
438,1.7592902642622431485291487703045
439,1.7597494796559187799324070926133
440,1.7602076505308597047432256605281
441,1.7606647816324265300533159834169
442,1.7611208776737388261880718309527
443,1.7615759433359682668438869342292
444,1.7620299832686242429539151077800
445,1.7624830020898412809119906495560
446,1.7629350043866592894750734403878
447,1.7633859947153038044827788217703
448,1.7638359776014594495650199977444
449,1.7642849575405444533120966916717
450,1.7647329389979783753169245786717
451,1.7651799264094505441518440474813
452,1.7656259241811820485962402529545
453,1.7660709366901870251541794053002
454,1.7665149682845296307775282193731
455,1.7669580232835803246336643155346
456,1.7674001059782667558825132754731
457,1.7678412206313239531354444914808
458,1.7682813714775402114576718183282
459,1.7687205627240011908034955130287
460,1.7691587985503318681912411749853
461,1.7695960831089341933069018984160
462,1.7700324205252236605497765613460
463,1.7704678148978634012537791202734
464,1.7709022702989939569532023355433
465,1.7713357907744627023898130997518
466,1.7717683803440500489201056674956
467,1.7722000430016917087999271103949
468,1.7726307827157020359478861687494
469,1.7730606034289909198447246747900
470,1.7734895090592817570691017912616
471,1.7739175034993247675360111824158
472,1.7743445906171099530081867739119
473,1.7747707742560750487418032552935
474,1.7751960582353159722171875063103
475,1.7756204463497886916674748537156
476,1.7760439423705150281666942877004
477,1.7764665500447827242301394197077
478,1.7768882730963444548705862026792
479,1.7773091152256146704492661555590
480,1.7777290801098646658563035862234
481,1.7781481714034144268487207492822
482,1.7785663927378248222851649242440
483,1.7789837477220855222057528753835
484,1.7794002399428014614625640941140
485,1.7798158729643793257261768020609
486,1.7802306503292086446100490993760
487,1.7806445755578443406430882017660
488,1.7810576521491853305230341232131
489,1.7814698835806524066962091848710
490,1.7818812733083632622529272161148
491,1.7822918247673067932822356319104
492,1.7827015413715152667320601543014
493,1.7831104265142343286403217256053
494,1.7835184835680919466308682780696
495,1.7839257158852644790220237225492
496,1.7843321267976431148182228512064
497,1.7847377196169963699522563478976
498,1.7851424976351325848760288722134
499,1.7855464641240599206621443878723
500,1.785949622336145983927769626173
501,1.786351975504272826427648249025
502,1.786753526841994774302267969781
503,1.787154279543690554908085245504
504,1.787554236784717564865674970865
505,1.787953401721561126583638799729
506,1.788351777491984463135814315359
507,1.788749367215177239304204876981
508,1.789146173991902308528285361372
509,1.789542200904638896428021678758
510,1.789937451017728273911855253042
511,1.790331927377515150716385437366
512,1.790725633012488689343042356323
513,1.791118570933421754896879054198
514,1.791510744133509077057361836606
515,1.791902155588504698247395874036
516,1.792292808256856918156335852041
517,1.792682705079841809175068218475
518,1.793071848981697087948333763206
519,1.793460242869753124808126402773
520,1.793847889634563947910647597977
521,1.794234792150035037125770117799
522,1.794620953273552183699393750015
523,1.795006375846107852666455036869
