Eigenstate,Potential Energy
1,0.500000000022029031064682846000000225
2,0.64623093779490858075678030800473280
3,0.73633761012735829869836355635308588
4,0.79966527869401240088814916719892125
5,0.8480465768096310233245677547321624
6,0.8870659992284217090590956617816723
7,0.9197208273883396047421779434647880
8,0.9477838476662209969283861618167680
9,0.9723835590682847145404544063368771
10,0.9942802157430665261190948408639676
11,1.0140093878315819426845751439741518
12,1.0319621706384444409999898098349340
13,1.0484326942294499622978985278510514
14,1.0636476562877342394103758182626274
15,1.0777854379279551468582594473468724
16,1.090988908566736240612179959326874
17,1.103374259384170200526758339377864
18,1.115037254330017781798396768050585
19,1.126057753227685147579278333874844
20,1.136503049408160155930087759731095
21,1.146430375791709455306866030517744
22,1.155888816046618575830534912773524
23,1.164920782525716565638795595618640
24,1.173563173666798144334331068928943
25,1.181848290788550096433699293640184
26,1.189804571898139028135463472703684
27,1.197457184653787211363244719800481
28,1.204828509723812431135799805670568
29,1.211938537988579931642377676596529
30,1.218805199382326987679726900685299
31,1.225444637025882128435464384572026
32,1.231871437223401456173055519050620
33,1.238098823586596698465803668844281
34,1.244138821799383366645205841477614
35,1.250002400196682327571446141011251
36,1.255699590297629217402829935566150
37,1.261239590629361577623516260448385
38,1.266630856547134850530090091385085
39,1.271881178258669721927361932734518
40,1.276997748864812515294225157042707
41,1.281987223911840068005168195232713
42,1.286855773695747918725386387957331
43,1.291609129352374290212432931196074
44,1.296252623599118336279403738927827
45,1.300791226856441552699655959141402
46,1.305229579364204969258210894837924
47,1.309572019814418127839303545829151
48,1.313822610944389487204789802137659
49,1.317985162469605351232917696651826
50,1.32206325168154170374326030768910
51,1.32606024199014637056917644273055
52,1.32997929965238371524656648104955
53,1.33382340889578395614742662428396
54,1.33759538561837806143545853513894
55,1.34129788982292368571327481893669
56,1.34493343692325304210912706387400
57,1.34850440804337463843508366596806
58,1.35201305941516361976025040239318
59,1.35546153096772151246968536560780
60,1.35885185419046165717933679103029
61,1.36218595934241239037440011995247
62,1.36546568207192902952645883254141
63,1.36869276950376382742544090635369
64,1.37186888584413058154141404802190
65,1.37499561754886574425934467071877
66,1.37807447809494054077665905341173
67,1.38110691239131631012833383793213
68,1.38409430086137912399629307821234
69,1.38703796322587706723360423846338
70,1.38993916201235529577041930210846
71,1.39279910581448528383782232378957
72,1.39561895232238643006628587903932
73,1.39839981114298518561220257855141
74,1.40114274642763801891345780573339
75,1.40384877932261343057217624264141
76,1.40651889025657867510773541491950
77,1.40915402107793444790514232768458
78,1.41175507705367499750382514519097
79,1.41432292874040430337974623526600
80,1.41685841373720083372936894760743
81,1.41936233832917405628748927921163
82,1.42183547902979442465747573773102
83,1.42427858402938982884284920283256
84,1.42669237455657720695304986269135
85,1.42907754615883873888256905703999
86,1.43143476990793617737333925283586
87,1.43376469353539940107044355770215
88,1.43606794250290189644547779289686
89,1.43834512101195237330046480882038
90,1.44059681295698850183590747294784
91,1.44282358282563730721592393328949
92,1.44502597654961846002424314872146
93,1.44720452230950444594925724024009
94,1.44935973129630866929818502066752
95,1.45149209843265139091142819445392
96,1.45360210305605157893174974280773
97,1.45569020956670840877332222520587
98,1.45775686804196327434095777001142
99,1.45980251481947970036074972903395
100,1.46182757305103220526723976422768
101,1.46383245322866585993777339708525
102,1.46581755368486271284362643552615
103,1.46778326106824333857458242534563
104,1.46972995079622450198326807712649
105,1.47165798748596085643860950516846
106,1.47356772536480783043409210894358
107,1.47545950866146477484107859279566
108,1.47733367197887820354305333330131
109,1.47919054064991636665250691401016
110,1.48103043107676397538710851184403
111,1.48285365105492003648328749132848
112,1.48466050008263232039189005788136
113,1.48645126965654645170646667953498
114,1.48822624355429885251844829927160
115,1.48998569810474232089086148388531
116,1.49172990244644469499403805861844
117,1.49345911877506934043998201461359
118,1.49517360258020516724652891755256
119,1.49687360287218016914608367557699
120,1.49855936239936663571878739681024
121,1.50023111785644792058571223510162
122,1.50188910008409773576489882812793
123,1.50353353426049074936106538821627
124,1.50516464008504558395112984710084
125,1.50678263195477174676462981648395
126,1.50838771913357682546051147526394
127,1.50998010591486970541538846598179
128,1.51155999177777297724849531279617
129,1.51312757153724563007042481910379
130,1.51468303548839874407549789210699
131,1.51622656954527149197952236499454
132,1.51775835537431978160391972080576
133,1.51927857052285809032321724384744
134,1.52078738854268376613406957388751
135,1.52228497910909496176148487842015
136,1.52377150813550968068754529221258
137,1.52524713788388010604435675701332
138,1.52671202707108277132235051980426
139,1.52816633097146302593942866037691
140,1.52961020151569680274823207562074
141,1.53104378738612813706874911796425
142,1.53246723410873281356655042216835
143,1.53388068414184986712749229300785
144,1.53528427696181548424290032376304
145,1.53667814914562966365998940236652
146,1.53806243445077812630148150726406
147,1.53943726389232376149235845781066
148,1.54080276581738293849824902827011
149,1.54215906597708848430582201456648
150,1.54350628759614296849824881255345
151,1.54484455144005820945505969500193
152,1.54617397588017130102110185296858
153,1.54749467695652610931261676952539
154,1.54880676843870413887641119303889
155,1.55011036188468300416840546922590
156,1.55140556669780037268774295292167
157,1.55269249018189442634258814360424
158,1.55397123759469265912128268430517
159,1.5552419121995126838745392569457
160,1.5565046153153413857186290622918
161,1.5577594463653509181507642220477
162,1.5590065029239110029483072557835
163,1.5602458807621523871213177753745
164,1.5614776738921360934837198178461
165,1.5627019746096770650308914134565
166,1.5639188735358727186826480735445
167,1.5651284596573836406813238653647
168,1.5663308203655091125286150930908
169,1.5675260414941025295219888521933
170,1.5687142073563664549766115236658
171,1.5698954007805675045636713345812
172,1.5710697031447089273932594442155
173,1.5722371944101962861426776337905
174,1.5733979531545320797143168866592
175,1.5745520566030732933262753751052
176,1.5756995806598815823585646055372
177,1.5768405999376993504625209155445
178,1.5779751877870808762996686117158
179,1.5791034163247049338258662204100
180,1.5802253564608998524897023702203
181,1.5813410779264036659012497706737
182,1.5824506492983870443265044586073
183,1.5835541380257620602513668791552
184,1.5846516104538010285210615204480
185,1.5857431318480872291480710408754
186,1.5868287664178184813776267987929
187,1.5879085773384873694777578290869
188,1.5889826267739535565377814654803
189,1.5900509758979319173322359087581
190,1.5911136849149121412942190538642
191,1.5921708130805290281157469632175
192,1.5932224187213998581432781285691
193,1.5942685592544471413809639878697
194,1.5953092912057200858481250506056
195,1.5963446702287327176131136336976
196,1.5973747511223323443662109259911
197,1.5983995878481127378149655728424
198,1.5994192335473861968430458491785
199,1.6004337405577273252481954786472
200,1.6014431604291024642203460323698
201,1.6024475439395957559386038127669
202,1.6034469411107452143986168127155
203,1.6044414012224994581522466782114
204,1.6054309728278067198212076480396
205,1.6064157037668460976966390852957
206,1.6073956411809140681215886267984
207,1.6083708315259721292819638959062
208,1.6093413205858697978105390207960
209,1.6103071534852487010317009104208
210,1.6112683747021392604459774220000
211,1.6122250280802573254107625862054
212,1.6131771568410109841393673969389
213,1.6141248035952219299064232477069
214,1.6150680103545763581430674374823
215,1.6160068185428046006467637907425
216,1.6169412690066034513561805639378
217,1.6178714020263051427266083148594
218,1.6187972573263019451488018070425
219,1.6197188740852296623401788515278
220,1.6206362909459225308289358332378
221,1.6215495460251374258136556238929
222,1.6224586769230645707565254544674
223,1.6233637207326183115338181809016
224,1.6242647140485230144342467094812
225,1.6251616929761966445400887044752
226,1.6260546931404355624240103958940
227,1.6269437496939091820003125235748
228,1.6278288973254662997219555854179
229,1.6287101702682602472586665630540
230,1.6295876023076975538846153576032
231,1.6304612267892119078300246263903
232,1.6313310766258738255013544831072
233,1.6321971843058310140582280724394
234,1.6330595818995955733966215671936
235,1.6339183010671712086216272806179
236,1.6347733730650301517614293448146
237,1.6356248287529434128324626719200
238,1.6364726986006660912493042230696
239,1.6373170126944831831416891937550
240,1.6381578007436180379772753936842
241,1.6389950920865077458199244054369
242,1.6398289156969483111545480878052
243,1.6406593001901136440319997086256
244,1.6414862738284500567501407311559
245,1.6423098645274506391615279525211
246,1.6431300998613120311547551914862
247,1.6439470070684749740741219962766
248,1.6447606130570562216107706361561
249,1.6455709444101667786596825480667
250,1.6463780273911268522418206249849
251,1.6471818879485754138971565301524
252,1.6479825517214771714419793889449
253,1.6487800440440320216872721612388
254,1.6495743899504866403687183724471
255,1.6503656141798520887112531732528
256,1.6511537411805275213884854033190
257,1.6519387951148363866147566120950
258,1.6527207998634715624220192803545
259,1.6534997790298562319654766649089
260,1.6542757559444208835557774197047
261,1.6550487536687967484682172398084
262,1.6558187949999304012544918661582
263,1.6565859024741183724369041676222
264,1.6573500983709672237364240211214
265,1.6581114047172776103600764861024
266,1.6588698432908544973781896862945
267,1.6596254356242467427213657743539
268,1.6603782030084160797942349464213
269,1.6611281664963397689029480752470
270,1.6618753469065426409184583505619
271,1.6626197648265678164096850546358
272,1.6633614406163800790883498679535
273,1.6641003944117093459573007232901
274,1.6648366461273314424572439862283
275,1.6655702154602900574684918441266
276,1.6663011218930581557972653181486
277,1.6670293846966463314374263716683
278,1.6677550229336498555322256854183
279,1.6684780554612459214814865866410
280,1.6691985009341331800407441241117
281,1.6699163778074214532162086860142
282,1.6706317043394691232045622856311
283,1.6713444985946714088045220458745
284,1.6720547784461966858161776562797
285,1.6727625615786776586691738308168
286,1.6734678654908534080059196333982
287,1.6741707074981673734912470412795
288,1.6748711047353176736053394118628
289,1.6755690741587644104647143784888
290,1.6762646325491946921789506520270
291,1.6769577965139432136642704154636
292,1.6776485824893712808008479811709
293,1.6783370067432081836890317176552
294,1.6790230853768499558996467421064
295,1.6797068343276176068436759774223
296,1.6803882693709824128017611581866
297,1.6810674061227481983188297205826
298,1.6817442600411999246955780422185
299,1.6824188464292153884125292127375
300,1.6830911804363417800700775869620
301,1.6837612770608375152604179996110
302,1.6844291511516814302815299560739
303,1.6850948174105465157998539052408
304,1.6857582903937417659688004699375
305,1.6864195845141235715072087463188
306,1.6870787140429759199351373491126
307,1.6877356931118565849178276057353
308,1.6883905357144167831443377274681
309,1.6890432557081903880033638374289
310,1.6896938668163530352007690623032
311,1.6903423826294547152187254313153
312,1.6909888166071233657469556333989
313,1.6916331820797408568320873234528
314,1.6922754922500931730165171169440
315,1.6929157601949941121075526635566
316,1.6935539988668838762160168487564
317,1.6941902210954000936673407521260
318,1.6948244395889266230275300003841
319,1.6954566669361172808036180584249
320,1.6960869156073944940746173182378
321,1.6967151979564267969848668904418
322,1.6973415262215812855282510810059
323,1.6979659125273545446603013906946
324,1.6985883688857810248753666243077
325,1.6992089071978206302273550852069
326,1.6998275392547237550183124206035
327,1.7004442767393765899080293336894
328,1.7010591312276238866367403261763
329,1.7016721141895741562171648783794
330,1.7022832369908837322595139147183
331,1.7028925108940211380030436896700
332,1.7034999470595128182759986817089
333,1.7041055565471706149188123585166
334,1.7047093503172991696735164846769
335,1.7053113392318875694518913163000
336,1.7059115340557812920132661119676
337,1.7065099454578373242773631526279
338,1.7071065840120635121040044461921
339,1.7077014601987382060257105681967
340,1.7082945844055162942532835704606
341,1.7088859669285173365111864894842
342,1.7094756179733982958316199764614
343,1.7100635476564105060758319640281
344,1.7106497660054408688689968658828
345,1.7112342829610390992624570086458
346,1.7118171083774284948972135477305
347,1.7123982520235037940070074880862
348,1.7129777235838129339639478339634
349,1.7135555326595262552709603854769
350,1.7141316887693906933208214757714
351,1.7147062013506710455052649485144
352,1.7152790797600779960187352545606
353,1.7158503332746821827150487730352
354,1.7164199710928157204730747546081
355,1.7169880023349615463354931604531
356,1.7175544360446287961896798364811
357,1.7181192811892174520157804338068
358,1.7186825466608715036901219074131
359,1.7192442412773163704696816664383
360,1.7198043737826895200641222513867
361,1.7203629528483560301522531805860
362,1.7209199870737155739306429973015
363,1.7214754849869954252956392027855
364,1.7220294550460345076414738874816
365,1.7225819056390567226300879019423
366,1.7231328450854324365913964638270
367,1.7236822816364310165540626048441
368,1.7242302234759612046250253851837
369,1.7247766787213039632534568555477
370,1.7253216554238335045446462492763
371,1.7258651615697293569233436861883
372,1.7264072050806784256168122733511
373,1.7269477938145670136636384696361
374,1.7274869355661671119193499161676
375,1.7280246380678076496194524490688
376,1.7285609089900421617071267976569
377,1.7290957559423046621270751718474
378,1.7296291864735568904889262108374
379,1.7301612080729287718928559313995
380,1.7306918281703488466737690642317
381,1.7312210541371675454912374614105
382,1.7317488932867704279265780320450
383,1.7322753528751860592396795804507
384,1.7328004401016834889777903203356
385,1.7333241621093629526818115333207
386,1.7338465259857404553333338809627
387,1.7343675387633219858689094344167
388,1.7348872074201712995492187217991
389,1.7354055388804719428575826504931
390,1.7359225400150807100220295936447
391,1.7364382176420728480887457728700
392,1.7369525785272826189107762043583
393,1.7374656293848366915252216150642
394,1.7379773768776789460012720959843
395,1.7384878276180895456178673004254
396,1.7389969881681979282235666081598
397,1.7395048650404893466719339142018
398,1.7400114646983049664516980722555
399,1.7405167935563340862873808471266
400,1.7410208579811027816529290095209
401,1.7415236642914550201018826545012
402,1.7420252187590269936154087470741
403,1.7425255276087174886917910408891
404,1.7430245970191521872511384451419
405,1.7435224331231393637847137857964
406,1.7440190420081230877672150837639
407,1.7445144297166310480359321343315
408,1.7450086022467145023145450185366
409,1.7455015655523832129421909404982
410,1.7459933255440378832701237934550
411,1.7464838880888943547270987537079
412,1.7469732590114031471267927560776
413,1.7474614440936654212601302293802
414,1.7479484490758417876015487437161
415,1.7484342796565582450754056755927
416,1.7489189414933056794990222471362
417,1.7494024402028357701725123717463
418,1.7498847813615504678354501442957
419,1.7503659705058893224853770629427
420,1.7508460131327096429637387402010
421,1.7513249146996634404763188226380
422,1.7518026806255704376339176266830
423,1.7522793162907849791371229427232
424,1.7527548270375604578125760427994
425,1.7532292181704076353438962315467
426,1.7537024949564504645200119999593
427,1.7541746626257768976134257297612
428,1.7546457263717846945576884779992
429,1.7551156913515261432944299919142
430,1.7555845626860445543763984620770
431,1.7560523454607100334625251179195
432,1.7565190447255516811996950777627
433,1.7569846654955815583688769054213
434,1.7574492127511215142127612345941
435,1.7579126914381207015991136350807
436,1.7583751064684716799892015781370
437,1.7588364627203232675596958118064
438,1.7592967650383891245212793111700
439,1.7597560182342527489159030296327
440,1.7602142270866699560842594212303
441,1.7606713963418660016331364533604
442,1.7611275307138309115261894543168
443,1.7615826348846126669699163830028
444,1.7620367135046028634413289280832
445,1.7624897711928241744925121760474
446,1.7629418125372106446553253712505
447,1.7633928420948879805906600472677
448,1.7638428643924470586569773939160
449,1.7642918839262184893772519521651
450,1.7647399051625403912184016932514
451,1.7651869325380268767509635365437
452,1.7656329704598300925092833843053
453,1.7660780233059015555964446252855
454,1.7665220954252491759545780384050
455,1.7669651911381935881438650878784
456,1.7674073147366190896006960694158
457,1.7678484704842238810520716364003
458,1.7682886626167660049531741184719
459,1.7687278953423074958422272540364
460,1.7691661728414563849256893624269
461,1.7696034992676044085866160428690
462,1.7700398787471636338360539603423
463,1.7704753153798006044460282018566
464,1.7709098132386661686383300980454
465,1.7713433763706249570317578532780
466,1.7717760087964816415120883642675
467,1.7722077145112032555076369056499
468,1.7726384974841425912776976334312
469,1.7730683616592551508768377464250
470,1.7734973109553171753012737369029
471,1.7739253492661390188895574460296
472,1.7743524804607781665542034860351
473,1.7747787083837472447111402958400
474,1.7752040368552245298645362813114
475,1.7756284696712558775656195100931
476,1.7760520106039605855138341524889
477,1.7764746634017315237591075121816
478,1.7768964317894342079558394018408
479,1.7773173194686037050135894499037
480,1.7777373301176397656860435998532
481,1.7781564673919987349334163456458
482,1.7785747349243858088036256768568
483,1.7789921363249430177883655818634
484,1.7794086751814357563658066864420
485,1.7798243550594393355629920987587
486,1.7802391795025201432868531146866
487,1.7806531520324182611610344849797
488,1.7810662761492261343090953870850
489,1.7814785553315665221368496118909
490,1.7818899930367675931105540928500
491,1.7823005927010372976825586667281
492,1.7827103577396356074180210704710
493,1.7831192915470445951963966250603
494,1.7835273974971374503890405657255
495,1.7839346789433446213694032060839
496,1.7843411392188203296338148261822
497,1.7847467816366051409089557503481
498,1.7851516094897885383525457324189
499,1.7855556260516689950175827386536
500,1.785958834575913675900345608858
501,1.786361238296713515427931586559
502,1.786762840428941125379760328929
503,1.787163644168303001179399756852
504,1.787563652691493870201125021036
505,1.787962869156346029358391252831
506,1.788361296701979401861333112065
507,1.788758938448950160964633771000
508,1.789155797499397560456221580882
509,1.789551876937187202563823725219
510,1.789947179828056796300328080459
511,1.790341709219757637104595712003
512,1.790735468142195707752939655272
513,1.791128459607571016056852632340
514,1.791520686610515845587132758812
515,1.791912152128232293500687258250
516,1.792302859120627305636774928120
517,1.792692810530446283451442696757
518,1.793082009283407048006032051916
519,1.793470458288330942784639610255
520,1.793858160437273932174605771832
521,1.794245118605654490668990602152
522,1.794631335652382558825065023033
523,1.795016814419986002965557661480
