Eigenstate,Potential Energy
1,0.500000000099340554118069658052659703
2,0.64623093829955975213327886878644767
3,0.73633761160973878082218582075779306
4,0.79966528178166561305622025873865715
5,0.8480465821581310586312867502264019
6,0.8870660075048494728727117910695461
7,0.9197208392651990133704472422081223
8,0.9477838638189059120412897863424280
9,0.9723835801739048612776059049656050
10,0.9942802424798550933082734080348966
11,1.0140094208785770171630142121980017
12,1.0319622106753099883342045057820550
13,1.0484327419363727818047114795406036
14,1.0636477123453646472787896823688835
15,1.0777855030173740444473870644247506
16,1.090988983369438761538419849365021
17,1.103374344582060147046428109676274
18,1.115037350605409301843485476515498
19,1.126057861263309404711911181713867
20,1.136503169887175526683954713207782
21,1.146430509397714273556709833617652
22,1.155888963463665753226150178357343
23,1.164920944438329619407284939372548
24,1.173563350759988298981519180803151
25,1.181848483747834218134682956322382
26,1.189804781409558214719238850373177
27,1.197457411403925906109011403519989
28,1.204828754399817961120422429023320
29,1.211938801278182395053325278204766
30,1.218805481973859431969107435799302
31,1.225444939608300974226069687142094
32,1.231871760486307131668187550353172
33,1.238099168220254456622031413377246
34,1.244139188494744263150321922502861
35,1.250002789645404342165666322353931
36,1.255700003192098504606090388597980
37,1.261240027662713835717823347240792
38,1.266631318413276799864510885549040
39,1.271881665652300685392865245330463
40,1.276998262481446095252822048690166
41,1.281987764447825915125779702167256
42,1.286856341848293589134179662388209
43,1.291609725819567188151214063063808
44,1.296253249079947740115654520842463
45,1.300791882050820722672530372527918
46,1.305230264972993335797049652245911
47,1.309572736539443559671045269852046
48,1.313823359488470638787780168974806
49,1.317985943536574089326989934076099
50,1.32206406597626561315823262504653
51,1.32606109021855133933315432614302
52,1.32998018252147659960681525436291
53,1.33382432711367532596481012855969
54,1.33759633989430502666246764872184
55,1.34129888086727280475816819401386
56,1.34493446544758331298753752986334
57,1.34850547476044057369742816312783
58,1.35201416503893840626079924153916
59,1.35546267621342025711154395127721
60,1.35885303977456471983138717024439
61,1.36218718598268880521152915136864
62,1.36546695048746001609469709517725
63,1.36869408041496639277906316373627
64,1.37187023997278121484069175390576
65,1.37499701561812420525624930283408
66,1.37807592082937374365100325051790
67,1.38110840051692230416985361086631
68,1.38409583510561117265899222225955
69,1.38703954431766782711775851159073
70,1.38994079068214109711455139195733
71,1.39280078279423051412950649778492
72,1.39562067834560802240478605357917
73,1.39840158694477721348020338117294
74,1.40114457274469639903764258677691
75,1.40385065689326073557483137092291
76,1.40652081982078905767267449544413
77,1.40915600337735867820248742745724
78,1.41175711283166561563856222106427
79,1.41432501874204088864916275485489
80,1.41686055870931539249403904280892
81,1.41936453902037653028040323903463
82,1.42183773619049832157508154991749
83,1.42428089841183797708100104073479
84,1.42669474691486763637007159790739
85,1.42907997724895068949077909080086
86,1.43143726048775623787918784780594
87,1.43376724436474777920287567288389
88,1.43607055434355882303087003193677
89,1.43834779462768464206190233243154
90,1.44059954911357614691360126074644
91,1.44282638229090042042520257219044
92,1.44502884009344414988674970052159
93,1.44720745070387394055283118839511
94,1.44936272531532456506063111416230
95,1.45149515885256504934332906305525
96,1.45360523065529067351360415034419
97,1.45569340512590462408290711717526
98,1.45776013234398015958697234628989
99,1.45980584864944067950013659788773
100,1.46183097719634874590419665569458
101,1.46383592847906580322413550303172
102,1.46582110083241876662167783296070
103,1.46778688090740173602509470065481
104,1.46973364412383382806423098364416
105,1.47166175510130104442192973940786
106,1.47357156806961933087071147827583
107,1.47546342725997789930766998010373
108,1.47733766727784264554709666148284
109,1.47919461345863090209614674977055
110,1.48103458220710634501406908727339
111,1.48285788132137701275765120210156
112,1.48466481030232996128220634318312
113,1.48645566064928054387361700157265
114,1.48823071614256554643132497416615
115,1.48999025311376896041941596000970
116,1.49173454070422084405578083109222
117,1.49346384111237800930223190062665
118,1.49517840983065424111392303183336
119,1.49687849587223404168983253736887
120,1.49856434198837805023255724708565
121,1.50023618487669002148042806135345
122,1.50189425538079633314389856089993
123,1.50353877868185679944581016829962
124,1.50516997448230788815699454917252
125,1.50678805718220987225655832987049
126,1.50839323604855425004834313440602
127,1.50998571537786718967953340076006
128,1.51156569465242216681793405178411
129,1.51313336869036289100682013216970
130,1.51468892779001923434909378421356
131,1.51623255786868347205548107708887
132,1.51776444059609916719121655596925
133,1.51928475352290325037094288590324
134,1.52079367020425056919534586460627
135,1.52229136031883207387933642771894
136,1.52377798978349411799200224716795
137,1.52525372086365304528666565177230
138,1.52671871227968562160792549401158
139,1.52817311930947376495821407478442
140,1.52961709388726658083867677361455
141,1.53105078469901815248943053387642
142,1.53247433727435146238829477249868
143,1.53388789407529017119794422739158
144,1.53529159458189280071531502835630
145,1.53668557537491967961830436380988
146,1.53806997021565514205490766956885
147,1.53944491012299926615443616910770
148,1.54081052344794448150722623071648
149,1.54216693594553884658683546588328
150,1.54351427084443963701027660376357
151,1.54485264891415315891138560566621
152,1.54618218853005108661566295129190
153,1.54750300573625227433094015388244
154,1.54881521430645394111584694121228
155,1.55011892580279046513967255053152
156,1.55141424963279765361781810762523
157,1.55270129310455353504660437310738
158,1.55398016148006749186146248222485
159,1.5552509580269814063733802496644
160,1.5565137840686491575449619018190
161,1.5577687390326529647485588176415
162,1.5590159204978160396307756955459
163,1.5602554242397663994054736894278
164,1.5614873442751064781954014540905
165,1.5627117729042371366649862520816
166,1.5639288007528865855583097763826
167,1.5651385168123914554891715491531
168,1.5663410084787727019247338977665
169,1.5675363615906514074809365505095
170,1.5687246604660442246758126388575
171,1.5699059879380786536316566772303
172,1.5710804253896660214149396303403
173,1.5722480527871675653772337017586
174,1.5734089487130894640450632537456
175,1.5745631903978408005246998182525
176,1.5757108537505841648109927982485
177,1.5768520133892121555735402631201
178,1.5779867426694789358532386107451
179,1.5791151137133132876541994173049
180,1.5802371974363441118688952133811
181,1.5813530635746610221626350926739
182,1.5824627807108377282450461975815
183,1.5835664162992412578446502622432
184,1.5846640366906512589662170121009
185,1.5857557071562111906000679579787
186,1.5868414919107323705461469435279
187,1.5879214541353746809004616766749
188,1.5889956559997193675639316069049
189,1.5900641586832576649119213496282
190,1.5911270223963108967491707428032
191,1.5921843064004012761507657758076
192,1.5932360690280897864403357310085
193,1.5942823677022994472043480388133
194,1.5953232589551373061743831615866
195,1.5963587984462330893889601553286
196,1.5973890409806082015854243376534
197,1.5984140405260894521977873908757
198,1.5994338502302816689924364135032
199,1.6004485224371120332528523799910
200,1.6014581087029600767683502421192
201,1.6024626598123843171024550837666
202,1.6034622257934589073530783522988
203,1.6044568559327309551836751656993
204,1.6054465987898101260912194837565
205,1.6064315022116004963248188163248
206,1.6074116133461876742582222101759
207,1.6083869786563870609483374663939
208,1.6093576439329674713926928973634
209,1.6103236543075558594249502183946
210,1.6112850542652346419588803294691
211,1.6122418876568389816515408893362
212,1.6131941977109642552247340007140
213,1.6141420270456880854500622082709
214,1.6150854176800219126009839597682
215,1.6160244110450913117190792965463
216,1.6169590479950590102693110757284
217,1.6178893688177945653450714538024
218,1.6188154132452996729944725841180
219,1.6197372204638923827284273455716
220,1.6206548291241627254615990476506
221,1.6215682773506976573056510890784
222,1.6224776027515925167089703644669
223,1.6233828424277425559064506014495
224,1.6242840329819296061117553291023
225,1.6251812105277064331312149110386
226,1.6260744106980823214798406061657
227,1.6269636686540185299854594933498
228,1.6278490190927354292267840937001
229,1.6287304962558384730936621113682
230,1.6296081339372676908550034689910
231,1.6304819654910724891492691901560
232,1.6313520238390221729649077348773
233,1.6322183414780471712634476746352
234,1.6330809504875271134640235935779
235,1.6339398825364189280433300080909
236,1.6347951688902346621770785919503
237,1.6356468404178726427098356079492
238,1.6364949275983037096282932255944
239,1.6373394605271179577820176656396
240,1.6381804689229341404394278774649
241,1.6390179821336760161966546792252
242,1.6398520291427184953648983136351
243,1.6406826385749076167867587248807
244,1.6415098387024560434971676687851
245,1.6423336574507184505237122003422
246,1.6431541224038493235819393694760
247,1.6439712608103445506393197125787
248,1.6447850995884743870979506038914
249,1.6455956653316027633081087819192
250,1.6464029843134033187357307771738
251,1.6472070824929700624158895419981
252,1.6480079855198254578157160818652
253,1.6488057187388310039400417325212
254,1.6496003071949999691691382870868
255,1.6503917756382161574946000441566
256,1.6511801485278587921627448601256
257,1.6519654500373399077152979532448
258,1.6527477040585506947366474427332
259,1.6535269342062236004144475036178
260,1.6543031638222105708771628570089
261,1.6550764159796777486313493088754
262,1.6558467134872213501013049482060
263,1.6566140788929035734308754508102
264,1.6573785344882139869886764625395
265,1.6581401023119549233922104232639
266,1.6588988041540530463808666120527
267,1.6596546615593003033695285760303
268,1.6604076958310242969904155361359
269,1.6611579280346923451340802632462
270,1.6619053790014449532324108880113
271,1.6626500693315679823444085323757
272,1.6633920193978974922208190967101
273,1.6641312493491647020765732725890
274,1.6648677791132782777133672632998
275,1.6656016284005478201999822290277
276,1.6663328167068468341002150628707
277,1.6670613633167226589046990277778
278,1.6677872873064451179624095580678
279,1.6685106075470053877403981778006
280,1.6692313427070571806424915764004
281,1.6699495112558081305879058476335
282,1.6706651314658588780000485909314
283,1.6713782214159930670424562936006
284,1.6720887989939154120365393057587
285,1.6727968818989446407296391640175
286,1.6735024876446573395714528232476
287,1.6742056335614877607156958180711
288,1.6749063367992799929555245158851
289,1.6756046143297971450967424149798
290,1.6763004829491882747477237399409
291,1.6769939592804109039254449995862
292,1.6776850597756120068538735267827
293,1.6783738007184713762071861152572
294,1.6790601982265024052024655829810
295,1.6797442682533123731835864926025
296,1.6804260265908298207677577121932
297,1.6811054888714889467976488193587
298,1.6817826705703803443818917835926
299,1.6824575870073648794200741192548
300,1.6831302533491524627697152993127
301,1.6838006846113461280538023358502
302,1.6844688956604535086158510381097
303,1.6851349012158628873374862126810
304,1.6857987158517873974464009419560
305,1.6864603539991788034515713888163
306,1.6871198299476101260495255901980
307,1.6877771578471242936135501368072
308,1.6884323517100562993633203626440
309,1.6890854254128249541671630941177
310,1.6897363926976945708207169597724
311,1.6903852671745101754190341070811
312,1.6910320623224037596843991389037
313,1.6916767914914729677410057085001
314,1.6923194679044340223688393548651
315,1.6929601046582482111584209864603
316,1.6935987147257233089980011259685
317,1.6942353109570874763063125490204
318,1.6948699060815409850848781416645
319,1.6955025127087829151921229638712
320,1.6961331433305128229615601443129
321,1.6967618103219113019752100883608
322,1.6973885259430955513279146664129
323,1.6980133023405534663331012338538
324,1.6986361515485552297540850872694
325,1.6992570854905441664946549249409
326,1.6998761159805050999603468141529
327,1.7004932547243130318405693981082
328,1.7011085133210593355339915271791
329,1.7017219032643604391183067753480
330,1.7023334359436454305977133329805
331,1.7029431226454240250950776941490
332,1.7035509745545359563293431842214
333,1.7041570027553821720563792346580
334,1.7047612182331360186417396354554
335,1.7053636318749387308723865759285
336,1.7059642544710752862598971082239
337,1.7065630967161334973054504229694
338,1.7071601692101474018369708476018
339,1.7077554824597210172069884426005
340,1.7083490468791385510025172644617
341,1.7089408727914567831924943421894
342,1.7095309704295821182329240399163
343,1.7101193499373319463250142369226
344,1.7107060213704803089715827801402
345,1.7112909946977896896380460700881
346,1.7118742798020264058176070850467
347,1.7124558864809631694016980255262
348,1.7130358244483656286562965744821
349,1.7136141033349664383375524326018
350,1.7141907326894244019498500965881
351,1.7147657219792707754289020855582
352,1.7153390805918424163555019304317
353,1.7159108178352010648437022254230
354,1.7164809429390401723987605054562
355,1.7170494650555796458826814237082
356,1.7176163932604467182822490896681
357,1.7181817365535461872687113847096
358,1.7187455038599192675534128234436
359,1.7193077040305868042272794081248
360,1.7198683458433857871028355331089
361,1.7204274380037909130754115073430
362,1.7209849891457276803096717267944
363,1.7215410078323716121179349037733
364,1.7220955025569386368349179729097
365,1.7226484817434648624283093887005
366,1.7231999537475746259358508250378
367,1.7237499268572397122282239345139
368,1.7242984092935265333746959485983
369,1.7248454092113359037670038165249
370,1.7253909347001311268526097485657
371,1.7259349937846572495312706097167
372,1.7264775944256504435014863351084
373,1.7270187445205374831576655918578
374,1.7275584519041296314716099212572
375,1.7280967243493016284533616541404
376,1.7286335695676672415145688078347
377,1.7291689952102431701322076508775
378,1.7297030088681044754806915565434
379,1.7302356180730333781897797627092
380,1.7307668302981581844212271790643
381,1.7312966529585852192258569993051
382,1.7318250934120208889589253761422
383,1.7323521589593885511238398866347
384,1.7328778568454351591428455013142
385,1.7334021942593313072143355483395
386,1.7339251783352653379040839658947
387,1.7344468161530272659140389266310
388,1.7349671147385864590442807411615
389,1.7354860810646637553451949593468
390,1.7360037220512952100142503256711
391,1.7365200445663877935214702820281
392,1.7370350554262706540192710774194
393,1.7375487613962394223196641805191
394,1.7380611691910921454622002151796
395,1.7385722854756597108017057180241
396,1.7390821168653304166828487155706
397,1.7395906699265683249382164364722
398,1.7400979511774254088306450800174
399,1.7406039670880460678524770369334
400,1.7411087240811683151319744880367
401,1.7416122285326176922970502957920
402,1.7421144867717946631299007051313
403,1.7426155050821583130159804146961
404,1.7431152897017042537302141476691
405,1.7436138468234342056346820594983
406,1.7441111825958233731318683731060
407,1.7446073031232827370983714894147
408,1.7451022144666137746951686715704
409,1.7455959226434584750353094013934
410,1.7460884336287471728002051855459
411,1.7465797533551384676580389639906
412,1.7470698877134548201204782718747
413,1.7475588425531149111914303120340
414,1.7480466236825591981719004928175
415,1.7485332368696729593567555768181
416,1.7490186878422032662759010182016
417,1.7495029822881727412597879545209
418,1.7499861258562872731217451029645
419,1.7504681241563419793024387487843
420,1.7509489827596204065353030706166
421,1.7514287071992909326332433552013
422,1.7519073029707996617448500149856
423,1.7523847755322576602686498575657
424,1.7528611303048261585404835017045
425,1.7533363726730961093759389262460
426,1.7538105079854657223920183479880
427,1.7542835415545134711812707957999
428,1.7547554786573665998465604450187
429,1.7552263245360690544986171144697
430,1.7556960843979417154359901729775
431,1.7561647634159424476949461873572
432,1.7566323667290231339521636996805
433,1.7570988994424790425891226340349
434,1.7575643666283016442309269848923
435,1.7580287733255227162899917203318
436,1.7584921245405576528592766266684
437,1.7589544252475461581858892786004
438,1.7594156803886893231936435195056
439,1.7598758948745837843042388181726
440,1.7603350735845540542926345198889
441,1.7607932213669802041435616503129
442,1.7612503430396244792806881215694
443,1.7617064433899565182237177068880
444,1.7621615271754718140691692302503
445,1.7626155991240127711568132514545
446,1.7630686639340834036739181089532
447,1.7635207262751648685276731849838
448,1.7639717907880250745851290956530
449,1.7644218620850302334836031130881
450,1.7648709447504505299814239129111
451,1.7653190433407674412982183634998
452,1.7657661623849755740588815815846
453,1.7662123063848847900769052061156
454,1.7666574798154190390461803857377
455,1.7671016871249155521253639282472
456,1.7675449327354197245495951661686
457,1.7679872210429804151775427497500
458,1.7684285564179420921786832730241
459,1.7688689432052363732488876940143
460,1.7693083857246726383518102189438
461,1.7697468882712256016092310902108
462,1.7701844551153230935805836718295
463,1.7706210905031326972415896541102
464,1.7710567986568454394997866766612
465,1.7714915837749605493658301447011
466,1.7719254500325684573704911813053
467,1.7723584015816313622284709287969
468,1.7727904425512664274852361472044
469,1.7732215770480241336605450906578
470,1.7736518091561693610183923243154
471,1.7740811429379595225017102329954
472,1.7745095824339240988033149694988
473,1.7749371316631409828374767683739
474,1.7753637946235171960609558330062
475,1.7757895752920629600190424429209
476,1.7762144776251716998221034482055
477,1.7766385055588963778113081898895
478,1.7770616630092269011197309638552
479,1.7774839538723675628217686731253
480,1.7779053820250149842172603994408
481,1.7783259513246351849161451915037
482,1.7787456656097434281980040385185
483,1.7791645287001823034025173609225
484,1.7795825443974009500228760527184
485,1.7799997164847369886394987063946
486,1.7804160487276958352060381407770
487,1.7808315448742343428292071098594
488,1.7812462086550434666599743649561
489,1.7816600437838332830968296656233
490,1.7820730539576183336001572214704
491,1.7824852428570055388747853222729
492,1.7828966141464833876291256460299
493,1.7833071714747124956778571498704
494,1.7837169184748187551296103267599
495,1.7841258587646873970527789729490
496,1.7845339959472613483691262785548
497,1.7849413336108397105122003210624
498,1.7853478753293804530674044936742
499,1.7857536246628049739289876128632
500,1.786158585157306817198245493295
501,1.786562760345660462440807982041
502,1.786966153747537815239670313986
503,1.787368768869824049490789742296
504,1.787770609206940835471548348562
505,1.788171678241169999668980554984
506,1.788571979442983553662327684265
507,1.788971516271378156453968593370
508,1.789370292174213876175556813829
509,1.789768310588555718100069967378
510,1.790165574941024218867314491855
511,1.790562088648148595777458394490
512,1.790957855116726620882840758706
513,1.791352877744190117437804687160
514,1.791747159918977049984203479604
515,1.792140705020910890814625348768
516,1.792533516421585796022567014950
517,1.792925597484759003859152915446
518,1.793316951566752594709250882523
519,1.793707582016861765321464910525
520,1.794097492177772862728827813631
521,1.794486685385988380080263135247
522,1.794875164972263617374285716788
523,1.795262934262051891660607023885
