Eigenstate,Potential Energy
1,0.500000005424674867796956890277810336
2,0.64623097306413392998939283119080245
3,0.73633771374414388660445971647143648
4,0.79966549456242545007110397900335607
5,0.8480469508405381304230283675448232
6,0.8870665782013647885802828768448198
7,0.9197216585430535255417015503170876
8,0.9477849785423716175716188697966362
9,0.9723850374402787322211827337347198
10,0.9942820895956286680079410272312223
11,1.0140117053546017665330613196795042
12,1.0319649802317242839692384845537658
13,1.0484360445129278300813046083938385
14,1.0636515961149450072140636940959436
15,1.0777900164015353515745737120010170
16,1.090994175055304840243701455042279
17,1.103380263540198818562161795887626
18,1.115044046108460996920875783120218
19,1.126065382905232767878990044935356
20,1.136511567603028573716355926048253
21,1.146439833483923608699026965118667
22,1.155899264598758223079931868281304
23,1.164932273704115307715413151123603
24,1.173575759663193714632983106849571
25,1.181862024242191558117555713853439
26,1.189819505918361717930515563320030
27,1.197473372843070198768786762612987
28,1.204846006201336346584255476302221
29,1.211957397414305534291924738593222
30,1.218825476981616980010158556692387
31,1.225466388614690608403169237872537
32,1.231894719234057117483043112976456
33,1.238123693094207508934785862844460
34,1.244165336548892019682781574262073
35,1.250030618630603306722566104521545
36,1.255729571584499864717071939492901
37,1.261271394692941133796110815135465
38,1.266664544096387054776341223283834
39,1.271916810818566236213647679538674
40,1.277035388807996182777030873428387
41,1.282026934491188840001438504946825
42,1.286897619077882198127480086787913
43,1.291653174652152451399737162501517
44,1.296298934915167301425392222659314
45,1.300839871307771541155038471740273
46,1.305280625127959899731250754773196
47,1.309625536164815651994374775827028
48,1.313878668292907278118965719041730
49,1.318043832406473071358291144157372
50,1.32212460701860104576170147716442
51,1.32612435680514471259686340314251
52,1.33004624933477027181348926960477
53,1.33389327019408085168636013841588
54,1.33766823668920251808299171785016
55,1.34137381028174151750726145038055
56,1.34501250789694789978821127789148
57,1.34858671222472197089651650173246
58,1.35209868111930312916148784462452
59,1.35555055619072700068211197376205
60,1.35894437067011261439517716610707
61,1.36228205662127748637562771448000
62,1.36556545156287786075612671145169
63,1.36879630455802987696460455104093
64,1.37197628182205539526646384009297
65,1.37510697189346184822001178241361
66,1.37818989040841865844463169540353
67,1.38122648451473102299120364302432
68,1.38421813695755629778431635885732
69,1.38716616986579618538372624399207
70,1.39007184826517035206440493017972
71,1.39293638334137914277757908452137
72,1.39576093547446562627310521263164
73,1.39854661706343506811703091925479
74,1.40129449515837202386492572803834
75,1.40400559391566516489722879079542
76,1.40668089689050149923165396494236
77,1.40932134917949045128287914422358
78,1.41192785942511376858413681934861
79,1.41450130169265181788642999195910
80,1.41704251722930024464075684736908
81,1.41955231611434330074482279048401
82,1.42203147880849051540043042392480
83,1.42448075760979663393655659701137
84,1.42690087802296262106031900616438
85,1.42929254004825861015719770833987
86,1.43165641939579639446827310485597
87,1.43399316863042440599108615971558
88,1.43630341825209783739975063443376
89,1.43858777771619644219116820413528
90,1.44084683639792304035315362718424
91,1.44308116450459837563186939603216
92,1.44529131393938414590767853593736
93,1.44747781911970869293905972245341
94,1.44964119775343232592634211812313
95,1.45178195157557407027228684427547
96,1.45390056704822639917660686286836
97,1.45599751602610744221706496554831
98,1.45807325639003534044450730544037
99,1.46012823265046485889963524331729
100,1.46216287652308990867017451025910
101,1.46417760747839729531661812889536
102,1.46617283326694362649908325717611
103,1.46814895042203296477813094830484
104,1.47010634474138066495562699267176
105,1.47204539174927263109271792910726
106,1.47396645714065731537571432642485
107,1.47586989720855079399596869193892
108,1.47775605925607965731743794090158
109,1.47962528199444439344153765438522
110,1.48147789592805335449369953185926
111,1.48331422372804512139457759937605
112,1.48513458059540553054975515552382
113,1.48693927461487288569797641375402
114,1.48872860710082455296828304385375
115,1.49050287293635259866469918154319
116,1.49226236090675016679559683059058
117,1.49400735402866955728217764398013
118,1.49573812987625286562273550132154
119,1.49745496090559479978911437824067
120,1.49915811477897731956855305549772
121,1.50084785469039895597247536960891
122,1.50252443969404245449935740462871
123,1.50418812503745321454479532050085
124,1.50583916250136935842848664459984
125,1.50747780074833017456338550715845
126,1.50910428568242469045744108924823
127,1.51071886082281285888386352370438
128,1.51232176769396933559023474810660
129,1.51391324623598590771204571069650
130,1.51549353523871776758121375424790
131,1.51706287280409406781868983806214
132,1.51862149684154883593898906834746
133,1.52016964560228783539997314035265
134,1.52170755825901317794110527648806
135,1.52323547553880471507323832321280
136,1.52475364041816608586071367927256
137,1.52626229889080895300468754531532
138,1.52776170082064257384878729011755
139,1.52925210089474732191584614524648
140,1.53073375969391437730220986255140
141,1.53220694490178029704657582548486
142,1.53367193267782261890141448148204
143,1.53512900922472384443700039378905
144,1.53657847258713098680802017983227
145,1.53802063472699501204293879520471
146,1.53945582393093306396167806642910
147,1.54088438761804497646884459767269
148,1.54230669563318090180416262638579
149,1.54372314413190515553489713107383
150,1.54513416019090169836356856776167
151,1.54654020731341036303540505850729
152,1.54794179204642073486481772169058
153,1.54933947198891035957578838197976
154,1.55073386555424570795572280937550
155,1.55212566396339124340890841245180
156,1.55351564610106276647573284464006
157,1.55490469708251800655554134089774
158,1.55629383168148247846827712877894
159,1.5576842242011737925785411635955
160,1.5590772469948522341170610351016
161,1.5604745207616057997923480639440
162,1.5618779811219362519271356788912
163,1.5632899680890190355941513967426
164,1.5647133483592713114524400800410
165,1.5661516856623339220043187677771
166,1.5676094832048373876592514518421
167,1.5690925372708997094226347106941
168,1.5706084676985974654587985672317
169,1.5721675403082446618959023048061
170,1.5737839924540968432195895992815
171,1.5754782714505073359073514932964
172,1.5772810365835186409634561934208
173,1.5792408455429926737278514435765
174,1.5814403535880499558183927465528
175,1.5840350272357524500183157682808
176,1.5873640845547622791605993917983
177,1.5923759536847557809185095630386
178,1.6035473969327861886867492121196
