Eigenstate,Potential Energy
1,0.500000000110714959504897045334416043
2,0.64623093837380651321783860120920750
3,0.73633761182783525181407163119057698
4,0.79966528223594308210610293054470190
5,0.8480465829450489817559405591391484
6,0.8870660087225658496004721013354857
7,0.9197208410126767508465478125466998
8,0.9477838661955415905288994661745083
9,0.9723835832793574410612459379466168
10,0.9942802464139602030787437858985144
11,1.0140094257413015320379290642927093
12,1.0319622165667271406454325098021087
13,1.0484327489566484517956639083528866
14,1.0636477205947500896738935736873631
15,1.0777855125962024995028577582466570
16,1.090988994378124508000223546045359
17,1.103374357121099145430253876146650
18,1.115037364775380906139923281795095
19,1.126057877164878812018755785209557
20,1.136503187621096749351373072254328
21,1.146430529064833489814000784245535
22,1.155888985164924937780329187170545
23,1.164920968274770385263823586881970
24,1.173563376832755901634293646429231
25,1.181848512158181686847113360932279
26,1.189804812258850585052787413960039
27,1.197457444793644534523069935548589
28,1.204828790431564907253596663968304
29,1.211938840053684860780516723571312
30,1.218805523594974248898971838552883
31,1.225444984177019133222475919386267
32,1.231871808104758349428388141149943
33,1.238099218990711775450018250431635
34,1.244139242519628680915982707052860
35,1.250002847027289470103105181209795
36,1.255700064033715251124421201476506
37,1.261240092066955114809013912972490
38,1.266631386483202263020701567321518
39,1.271881737491141476208881325618566
40,1.276998338192609626102511196522997
41,1.281987844134900665474212631975499
42,1.286856425615053925189860153076838
43,1.291609813769978203679713529464981
44,1.296253341318170118333300733647530
45,1.300791978681215619220146987242358
46,1.305230366100127282861943692833726
47,1.309572842268093391383163781480631
48,1.313823469923628438065033842956700
49,1.317986058783452156386701203673913
50,1.32206418614030145594777484667665
51,1.32606121540541268616416827517065
52,1.32998031283706643430460547073626
53,1.33382446266413694586845723748155
54,1.33759648078602712383227771096087
55,1.34129902720689457076584757353484
56,1.34493461734199956768123484011106
57,1.34850563231680691834890639289685
58,1.35201432836467640151572435635795
59,1.35546284541622262617634338649748
60,1.35885321496240057734168458106741
61,1.36218736726380891223782640991068
62,1.36546713797040206175087583325937
63,1.36869427420856030290863618538256
64,1.37187044018615448826455370260612
65,1.37499722236070727807403047214849
66,1.37807613421090538209616770401406
67,1.38110862064745502652637957411567
68,1.38409606209551670075488830474886
69,1.38703977827764256791797598244379
70,1.38994103172321165494283806014610
71,1.39280103102775923405574977939268
72,1.39562093388329856534111151167456
73,1.39840184989868016353593168651481
74,1.40114484322721490368975785131100
75,1.40385093501715617921735165448907
76,1.40652110569918676911479805579749
77,1.40915629712375367269203536477528
78,1.41175741455992837199384607427472
79,1.41432532856642316208895178587263
80,1.41686087674445606376196374742920
81,1.41936486538130749166681548883076
82,1.42183807099265040044606135612124
83,1.42428124177104689753105979665674
84,1.42669509894738001962178730443425
85,1.42908033807143009367163355909700
86,1.43143763021728923781280501898787
87,1.43376762311885008685888036611290
88,1.43607094224018144928485436506769
89,1.43834819178522010042400128029173
90,1.44059995565086469989172342122921
91,1.44282679832723636919627779880583
92,1.44502926574858216795694861509217
93,1.44720788609803545209531648271929
94,1.44936317056920416862718991242135
95,1.45149561408733698765406666819752
96,1.45360569599261535003698901138319
97,1.45569388068793516712635443393849
98,1.45776061825336903462671587196752
99,1.45980634502934635048721926443254
100,1.46183148417044238629210710745171
101,1.46383644617153805747217722861316
102,1.46582162936798656293701928345956
103,1.46778742041131515111526906912415
104,1.46973419472188300468110261299484
105,1.47166231691982316248726133236071
106,1.47357214123550563298274957862582
107,1.47546401190068077143795886100736
108,1.47733826352138275374622053163931
109,1.47919522143360438603702964596622
110,1.48103520204269206921151657701539
111,1.48285851314734387631292181566648
112,1.48466545424904426701182039969349
113,1.48645631684771342769220222267499
114,1.48823138472430046786885711509902
115,1.48999093421100925516433234911339
116,1.49173523444979733942623236507822
117,1.49346454763975670355933780158636
118,1.49517912927394404754203355424918
119,1.49687922836619459838076974958390
120,1.49856508766842759652226956652470
121,1.50023694387891334199905817591653
122,1.50189502784195277045192408444874
123,1.50353956473938833624188356816558
124,1.50517077427434730005556980297410
125,1.50678887084758895214625467497981
126,1.50839406372681210505515076792333
127,1.50998655720925861177232139001741
128,1.51156655077792607810737832128785
129,1.51313423925169086480234197569622
130,1.51468981292962409305280158298215
131,1.51623345772976796298622934726253
132,1.51776535532262471744635828510067
133,1.51928568325959880184811731032571
134,1.52079461509662149491177497821680
135,1.52229232051316917674130250035215
136,1.52377896542688271318268826825783
137,1.52525471210398212745638044045089
138,1.52671971926565711806684427803530
139,1.52817414219061187608793579786115
140,1.52961813281392720895586575703106
141,1.53105183982239842041135220224687
142,1.53247540874649932296756410199761
143,1.53388898204911410911108290499764
144,1.53529269921117162780776091006834
145,1.53668669681431242512631169423865
146,1.53807110862071103904361517474678
147,1.53944606565016783552971605567218
148,1.54081169625458571497823749128007
149,1.54216812618993348997560425340688
150,1.54351547868579957532433900992858
151,1.54485387451263190461553961254162
152,1.54618343204675437255924439360703
153,1.54750426733324875280827813278352
154,1.54881649414678599055803325381444
155,1.55012022405048510595778848871147
156,1.55141556645287757473955244823731
157,1.55270262866304823271029460806988
158,1.55398151594402452225448566036958
159,1.5552523315644777537247850157630
160,1.5565151768488027193057387186176
161,1.5577701512256341555167377544620
162,1.5590173522748595155028518499693
163,1.5602568757731829044608045784223
164,1.5614888157382948148446307392342
165,1.5627132644716962616195768600925
166,1.5639303126002278332048264623130
167,1.5651400491163508904774959677271
168,1.5663425614172236028068246383162
169,1.5675379353426168832647377020268
170,1.5687262552117099661861715039892
171,1.5699076038588058215988085781432
172,1.5710820626680042732400840289113
173,1.5722497116068682225545246847598
174,1.5734106292591188222486567062254
175,1.5745648928563935844010044870235
176,1.5757125783090971295465046308891
177,1.5768537602363778373405911267192
178,1.5779885119952595532686841803729
179,1.5791169057089547964181567718394
180,1.5802390122943904147846251909691
181,1.5813549014889683367724445265106
182,1.5824646418765891143514270305074
183,1.5835683009129613072218908458767
184,1.5846659449502209496028091341633
185,1.5857576392608829078493126177138
186,1.5868434480611450975996354208635
187,1.5879234345335693610361022592133
188,1.5889976608491544406604138171525
189,1.5900661881888247807592324246082
190,1.5911290767643508077256984418494
191,1.5921863858387199118778844273818
192,1.5932381737459745130674945970215
193,1.5942844979105355140189642768043
194,1.5953254148660244822749046558928
195,1.5963609802736024932026246611926
196,1.5973912489398393260574280577090
197,1.5984162748341273885236350844476
198,1.5994361111056545318120417073664
199,1.6004508100999485902717524634061
200,1.6014604233750075858197959379147
201,1.6024650017170265737130919123587
202,1.6034645951557345059250199569848
203,1.6044592529793517669560778939576
204,1.6054490237491799970969736481310
205,1.6064339553138341686103786506802
206,1.6074140948231299336887963408528
207,1.6083894887416321149745700510020
208,1.6093601828618785602122726737200
209,1.6103262223172851040282655334359
210,1.6112876515947431326062416921768
211,1.6122445145469171103892350902259
212,1.6131968544042522961063460019776
213,1.6141447137866970261916107996936
214,1.6150881347151545414613140773255
215,1.6160271586226635634598441293262
216,1.6169618263653215751145895316840
217,1.6178921782329547649267628298400
218,1.6188182539595436073373796860065
219,1.6197400927334073523974317735886
220,1.6206577332071599330640659572145
221,1.6215712135074351926133092541691
222,1.6224805712443986297369781698595
223,1.6233858435210392223615318761501
224,1.6242870669422563896970827235407
225,1.6251842776237446492737196587856
226,1.6260775112006795071235814450046
227,1.6269668028362132241759831738412
228,1.6278521872297822692933290454990
229,1.6287336986252336113192967905072
230,1.6296113708187745366104932530138
231,1.6304852371667477815540187885580
232,1.6313553305932423892259824558463
233,1.6322216835975352759354243914045
234,1.6330843282613796539640534299289
235,1.6339432962561334818502791856515
236,1.6347986188497376412399496538823
237,1.6356503269135474606889009497810
238,1.6364984509290193176915821897338
239,1.6373430209942577547829868522023
240,1.6381840668304252634054017729251
241,1.6390216177880190171637184445621
242,1.6398557028530174107036905865418
243,1.6406863506529004352743954760433
244,1.6415135894625455795031891825622
245,1.6423374472100036287935257862890
246,1.6431579514821568822188493919625
247,1.6439751295302611690059993040613
248,1.6447890082753792454818185249398
249,1.6455996143137005413189678939278
250,1.6464069739217576395323013091844
251,1.6472111130615373899888419718707
252,1.6480120573854894546866385270738
253,1.6488098322414373567734035928320
254,1.6496044626773916899313058384086
255,1.6503959734462693679372816739999
256,1.6511843890105189995513812707326
257,1.6519697335466587798720199520581
258,1.6527520309497233426178803569272
259,1.6535313048376263765967236481576
260,1.6543075785554393924826664414484
261,1.6550808751795869533856996964046
262,1.6558512175219630943790282494858
263,1.6566186281339677813137554735623
264,1.6573831293104688595313084898153
265,1.6581447430936880174656210595975
266,1.6589034912770129326425548721162
267,1.6596593954087388130925560752997
268,1.6604124767957393676689095560582
269,1.6611627565070714749751295793983
270,1.6619102553775092748373259703999
271,1.6626549940110169660828675250470
272,1.6633969927841542900037543771896
273,1.6641362718494221424426812027328
274,1.6648728511385455233555036024259
275,1.6656067503656976992762836204006
276,1.6663379890306638568951380194772
277,1.6670665864219517316334513711303
278,1.6677925616198409657445027831130
279,1.6685159334993826990031994588593
280,1.6692367207333414854610833675396
281,1.6699549417950874257127122920147
282,1.6706706149614360115791286717266
283,1.6713837583154388963037082214047
284,1.6720943897491227474608875995451
285,1.6728025269661829905159512549368
286,1.6735081874846284684730196452384
287,1.6742113886393820776103961335146
288,1.6749121475848337818020565767499
289,1.6756104812973506542270533590098
290,1.6763064065777446797475035618089
291,1.6769999400536961596668012891780
292,1.6776910981821356045609852128727
293,1.6783798972515880217606621371095
294,1.6790663533844746352215426566111
295,1.6797504825393741257644864499059
296,1.6804323005132509781064112041708
297,1.6811118229436408672797474413776
298,1.6817890653108024020883348121136
299,1.6824640429398320293703460722490
300,1.6831367710027438506066474455270
301,1.6838072645205147632645323586213
302,1.6844755383650970207855219973900
303,1.6851416072613953853397149411181
304,1.6858054857892124518969314024494
305,1.6864671883851635731792563571163
306,1.6871267293445606497813194571748
307,1.6877841228232619685180862487020
308,1.6884393828394955685603475921383
309,1.6890925232756522257833785711059
310,1.6897435578800483916561251174616
311,1.6903925002686626827849664903199
312,1.6910393639268434354795506787825
313,1.6916841622109887193550340757766
314,1.6923269083502006155361159035627
315,1.6929676154479130804287460541772
316,1.6936062964834947720518796830102
317,1.6942429643138243789180980674113
318,1.6948776316748438041211390529541
319,1.6955103111830863476385819894113
320,1.6961410153371798895860785725477
321,1.6967697565193289948708124694569
322,1.6973965469967720552246987634699
323,1.6980213989232169842364774279800
324,1.6986443243402544441464890853768
325,1.6992653351787503680375383159911
326,1.6998844432602160163507125558238
327,1.7005016602981583902102943260633
328,1.7011169978994081925363244764823
329,1.7017304675654303136145486433713
330,1.7023420806936132746549923774952
331,1.7029518485785390698172148062333
332,1.7035597824132344698771358220364
333,1.7041658932904041680696387761080
334,1.7047701922036439541563054640613
335,1.7053726900486382337210188410708
336,1.7059733976243379528761227795382
337,1.7065723256341218027957685599385
338,1.7071694846869417651609451363776
339,1.7077648852984490653040672009782
340,1.7083585378921066267324083338869
341,1.7089504528002837430061430571997
342,1.7095406402653354665746439770329
343,1.7101291104406663548763879698679
344,1.7107158733917785699864812625419
345,1.7113009390973061537890998291934
346,1.7118843174500329561775742925117
347,1.7124660182578977844168674701104
348,1.7130460512449835882346433107586
349,1.7136244260524942284834249763826
350,1.7142011522397163747078881355385
351,1.7147762392849686222801309196191
352,1.7153496965865375146146926581133
353,1.7159215334635997580676147098137
354,1.7164917591571320472972932389671
355,1.7170603828308088697632492712382
356,1.7176274135718865026304047569621
357,1.7181928603920764446905843825009
358,1.7187567322284075309666952450754
359,1.7193190379440724789018441598693
360,1.7198797863292678079087013497281
361,1.7204389861020188811109572334953
362,1.7209966459089965549373471958914
363,1.7215527743263200363512557574636
364,1.7221073798603509759925058440119
365,1.7226604709484770379867893288875
366,1.7232120559598838286074637852209
367,1.7237621431963180804218770377399
368,1.7243107408928388854121509192801
369,1.7248578572185616144897040383028
370,1.7254035002773902415941072653059
371,1.7259476781087409308276086901242
372,1.7264903986882558483945153793195
373,1.7270316699285071714853287875327
374,1.7275714996796956081645755553203
375,1.7281098957303341255555920410859
376,1.7286468658079283484309417196132
377,1.7291824175796454234566416189739
378,1.7297165586529745227228858882003
379,1.7302492965763808327418120492811
380,1.7307806388399497922424690881938
381,1.7313105928760244609442934086809
382,1.7318391660598331444096429180585
383,1.7323663657101119567672921711070
384,1.7328921990897172923337776633628
385,1.7334166734062318349246749185441
386,1.7339397958125647712517689510804
387,1.7344615734075419657172681219807
388,1.7349820132364900415926440865151
389,1.7355011222918150516998477346074
390,1.7360189075135729363712493086764
391,1.7365353757900320945518508676617
392,1.7370505339582316855935391312791
393,1.7375643888045331446828817311795
394,1.7380769470651635027136891668629
395,1.7385882154267533774827338312256
396,1.7390982005268692973840228699512
397,1.7396069089545399981017834998347
398,1.7401143472507767113684516164314
399,1.7406205219090860228119585773719
400,1.7411254393759796104352305573072
401,1.7416291060514769245718940336744
402,1.7421315282896015668216054152843
403,1.7426327123988742013634929965841
404,1.7431326646427999047730914837630
405,1.7436313912403474332372368022920
406,1.7441288983664265300419361200275
407,1.7446251921523604043330961019211
408,1.7451202786863508990589480766440
409,1.7456141640139392243440302529310
410,1.7461068541384647864142834781539
411,1.7465983550215163882219369633942
412,1.7470886725833794009971791698274
413,1.7475778127034800029461612716873
414,1.7480657812208229266442040420668
415,1.7485525839344270173478988447244
416,1.7490382266037550507074209052771
417,1.7495227149491406778126527822174
418,1.7500060546522096808838437759783
419,1.7504882513562998388372203450384
420,1.7509693106668744060432835304442
421,1.7514492381519331785455761384100
422,1.7519280393424204521481099619843
423,1.7524057197326277320780954739470
424,1.7528822847805948322735784282934
425,1.7533577399085057687928834082880
426,1.7538320905030830801679071418858
427,1.7543053419159780861556433586088
428,1.7547774994641571263295487562418
429,1.7552485684302877195582159967617
430,1.7557185540631175361240101359878
431,1.7561874615778537167781930606772
432,1.7566552961565397199456072683397
433,1.7571220629484250677467559079798
434,1.7575877670703391226818350803557
435,1.7580524136070567537285794038707
436,1.7585160076116638291402236489520
437,1.7589785541059207348685659684587
438,1.7594400580806229395569862943932
439,1.7599005244959593276479879347120
440,1.7603599582818694134921999758914
441,1.7608183643383966394532185713582
442,1.7612757475360413663385092385914
443,1.7617321127161132501536164450000
444,1.7621874646910776724915852383561
445,1.7626418082449056049186839876487
446,1.7630951481334179832014008123237
447,1.7635474890846318139205463119215
448,1.7639988357991012870225011955600
449,1.7644491929502617921829342919850
450,1.7648985651847690509439897835376
451,1.7653469571228409294349759426368
452,1.7657943733585948370646239679875
453,1.7662408184603865207061785251869
454,1.7666862969711467122665189330758
455,1.7671308134087193251068009892263
456,1.7675743722661965706004372960329
457,1.7680169780122557677117929671593
458,1.7684586350914943216169959985586
459,1.7688993479247654685386461827480
460,1.7693391209095145156178565457147
461,1.7697779584201135154165371745506
462,1.7702158648081976815091332262113
463,1.7706528444030022460433485566051
464,1.7710889015116980211268609795149
465,1.7715240404197297377806148517310
466,1.7719582653911544023839475941345
467,1.7723915806689790647451942528113
468,1.7728239904755031316887037203794
469,1.7732554990126578259374264647515
470,1.7736861104623504429465648324255
471,1.7741158289868078062168423058081
472,1.7745446587289233576438423182613
473,1.7749726038126033785589001012057
474,1.7753996683431199962699926718377
475,1.7758258564074600560380409350291
476,1.7762511720746825361488392849096
477,1.7766756193962750099079797022639
478,1.7770992024065140087131391747092
479,1.7775219251228283614420879967648
480,1.7779437915461660986432344487820
481,1.7783648056613636747859983533322
482,1.7787849714375212885985407995701
483,1.7792042928283799020789637833440
484,1.7796227737727030082977013105254
485,1.7800404181946648655176119681633
486,1.7804572300042400338994825514293
487,1.7808732130976013263870030399614
488,1.7812883713575210450460758280813
489,1.7817027086537790182740124610626
490,1.7821162288435756024892218554836
491,1.7825289357719520969564034445182
492,1.7829408332722174889654330765926
493,1.7833519251663818487959263057669
494,1.7837622152655978292000844195394
495,1.7841717073706088396763892064088
496,1.7845804052722075357983234941357
497,1.7849883127517007239354645175471
498,1.7853954335813850615484950216201
499,1.7858017715250315064087714821983
500,1.786207330338381123614862322253
501,1.786612113769648498404531774244
502,1.787016125560040736749349645917
503,1.787419369444284075036844699291
504,1.787821849151166523628448375408
505,1.788223568404090002075140822482
506,1.788624530921638337566022220441
507,1.789024740418159648950297269355
508,1.789424200604363465425983134443
509,1.789822915187931556839998469443
510,1.790220887874149313861879904451
511,1.790618122366551735576927608136
512,1.791014622367588795023932347308
513,1.791410391579309715195429112267
514,1.791805433704067798195281663202
515,1.792199752445247200403869753915
516,1.792593351508010938231499207561
517,1.792986234600072332521331643211
518,1.793378405432492873106636642381
519,1.793769867720504548325999423818
520,1.794160625184360830368787318893
521,1.794550681550214521109000015470
522,1.794940040551028224468389116364
523,1.795328705927515457988633417574
