Eigenstate,Potential Energy
1,0.500000000027213331529361298151439690
2,0.64623093782874898551209752830520460
3,0.73633761022676172541239266412702950
4,0.79966527890105829810329900739226647
5,0.8480465771682766871351189305518870
6,0.8870659997833936135355508208273919
7,0.9197208281847248137614543741337652
8,0.9477838487492966780228699344588107
9,0.9723835604834387818380669813640462
10,0.9942802175357572886489865125220850
11,1.0140093900473161145860059591669526
12,1.0319621733227645086386725578293457
13,1.0484326974279266452791318152492865
14,1.0636476600459618830999775937248468
15,1.0777854422915488833901036667632967
16,1.090988913581330260737171921916002
17,1.103374265095416748017381934741967
18,1.115037260783586632386467184204926
19,1.126057760469263421638465878468638
20,1.136503057483452366566073619120205
21,1.146430384746437726051510743247338
22,1.155888825926522982882956331993682
23,1.164920793376555573159169018611424
24,1.173563185534349110363691638805436
25,1.181848303718609833199229633930775
26,1.189804585936524404799725055759748
27,1.197457199846335790313987784256922
28,1.204828526116383131093464883832942
29,1.211938555627053712449638114373413
30,1.218805218312607552808002511593759
31,1.225444657293896642117125123945175
32,1.231871458875101272727618079668545
33,1.238098846667958101891525306243946
34,1.244138846356408318934960942889965
35,1.250002426275399224512915762509547
36,1.255699617944093650859073520287377
37,1.261239619889657103476481181331881
38,1.266630887467373761618050628660751
39,1.271881210884993825426264915902048
40,1.276997783243393914088939558513143
41,1.281987260088881945674590142275802
42,1.286855811717485327829038110593255
43,1.291609169265074943618508098729665
44,1.296252665449083401317404202564013
45,1.300791270690006447956626505145247
46,1.305229625227740163867485623004417
47,1.309572067754329943135735018245260
48,1.313822661007120900641527896980300
49,1.317985214701636802472626466069900
50,1.32206330612939190285178885204750
51,1.32606029870037310825259526115451
52,1.32997935867158467508349469934627
53,1.33382347027059752877803894719634
54,1.33759544939548416067671012022787
55,1.34129795604904456657692086170563
56,1.34493350564515412070522567898914
57,1.34850447930786531374896894904486
58,1.35201313326909809729562091986236
59,1.35546160745799962975448900310359
60,1.35885193336402971113470839053867
61,1.36218604124626396655003958021511
62,1.36546576675310583320861693974805
63,1.36869285700935651662613122743817
64,1.37186897622127960187964376721274
65,1.37499571084476216574711657489917
66,1.37807457435682689652422287062964
67,1.38110701166648743698472335436100
68,1.38409440319718300514258736923858
69,1.38703806866971567674762598242394
70,1.38993927061168544518267977936261
71,1.39279921761681947069962988369301
72,1.39561906737529368855180303254648
73,1.39839992949409193917714811328349
74,1.40114286812462893503390352112894
75,1.40384890441323227758764396603415
76,1.40651901878862918119342183638929
77,1.40915415309928116219875134350962
78,1.41175521261224415341304897877287
79,1.41432306788418468409695105310121
80,1.41685855651424463998055093884083
81,1.41936248478759777634302559609080
82,1.42183562921777970663263635523606
83,1.42427873799518435531643673279906
84,1.42669253234849557193292601609828
85,1.42907770782526332714720151665106
86,1.43143493549731804621884377042087
87,1.43376486309625916449293357203627
88,1.43606811608383061178887010904397
89,1.43834529866161243040016585500286
90,1.44059699472411451468913433566236
91,1.44282376875903700820968456004926
92,1.44502616669817359675228399925014
93,1.44720471672217168064955017982110
94,1.44935993002212048094280335548579
95,1.45149230152071697998090725263720
96,1.45360231055555777490627429728771
97,1.45569042152692058037335645323369
98,1.45775708451222624255014402994469
99,1.45980273584921865426417149456191
100,1.46182779868975362073835343521216
101,1.46383268352595842120757388139279
102,1.46581778869039823698582904680469
103,1.46778350083177770294082015285151
104,1.46973019536759857462257779583385
105,1.47165823691510142953565387648498
106,1.47356797970172855680082440952773
107,1.47545976795626710749677340747253
108,1.47733393628175233841784848115282
109,1.47919081001114218844984223693738
110,1.48103070554671200664064834757461
111,1.48285393068405238984416268363229
112,1.48466078492150365418231046064105
113,1.48645155975580492877598072476718
114,1.48822653896468710243935948857710
115,1.48998599887709840552953883715570
116,1.49173020863170307749508057525541
117,1.49345943042426185766043904412073
118,1.49517391974446200567759961828920
119,1.49687392560273084435996514977618
120,1.49855969074754097537855485661761
121,1.50023145187367705105637349898735
122,1.50188943982191507236399946056459
123,1.50353387977053299028743565162539
124,1.50516499141905370793064892376856
125,1.50678298916459201445208947863436
126,1.50838808227116178463692238955764
127,1.50998047503227920002031955663705
128,1.51156036692717516028729534511821
129,1.51312795277091798043640855820802
130,1.51468342285872908732743096498480
131,1.51622696310475902511503079459040
132,1.51775875517557610186968828855599
133,1.51927897661860822810304846525087
134,1.52078780098576722195626528467950
135,1.52228539795246674746715615340653
136,1.52377193343224136480176697779348
137,1.52524756968716086339239698973088
138,1.52671246543422043693339764252694
139,1.52816677594788515328062208102812
140,1.52961065315895172633194977693097
141,1.53104424574988603947651605672696
142,1.53246769924678679693313585626590
143,1.53388115610811702912906746096758
144,1.53528475581033799863346011372254
145,1.53667863493057586540047267542662
146,1.53806292722644360132639126119581
147,1.53943776371313244115890516024704
148,1.54080327273788819876341274772506
149,1.54215958005197424967699949076636
150,1.54350680888022482080346087863060
151,1.54484507998828450147904935540624
152,1.54617451174762427505390051131161
153,1.54749522019842302065752937608275
154,1.54880731911039838436466798298296
155,1.55011092004166525572806369020457
156,1.55140613239569971601478907785406
157,1.55269306347647950472242753207972
158,1.55397181854187282244922957339452
159,1.5552425008553391429242316323273
160,1.5565052117360083717076311526748
161,1.5577600506071968476529761303342
162,1.5590071150434196482031484343254
163,1.5602465008159540517899851773346
164,1.5614783019370087939032150597275
165,1.5627026107025477170168870582401
166,1.5639195177338183299325467193264
167,1.5651291120176325088293059600036
168,1.5663314809454420289048756322528
169,1.5675267103512539886686082409533
170,1.5687148845484258699730611074308
171,1.5698960863653804282151810872889
172,1.5710703971802782793357804892278
173,1.5722378969546835859184999557063
174,1.5733986642662586858728377702175
175,1.5745527763405216486047775598621
176,1.5757003090816964649983270124723
177,1.5768413371026891317159460068916
178,1.5779759337542187841845373534707
179,1.5791041711531303231832845190801
180,1.5802261202099194814026683121189
181,1.5813418506554929785312470574954
182,1.5824514310671914602259392457813
183,1.5835549288940982702101355898186
184,1.5846524104816582970058876883730
185,1.5857439410956287033938665267374
186,1.5868295849453825071903614652572
187,1.5879094052065888138090147033473
188,1.5889834640432851368914100218626
189,1.5900518226293655380641695228035
190,1.5911145411695002368668873462496
191,1.5921716789195059133689838714545
192,1.5932232942061830856442229922598
193,1.5942694444466388659157885534940
194,1.5953101861671084361190243526192
195,1.5963455750212931752044091016462
196,1.5973756658082291300439847868859
197,1.5984005124897002052251347277116
198,1.5994201682072102336732598353450
199,1.6004346852985267619195417882877
200,1.6014441153138104901752459174249
201,1.6024485090313413435919238892922
202,1.6034479164728545508195359116712
203,1.6044423869184973845448826977106
204,1.6054319689214181788726532901109
205,1.6064167103219975888615181433201
206,1.6073966582617351109129157328418
207,1.6083718591967967346384815065349
208,1.6093423589112379476115000343047
209,1.6103082025299078358304161763370
210,1.6112694345310457754941806899739
211,1.6122260987585780750463896908093
212,1.6131782384341247946108929012478
213,1.6141258961687211207075946214945
214,1.6150691139742682719323747719890
215,1.6160079332747131418266802601773
216,1.6169423949169706333877972596863
217,1.6178725391815926442558821251431
218,1.6187984057931926750213544752569
219,1.6197200339306293335821143821385
220,1.6206374622369612436718757945836
221,1.6215507288291712598427919267079
222,1.6224598713076771862611850012761
223,1.6233649267656225601406735691557
224,1.6242659317979625591040061272690
225,1.6251629225103475890091571638620
226,1.6260559345278080901733458873448
227,1.6269450030032492048343033109325
228,1.6278301626257571160409223171143
229,1.6287114476287242101093432057814
230,1.6295888917977977488735685199476
231,1.6304625284786538409857603205336
232,1.6313323905846071211716093247669
233,1.6321985106040511229296743548216
234,1.6330609206077454907248988375845
235,1.6339196522559432027604824477975
236,1.6347747368053675030804008867555
237,1.6356262051160421631134103931482
238,1.6364740876579768036528269898257
239,1.6373184145177127128352484788217
240,1.6381592154047313135176450179983
241,1.6389965196577295613834473969368
242,1.6398303562507651297094158038287
243,1.6406607537992754115476695532622
244,1.6414877405659720275397487143976
245,1.6423113444666152124541117622005
246,1.6431315930756705989948682667944
247,1.6439485136318497806472827578543
248,1.6447621330435422340941117643138
249,1.6455724778941335696980205051307
250,1.6463795744472204941502063912454
251,1.6471834486517203846919889969797
252,1.6479841261468782728034824096837
253,1.6487816322671763089572376834042
254,1.6495759920471453646882589663904
255,1.6503672302260826514042318463141
256,1.6511553712526754406972744418369
257,1.6519404392895372768959689030923
258,1.6527224582176531259106626814856
259,1.6535014516407402632171899726893
260,1.6542774428895252866775310084381
261,1.6550504550259375672492877206960
262,1.6558205108472238623098838075380
263,1.6565876328899829414771621666795
264,1.6573518434341256750780930559262
265,1.6581131645067591097927414257813
266,1.6588716178859966985045367547912
267,1.6596272251046978968882264170310
268,1.6603800074541371597334280501664
269,1.6611299859876066062016892148520
270,1.6618771815239480774404977479606
271,1.6626216146510238697894229887421
272,1.6633633057291201224211008567433
273,1.6641022748942903018100461053236
274,1.6648385420616359913255882497560
275,1.6655721269285288608064150762702
276,1.6663030489777720937477323884881
277,1.6670313274807087553928454572231
278,1.6677569815002688556551147284688
279,1.6684800298939666093168330908938
280,1.6692004913168399863527926785346
281,1.6699183842243404411837375053221
282,1.6706337268751703171098174700865
283,1.6713465373340711383524534288449
284,1.6720568334745599462214950638872
285,1.6727646329816204866508415155431
286,1.6734699533543452738289472050574
287,1.6741728119085335891978534202638
288,1.6748732257792418175785477988443
289,1.6755712119232907684686979484580
290,1.6762667871217307150220994242459
291,1.6769599679822619916321430859140
292,1.6776507709416140350075598751025
293,1.6783392122678867744971504933266
294,1.6790253080628494085601772979438
295,1.6797090742641986545088066548374
296,1.6803905266477840570650016754532
297,1.6810696808297902874383425864781
298,1.6817465522688857496580191042050
299,1.6824211562683342969962737299646
300,1.6830935079780718090685155599812
301,1.6837636223967480410268553331056
302,1.6844315143737358377596210212585
303,1.6850971986111048862046123420175
304,1.6857606896655635832848593284283
305,1.6864220019503704479727272093557
306,1.6870811497372143406813199503568
307,1.6877381471580606719359491834725
308,1.6883930082069710787532034955608
309,1.6890457467418926579928079036563
310,1.6896963764864170918274163541132
311,1.6903449110315132602328590533142
312,1.6909913638372308536306818089629
313,1.6916357482343763784307405579222
314,1.6922780774261633597473863283460
315,1.6929183644898360609311826388296
316,1.6935566223782680955579685680142
317,1.6941928639215334704796118598428
318,1.6948271018284554111808175643663
319,1.6954593486881301110037029168491
320,1.6960896169714254054977857421018
321,1.6967179190324582908294614009982
322,1.6973442671100474006814438185960
323,1.6979686733291439556808537014903
324,1.6985911497022401624954900840240
325,1.6992117081307568245786593144824
326,1.6998303604064084017890446847239
327,1.7004471182125483396406840117746
328,1.7010619931254918573773105198455
329,1.7016749966158211697295517681467
330,1.7022861400496695740205543912825
331,1.7028954346899858411961835340421
332,1.7035028916977799720033176918712
333,1.7041085221333506968536861271700
334,1.7047123369574929033785844712205
335,1.7053143470326893065889105403837
336,1.7059145631242824196739340012978
337,1.7065129959016296976667618983767
338,1.7071096559392429128102744820215
339,1.7077045537179078261121293716915
340,1.7082976996257902464115913190272
341,1.7088891039595241905170318162059
342,1.7094787769252846415458549947953
343,1.7100667286398445432376125349543
344,1.7106529691316160239295258484593
345,1.7112375083416776695103418247378
346,1.7118203561247853201294350070802
347,1.7124015222503699560018218723027
348,1.7129810164035194840149094513081
349,1.7135588481859479700438665730426
350,1.7141350271169498592981182117277
351,1.7147095626343412722853476859723
352,1.7152824640953880587399732778343
353,1.7158537407777198938777735654782
354,1.7164234018802318314351056694283
355,1.7169914565239736787601567172220
356,1.7175579137530254037277032303928
357,1.7181227825353618125059359402153
358,1.7186860717637057421658940334079
359,1.7192477902563655132628786301328
360,1.7198079467580655802992747789384
361,1.7203665499407621249281485447543
362,1.7209236084044500734895801641494
363,1.7214791306779561344832654162683
364,1.7220331252197228799637203444132
365,1.7225856004185821072168723468190
366,1.7231365645945163583801657885505
367,1.7236860259994114900094840994196
368,1.7242339928177970813144862940072
369,1.7247804731675793136018225807114
370,1.7253254751007620340945436163009
371,1.7258690066041588574315910912582
372,1.7264110756000952613202913015902
373,1.7269516899471006430523741546227
374,1.7274908574405946453573554607064
375,1.7280285858135584431583711351400
376,1.7285648827372024474408345841424
377,1.7290997558216222154397895152333
378,1.7296332126164457345525218073841
379,1.7301652606114739197733396386442
380,1.7306959072373110814109923013151
381,1.7312251598659882385194974134455
382,1.7317530258115763962080583284450
383,1.7322795123307944614864686416271
384,1.7328046266236067613428975041868
385,1.7333283758338137843030273827059
386,1.7338507670496368041187585539637
387,1.7343718073042921349164854049609
388,1.7348915035765589545978365856252
389,1.7354098627913413711709510494245
390,1.7359268918202219211113434598513
391,1.7364425974820068166845082305277
392,1.7369569865432665505990087790894
393,1.7374700657188693314674354089300
394,1.7379818416725059311626223645457
395,1.7384923210172088009325112163011
396,1.7390015103158651071311670464362
397,1.7395094160817233164639096216978
398,1.7400160447788933388708170027609
399,1.7405214028228387938293862831960
400,1.7410254965808657000237201242326
401,1.7415283323726036372892675379828
402,1.7420299164704801260391489074203
403,1.7425302551001910449012182555008
404,1.7430293544411649796448073391659
405,1.7435272206270189688320543713642
406,1.7440238597460117552173923726898
407,1.7445192778414916596047795969920
408,1.7450134809123365803461805807125
409,1.7455064749133889795472032819705
410,1.7459982657558883704483306978549
411,1.7464888593078955659884791075587
412,1.7469782613947122711300495774470
413,1.7474664777992970979944561844679
414,1.7479535142626744276432549711430
415,1.7484393764843404024569243914563
416,1.7489240701226624787340445798520
417,1.7494076007952753879878421613764
418,1.7498899740794706701654823577217
419,1.7503711955125840572928485699143
420,1.7508512705923756894556340030882
421,1.7513302047774071152911733120776
422,1.7518080034874143585838362311783
423,1.7522846721036748870933786931159
424,1.7527602159693720973318705031815
425,1.7532346403899536946383859349599
426,1.7537079506334875753819692873830
427,1.7541801519310126959117482135080
428,1.7546512494768849419319322427091
429,1.7551212484291219106779617587841
430,1.7555901539097394679890091967137
431,1.7560579710050875839193357075532
432,1.7565247047661825963917363190600
433,1.7569903602090312407777429814440
434,1.7574549423149575433304293578953
435,1.7579184560309204021308628432229
436,1.7583809062698297565266375569607
437,1.7588422979108595064187092418120
438,1.7593026357997561634479812154097
439,1.7597619247491439153720439249130
440,1.7602201695388271748321143036058
441,1.7606773749160877723487005196003
442,1.7611335455959803571779803785346
443,1.7615886862616256537095727033618
444,1.7620428015644961927618705323568
445,1.7624958961247038484178218743181
446,1.7629479745312802047353044012106
447,1.7633990413424569214845022537364
448,1.7638491010859393170973610187542
449,1.7642981582591810093175854048794
450,1.7647462173296517659751258748243
451,1.7651932827351060689625312581673
452,1.7656393588838452327435922276181
453,1.7660844501549788204490664588376
454,1.7665285608986817464898110050343
455,1.7669716954364506895416220299650
456,1.7674138580613551128823973718543
457,1.7678550530382875877698360299361
458,1.7682952846042098157372152245978
459,1.7687345569683968637126594216853
460,1.7691728743126792542859031910593
461,1.7696102407916807608270245035484
462,1.7700466605330551204881008355804
463,1.7704821376377202688388947040080
464,1.7709166761800882570213441538200
465,1.7713502802082948201387097637027
466,1.7717829537444257275551088084269
467,1.7722147007847391956012362113072
468,1.7726455252998893783054232187324
469,1.7730754312351434128262424793848
470,1.7735044225105995441055377452421
471,1.7739325030214005958273859841615
472,1.7743596766379470852725702858212
473,1.7747859472061053329493458915014
474,1.7752113185474180709710980105586
475,1.7756357944593064729140296371899
476,1.7760593787152761189367848094479
477,1.7764820750651172291350695119134
478,1.7769038872351038410967359690247
479,1.7773248189281908210162502840056
480,1.7777448738242091029257006248202
481,1.7781640555800577068923377717484
482,1.7785823678298961049428318828446
483,1.7789998141853323146869953652597
484,1.7794163982356095403669552740589
485,1.7798321235477928381824738833102
486,1.7802469936669503906559235603695
487,1.7806610121163362387923484685452
488,1.7810741823975690684895211641362
489,1.7814865079908102792704384040873
490,1.7818979923549391983502050592109
491,1.7823086389277275742067264287895
492,1.7827184511260119377269863921157
493,1.7831274323458638058203756301987
494,1.7835355859627588214185506158671
495,1.7839429153317430222365662869677
496,1.7843494237875994825928654203562
497,1.7847551146450110136825582579571
498,1.7851599911987228674294752811579
499,1.7855640567237029411085635587646
500,1.785967314475301613076825744055
501,1.786369767689406955490431405582
502,1.786771419582602779021269019109
503,1.787172273352320977532222297048
504,1.787572332176996016374685547353
505,1.787971599216214411598173478449
506,1.788370077610864929980927725181
507,1.788767770483287357724089470105
508,1.789164680937419477583455342069
509,1.789560812058940485138337724570
510,1.789956166915416897240168060826
511,1.790350748556444183523511439866
512,1.790744560013788020977616215657
513,1.791137604301523787116011274089
514,1.791529884416174968013179326264
515,1.791921403336850855305701505300
516,1.792312164025381742352272666384
517,1.792702169426452694146259044448
518,1.793091422467737676222804845896
519,1.793479926060030824362099845543
520,1.793867683097377711949676095393
521,1.794254696457203410080571504216
522,1.794640969000441616468514795409
523,1.795026503571661290175659683261
