Eigenstate,Potential Energy
1,0.500000000049630250640376138595161094
2,0.64623093797507516289337860893311516
3,0.73633761065658403002491596746542147
4,0.79966527979633183533419749356104661
5,0.8480465787190797417937807896182097
6,0.8870660021831349204318313976831207
7,0.9197208316283779818849307752056144
8,0.9477838534326641691324774368186083
9,0.9723835666028099323763445812178037
10,0.9942802252877349919198057705284184
11,1.0140093996287229008455972427848452
12,1.0319621849305890855168306643162785
13,1.0484327112592924653151749271096352
14,1.0636476762981083882821290857804753
15,1.0777854611618203978638731599810838
16,1.090988935267169688101455466949239
17,1.103374289794362394341588936198252
18,1.115037288693271125824900988803895
19,1.126057791787414076720297573253706
20,1.136503092407892568040599473459553
21,1.146430423475089047844804185839031
22,1.155888868657407847431142202991507
23,1.164920840307800315030547835842432
24,1.173563236864187347290464046018175
25,1.181848359645386074389378770794898
26,1.189804646658697844988981396806060
27,1.197457265562484251155393945394095
28,1.204828597025207120910931589725926
29,1.211938631927380582245532473331215
30,1.218805300203395731476826371666128
31,1.225444744974239937596011469097088
32,1.231871552544233228666799814453624
33,1.238098946525256401603744331720226
34,1.244138952601399230058618006789918
35,1.250002539107762079126317578377263
36,1.255699737563665356804119446024378
37,1.261239746496436683456912470913206
38,1.266631021261526917279603046500390
39,1.271881352066857524140951029577195
40,1.276997932013480996581282425598506
41,1.281987416647885752965114375134903
42,1.286855976266284346246126400664856
43,1.291609342004737466856354173369679
44,1.296252846580872208704999960309333
45,1.300791460415383498258216458130374
46,1.305229823748371304064712232748956
47,1.309572275272089631750485521416854
48,1.313822877724096945250198535701922
49,1.317985440820135111140061860236309
50,1.32206354185194124927904355638781
51,1.32606054422972991048894372002883
52,1.32997961421073778770126072695068
53,1.33382373602277304845022914716560
54,1.33759572556415024513323851945385
55,1.34129824283791626694619173739856
56,1.34493380325819822727480608539741
57,1.34850478794930521520259299241931
58,1.35201345314341865350447100042172
59,1.35546193876995205821875584980638
60,1.35885227631863648718748235181202
61,1.36218639604882373744976005868177
62,1.36546613360919834625896602460044
63,1.36869323612484756147346046075432
64,1.37186936780232596714811921810137
65,1.37499611509781661018088751861600
66,1.37807499148864313481406712785661
67,1.38110744188412514046406276217863
68,1.38409484670801281754451261086988
69,1.38703852568142424522080991639941
70,1.38993974133228046676960522232829
71,1.39279970225463475448592292621053
72,1.39561956613899423370014596936156
73,1.39840044259267902906387628727568
74,1.40114339576744524771046358403265
75,1.40384944680996701279310647234974
76,1.40651957614932320414783901082087
77,1.40915472563433216441071589683190
78,1.41175580053241183073807804263495
79,1.41432367140059593228651876328018
80,1.41685917583839876796449910426059
81,1.41936312013137173749109994016320
82,1.42183628079343334824359824126557
83,1.42427940601536568658591357408184
84,1.42669321702624605065377218813216
85,1.42907840937402316539870128288198
86,1.43143565413093153530351054696408
87,1.43376559902898001938215612413760
88,1.43606886953032733534100078900140
89,1.43834606983697369761696796776464
90,1.44059778384385457727883858164595
91,1.44282457603910111972720688519521
92,1.44502699235494345858936785599994
93,1.44720556097247090914988671777980
94,1.44936079308322009591937092676044
95,1.45149318361034091491504860649959
96,1.45360321189188840911015057596383
97,1.45569134232860429339976553525469
98,1.45775802499837899113572504771948
99,1.45980369623943157209440607613845
100,1.46182877920409864132486037999694
101,1.46383368438499392417048961110265
102,1.46581881011517471803627943758035
103,1.46778454304384346786065775407117
104,1.46973125858900545754098459699323
105,1.47165932136841053580429537603780
106,1.47356908561001603077162023397072
107,1.47546089554312992550865462573801
108,1.47733508577131412730108797590519
109,1.47919198162805906985903014599238
110,1.48103189951617846752964516766388
111,1.48285514723180717939873170798561
112,1.48466202427383570752855699093923
113,1.48645282213955931778515292693176
114,1.48822782460727101395203935252575
115,1.48998730800648714732460948644360
116,1.49173154147644611233147059082840
117,1.49346078721348886572214711246897
118,1.49517530070788897575495364876103
119,1.49687533097066619410273917126343
120,1.49856112075089170095923757855184
121,1.50023290674395490658432435033121
122,1.50189091979124277939403236708893
123,1.50353538507165047776908137474622
124,1.50516652228532438294692959889702
125,1.50678454583000906409955566316981
126,1.50838966497035450940139669034185
127,1.50998208400051937900563234460273
128,1.51156200240038344865723655661080
129,1.51312961498567033943281907573273
130,1.51468511205226324723049852386139
131,1.51622867951498098151459522947208
132,1.51776049904106664561969703922371
133,1.51928074817862950933383464591997
134,1.52078960048026934852281327950536
135,1.52228722562209441821455218544954
136,1.52377378951834053803190392013956
137,1.52524945443178546091957448955994
138,1.52671437908013908411933640456039
139,1.52816871873858795544291797188331
140,1.52961262533865708192315656283866
141,1.53104624756354749043444335530341
142,1.53246973094009991660627851800248
143,1.53388321792752634818458331415680
144,1.53528684800304396935854081402708
145,1.53668075774454186481138554992341
146,1.53806508091040297350316763059289
147,1.53943994851659557922715375120753
148,1.54080548891114966694836473070476
149,1.54216182784611994585869772479959
150,1.54350908854713918000542384090046
151,1.54484739178065774072705674346357
152,1.54617685591895968004479481684613
153,1.54749759700304427468219631509703
154,1.54880972880345693993306721754841
155,1.55011336287914774934821895566169
156,1.55140860863443542658177952156171
157,1.55269557337414785597720938988206
158,1.55397436235701092997156893099256
159,1.5552450788473494061278594360678
160,1.5565078241651661113102288996486
161,1.5577626977346579890977487040722
162,1.5590097971312284515131313152931
163,1.5602492181270508883404011007601
164,1.5614810547352379706019503514882
165,1.5627053992526653483874330056652
166,1.5639223423015002585984119660247
167,1.5651319728694822749032788865077
168,1.5663343783489988887915536224553
169,1.5675296445750009837929156789388
170,1.5687178558617979459526260694197
171,1.5698990950387726049989981684758
172,1.5710734434850538728365921659615
173,1.5722409811631824816712742359606
174,1.5734017866518056652567629245044
175,1.5745559371774347681712504085544
176,1.5757035086452954894525193831959
177,1.5768445756693040211048073259654
178,1.5779792116011982358493209424818
179,1.5791074885588503690399295534881
180,1.5802294774537921411191082262142
181,1.5813452480179749691756873625598
182,1.5824548688297929629661419150785
183,1.5835584073393917546490388859969
184,1.5846559298932874037447964272603
185,1.5857475017583171854200797358938
186,1.5868331871449432306918183580920
187,1.5879130492299328190247355506302
188,1.5889871501784307596121860558466
189,1.5900555511654475924041427358508
190,1.5911183123967792599327662258707
191,1.5921754931293774724597585620368
192,1.5932271516911871486206968287658
193,1.5942733455004692353853053632115
194,1.5953141310846222480875184924413
195,1.5963495640985204628541947495995
196,1.5973796993423824533024159948127
197,1.5984045907791843467958478353919
198,1.5994242915516319622084886498847
199,1.6004388539987046630190129673143
200,1.6014483296717848659038489305226
201,1.6024527693503841812154073675422
202,1.6034522230574795614648821749873
203,1.6044467400744701124987542460160
204,1.6054363689557661822389812959502
205,1.6064211575430206923064018328988
206,1.6074011529790157312327222080133
207,1.6083764017212102798944246938355
208,1.6093469495549632905816718038396
209,1.6103128416064378625381348674257
210,1.6112741223551980095792561155404
211,1.6122308356465053787537168954980
212,1.6131830247033261471792666953293
213,1.6141307321380524749494680977957
214,1.6150739999639534898036340839540
215,1.6160128696063550097938802690911
216,1.6169473819135619584089002048981
217,1.6178775771675274311987255029345
218,1.6188034950942773863534162853442
219,1.6197251748740942321735410857797
220,1.6206426551514718195625449277746
221,1.6215559740448397418337215248489
222,1.6224651691560741391990861149697
223,1.6233702775797885687742982367734
224,1.6242713359124199994000119176281
225,1.6251683802611124878249027572338
226,1.6260614462524020741934923861983
227,1.6269505690407115396878457534191
228,1.6278357833166568365255423813746
229,1.6287171233151723424594079831140
230,1.6295946228234596260186678858043
231,1.6304683151887615117568519597858
232,1.6313382333259718544219745431855
233,1.6322044097250760075489544403790
234,1.6330668764584381325346733927612
235,1.6339256651879285192909163000285
236,1.6347808071719006172384032725600
237,1.6356323332720213967638209340755
238,1.6364802739599567721454056384446
239,1.6373246593239175215215147166754
240,1.6381655190750678573135580668682
241,1.6390028825538009284452099265671
242,1.6398367787358841103013813033763
243,1.6406672362384781131941468098890
244,1.6414942833260315975634821075544
245,1.6423179479160556690177095026054
246,1.6431382575847807717732142509486
247,1.6439552395726973622716457908803
248,1.6447689207899879435218550799742
249,1.6455793278218454286744393149038
250,1.6463864869336882179423743614186
251,1.6471904240762698882877803510134
252,1.6479911648906862937824167183697
253,1.6487887347132851482533917040743
254,1.6495831585804777464796203584252
255,1.6503744612334567033767363668017
256,1.6511626671228197959459906933497
257,1.6519478004131062987404104016414
258,1.6527298849872422569158542950377
259,1.6535089444509014997267123749026
260,1.6542850021367827801802179421396
261,1.6550580811088033539159919904481
262,1.6558282041662137220527017611836
263,1.6565953938476323878983028823111
264,1.6573596724350060776924899492601
265,1.6581210619574939499237932583682
266,1.6588795841952779602688266280225
267,1.6596352606833025947016849228406
268,1.6603881127149440037881085438637
269,1.6611381613456128073791832716248
270,1.6618854273962862931452022333930
271,1.6626299314569792922024261939453
272,1.6633716938901477106928878276371
273,1.6641107348340321597284224032289
274,1.6648470742059388920131536224022
275,1.6655807317054619200200388316980
276,1.6663117268176445933718777381637
277,1.6670400788160881187366791183281
278,1.6677658067659987761831412190557
279,1.6684889295271853344616672659401
280,1.6692094657569987580788156139956
281,1.6699274339132220949899983996493
282,1.6706428522569080411811413522271
283,1.6713557388551673945877914005282
284,1.6720661115839055548899284100198
285,1.6727739881305138764461557460304
286,1.6734793859965118991154036223423
287,1.6741823225001455162615583301439
288,1.6748828147789374817205650093152
289,1.6755808797921949037984852024456
290,1.6762765343234744588324074267572
291,1.6769697949830031652593301028256
292,1.6776606782100576031051065406701
293,1.6783492002753054846726199679919
294,1.6790353772831046133513636630206
295,1.6797192251737613176970588076777
296,1.6804007597257559463504195921338
297,1.6810799965579253555247659232717
298,1.6817569511316117058221379202645
299,1.6824316387527743712401720075557
300,1.6831040745740667109812394697993
301,1.6837742735968781155073841237787
302,1.6844422506733434197794451540235
303,1.6851080205083168568159847978743
304,1.6857715976613141291084372398692
305,1.6864329965484240264258397882916
306,1.6870922314441888532364050682134
307,1.6877493164834508477277313933023
308,1.6884042656631720708824061138029
309,1.6890570928442238549034330611216
310,1.6897078117531461461647994333794
311,1.6903564359838803376203185315544
312,1.6910029789994731038332323181103
313,1.6916474541337526314059030442477
314,1.6922898745929790491143666845796
315,1.6929302534574683774230431555133
316,1.6935686036831913730529279289436
317,1.6942049381033448072415730865396
318,1.6948392694299005289728522034706
319,1.6954716102551294547720574175961
320,1.6961019730531004863591371560395
321,1.6967303701811582751285905786890
322,1.6973568138813759479236060651797
323,1.6979813162819863081778464425618
324,1.6986038893987904896020059105507
325,1.6992245451365458244332050568130
326,1.6998432952903311635105167161714
327,1.7004601515468924689710623427312
328,1.7010751254859658687997616389247
329,1.7016882285815831481307227794089
330,1.7022994722033561090061137089802
331,1.7029088676177412372092640948048
332,1.7035164259892857374374555210687
333,1.7041221583818553153934202802849
334,1.7047260757598418908439310413706
335,1.7053281889893555566027455972315
336,1.7059285088393968415160088498334
337,1.7065270459830121497221616029033
338,1.7071238109984334350657149434937
339,1.7077188143701981751993654881593
340,1.7083120664902557367441679021335
341,1.7089035776590558451138915343316
342,1.7094933580866216561834856096797
343,1.7100814178936070676213225023855
344,1.7106677671123382636241079028540
345,1.7112524156878413124207070371489
346,1.7118353734788532913733348163887
347,1.7124166502588205050683036124779
348,1.7129962557168806081552923724103
349,1.7135741994588321778951898826243
350,1.7141504910080892787943831528310
351,1.7147251398066231069657587066655
352,1.7152981552158903966209279285689
353,1.7158695465177478731115740717364
354,1.7164393229153541670363699285000
355,1.7170074935340595547397508437332
356,1.7175740674222817350342840888811
357,1.7181390535523708812347763477520
358,1.7187024608214632125577069277746
359,1.7192642980523188300765743026190
360,1.7198245739941527552073075485845
361,1.7203832973234509156472891222779
362,1.7209404766447775604250298758475
363,1.7214961204915686997321644026265
364,1.7220502373269165935898400885427
365,1.7226028355443435257792815722242
366,1.7231539234685637407670542532109
367,1.7237035093562364356995919401636
368,1.7242516013967065962615987763938
369,1.7247982077127383090101741857347
370,1.7253433363612362634284092504606
371,1.7258869953339582970769552968870
372,1.7264291925582179403945191623139
373,1.7269699358975769279357188623129
374,1.7275092331525319845993233268426
375,1.7280470920611865784928803104990
376,1.7285835202999190967263053647122
377,1.7291185254840392334239880486634
378,1.7296521151684357574460304059891
379,1.7301842968482174997026731964639
380,1.7307150779593443169090841754901
381,1.7312444658792509073011912625500
382,1.7317724679274605965678148398222
383,1.7322990913661937687489413925334
384,1.7328243434009659058883322673400
385,1.7333482311811788577875336423327
386,1.7338707618007060006032684704153
387,1.7343919422984670337183498195315
388,1.7349117796589963517786744152813
389,1.7354302808130056666749857327901
390,1.7359474526379380686731866359488
391,1.7364633019585138437293393570617
392,1.7369778355472716554656110954030
393,1.7374910601251025653925216866015
394,1.7380029823617754725760677570817
395,1.7385136088764568297247535539314
396,1.7390229462382242866691737825572
397,1.7395310009665738912463531101523
398,1.7400377795319208558346791262840
399,1.7405432883560924554364931676575
400,1.7410475338128173573811207372537
401,1.7415505222282074316795692962785
402,1.7420522598812327873645910602902
403,1.7425527530041928556740280691161
404,1.7430520077831814132854228976412
405,1.7435500303585430111728946259933
406,1.7440468268253269182429297394742
407,1.7445424032337356965972207722172
408,1.7450367655895659117466841801404
409,1.7455299198546438389846977481213
410,1.7460218719472586805328307275014
411,1.7465126277425875536149565407653
412,1.7470021930731158321875325064893
413,1.7474905737290539215281730225270
414,1.7479777754587468896747552077793
415,1.7484638039690812398238095296967
416,1.7489486649258852534731562197110
417,1.7494323639543257529480900410113
418,1.7499149066392984467062692718371
419,1.7503962985258161360916206099091
420,1.7508765451193897656221487178553
421,1.7513556518864062691619123611232
422,1.7518336242545024937485746677917
423,1.7523104676129330373897116255465
424,1.7527861873129356147287945282097
425,1.7532607886680903301167901738590
426,1.7537342769546764651166726697881
427,1.7542066574120242652519852515830
428,1.7546779352428617398797069974365
429,1.7551481156136603877638114132240
430,1.7556172036549727106542404319501
431,1.7560852044617690187232364129476
432,1.7565521230937706775767409381098
433,1.7570179645757751349453382925181
434,1.7574827338979838252010278361266
435,1.7579464360163207755896501262423
436,1.7584090758527498153866888026757
437,1.7588706582955885495686654611808
438,1.7593311881998180792907454809981
439,1.7597906703873891507052253630018
440,1.7602491096475258035684389835304
441,1.7607065107370236797295848688298
442,1.7611628783805465553900428976555
443,1.7616182172709207450766256900239
444,1.7620725320694219969532214737683
445,1.7625258274060642103869249472494
446,1.7629781078798810003794431003468
447,1.7634293780592072782996884404767
448,1.7638796424819540673936432679981
449,1.7643289056558843938504198839534
450,1.7647771720588824061501038123922
451,1.7652244461392232260775590213878
452,1.7656707323158363730409426863647
453,1.7661160349785685050695920943638
454,1.7665603584884418657442828378723
455,1.7670037071779120612439650344247
456,1.7674460853511204648249261160883
457,1.7678874972841459447650242118367
458,1.7683279472252523119990035288246
459,1.7687674393951340017049924717015
460,1.7692059779871596315322438551552
461,1.7696435671676112865430594436718
462,1.7700802110759227442775995082036
463,1.7705159138249152440782260636480
464,1.7709506795010289619503832795910
465,1.7713845121645541600763918955733
466,1.7718174158498591420662644041932
467,1.7722493945656142948582153236845
468,1.7726804522950172333121451482790
469,1.7731105929960115246067859596096
470,1.7735398206015065174001620926080
471,1.7739681390195925432904262119285
472,1.7743955521337557886261089620504
473,1.7748220638030881880181594472043
474,1.7752476778624998439996370686045
475,1.7756723981229228960572875074383
476,1.7760962283715193533152328638543
477,1.7765191723718832243512784420030
478,1.7769412338642416206316920251050
479,1.7773624165656537234530509021491
480,1.7777827241702080094879246618762
481,1.7782021603492162863371000289085
482,1.7786207287514081074121662883263
483,1.7790384330031209466953740848166
484,1.7794552767084889536901442831517
485,1.7798712634496317660111989932329
486,1.7802863967868379649903425486825
487,1.7807006802587500236785421607185
488,1.7811141173825453443341357817933
489,1.7815267116541166141243727577494
490,1.7819384665482493427124869271605
491,1.7823493855187987165830101148783
492,1.7827594719988643588684428341057
493,1.7831687294009629702750615427942
494,1.7835771611171999457545159713859
495,1.7839847705194381600287603457132
496,1.7843915609594671670281717752443
497,1.7847975357691684993994960130142
498,1.7852026982606810140037174141003
499,1.7856070517265637813942720102034
500,1.786010599439958650439873299471
501,1.786413344654748234805598406441
502,1.786815290605716777166542183190
503,1.787216440508705359987360521598
504,1.787616797560769307429429003056
505,1.788016364940330626590360612051
506,1.788415145807331218920523972678
507,1.788813143303384710615403975495
508,1.789210360551926542735124044129
509,1.789606800658360552752595706951
510,1.790002466710208101591545401281
511,1.790397361777252978084545155732
512,1.790791488911685981914331748321
513,1.791184851148247801670962763004
514,1.791577451504370865407605693998
515,1.791969292980320538937886914727
516,1.792360378559333883232299595263
517,1.792750711207757046706315245763
518,1.793140293875183078860726075894
519,1.793529129494586948327309020632
520,1.793917220982460623456678194228
521,1.794304571238945011846006262981
522,1.794691183147963036201673589780
523,1.795077059577350284924503477365
