Eigenstate,Potential Energy
1,0.500000000012342052861630241156237503
2,0.64623093773167711406472350423843277
3,0.73633760994162132668264238745973663
4,0.79966527830714452142674216538868350
5,0.8480465761394989510971396622857992
6,0.8870659981914561640511252349688759
7,0.9197208259002990836764845878245125
8,0.9477838456425106461592372626806937
9,0.9723835564241049265068248988008687
10,0.9942802123934886536558963767268105
11,1.0140093836915897039427403057879989
12,1.0319621656229578410057245113244302
13,1.0484326882533396966848237439755481
14,1.0636476492658306208048586967729276
15,1.0777854297750537270604375365517176
16,1.090988899197601357410902077349742
17,1.103374248713537174684242723771281
18,1.115037242272594208970704727665541
19,1.126057739698151566940872398134025
20,1.136503034321170279264847873546716
21,1.146430359061890079538731794121500
22,1.155888797588569263201914746891573
23,1.164920762254009150402510859672080
24,1.173563151495976107882293474138276
25,1.181848266633127841226618838295688
26,1.189804545672601072765284988335059
27,1.197457156272587323403224977898792
28,1.204828479101372710358966493491441
29,1.211938505039289853223413070402556
30,1.218805164020542412808145335351794
31,1.225444599165924288135333264815074
32,1.231871396779555912892133352025150
33,1.238098780473112289056981428704635
34,1.244138775930471129639184932846080
35,1.250002351486514417076950538186685
36,1.255699538660337805529677264599806
37,1.261239535979037746975471665304577
38,1.266630798797827478037134209297657
39,1.271881117324384355064742360070036
40,1.276997684659510241556303961760859
41,1.281987156349436378356481192693367
42,1.286855702690111565632390633412735
43,1.291609054817326140761736764752784
44,1.296252545448430220807628798776250
45,1.300791145003835109293139326732291
46,1.305229493723350484424936437549081
47,1.309571930298933373608707035356892
48,1.313822517467838554871725786784647
49,1.317985064945497481928848531838147
50,1.32206315002333011598953540922427
51,1.32606013611122708494324597095004
52,1.32997918946609437627146254525100
53,1.33382329431540265149725151821439
54,1.33759526655712213853445563057853
55,1.34129776619394856579299112014813
56,1.34493330863965103177684055909375
57,1.34850427501817373879684005276099
58,1.35201292156132633313324016661314
59,1.35546138819814364671123726967566
60,1.35885170641797112765320624470821
61,1.36218580647976801956926931232672
62,1.36546552403181934433645628284513
63,1.36869260619880585409801207314290
64,1.37186871718686863829389627029263
65,1.37499544345177023156202664579497
66,1.37807429847040672929699367234287
67,1.38110672715166312632814500025189
68,1.38409410991884793337130825488971
69,1.38703776649263045518235889919582
70,1.38993895940047584607761358812254
71,1.39279889723597435475530187740559
72,1.39561873768916292797324332208303
73,1.39839959036688433623464135753927
74,1.40114251942041013608163204435476
75,1.40384854599592268249346745448785
76,1.40651865052200184813130789598427
77,1.40915377484695970775368692734446
78,1.41175482423770064794675048220401
79,1.41432266925073754232128993651446
80,1.41685814748505650668433361988371
81,1.41936206522567340721653182490282
82,1.42183519898596384413320061189011
83,1.42427829695615959951732779336591
84,1.42669208036478024629677893099827
85,1.42907724475920933916432466759848
86,1.43143446121110874284988160019550
87,1.43376437745190718235449554900274
88,1.43606761894317572201997772458293
89,1.43834478988631937814663695600349
90,1.44059647417567085314229200400501
91,1.44282323629875092713509687672944
92,1.44502562218717174544360286073052
93,1.44720416002139698524187872121642
94,1.44935936099232995601941646832079
95,1.45149172002247953440655049805455
96,1.45360171644925201181974402631051
97,1.45568981467273259127142203003501
98,1.45775646477014739539445011673981
99,1.45980210307904337554210476295954
100,1.46182715275107717140845447225635
101,1.46383202427817466645948955495589
102,1.46581711599269740974433477670821
103,1.46778281454314416104298626796842
104,1.46972949534680855159656355128931
105,1.47165752302072077890925764112177
106,1.47356725179211048986736784523473
107,1.47545902588954992446545238552576
108,1.47733317991585715287523029744710
109,1.47919003920377064505868583616267
110,1.48102992015534399200181142156518
111,1.48285313056594373644686532369573
112,1.48465996993368383736757548029364
113,1.48645072975507475663763268013862
114,1.48822569380761639858647970006535
115,1.48998513842002368463382704198600
116,1.49172933273072521354612440541188
117,1.49345853893524374485143409761181
118,1.49517301252302621184357587917409
119,1.49687300250425725689016027866621
120,1.49855875162716443952408073489402
121,1.50023049658628500055385951925087
122,1.50188846822214515229543664166622
123,1.50353289171277067209599128539361
124,1.50516398675742989651172466069965
125,1.50678196775298064723843237402871
126,1.50838704396317742259612987467605
127,1.50997941968127461048259047249642
128,1.51155929438623889152078467676391
129,1.51312686289287192788708075859799
130,1.51468231549612605143982214753539
131,1.51622583810988026064979812439412
132,1.51775761240042885863331290320589
133,1.51927781591492328300470463286578
134,1.52078662220499640230612669694501
135,1.52228420094578044543006474611803
136,1.52377071805052604291969132468186
137,1.52524633578101655108845062490829
138,1.52671121285395821790980479547691
139,1.52816550454352464372237595683756
140,1.52960936278021854382746707023330
141,1.53104293624620926256603133606700
142,1.53246637046729641519497149362717
143,1.53387980790164138371349677717329
144,1.53528338802540121315313506249486
145,1.53667724741539526708606359887773
146,1.53806151982892713235532709693143
147,1.53943633628087606006462186198154
148,1.54080182511817327183197824867277
149,1.54215811209176493223729087038502
150,1.54350532042616542831662189090606
151,1.54484357088669687033222885770225
152,1.54617298184450511296278964080791
153,1.54749366933944124658151313494337
154,1.54880574714089245783792793768455
155,1.55010932680664049550923042785125
156,1.55140451773982560795712495181977
157,1.55269142724408699876601427008875
158,1.55397016057695161863588683886737
159,1.5552408210015349663352921180550
160,1.5565035098366202362240619366012
161,1.5577583265051743084366722120990
162,1.5590053685813600427975156766865
163,1.5602447318360997297374247724764
164,1.5614765102812443347762713103432
165,1.5627007962123971367591469075859
166,1.5639176802504422754048998048363
167,1.5651272513818254404562789326288
168,1.5663295969976293913150332357788
169,1.5675248029314893692225624275806
170,1.5687129534963881450715548812131
171,1.5698941315203708972793341154439
172,1.5710684183812177863506122855245
173,1.5722358940401096284302508885736
174,1.5733966370743225113298126168786
175,1.5745507247089853379306624580832
176,1.5756982328479300032862301385943
177,1.5768392361036674659306096825852
178,1.5779738078265188677594078380005
179,1.5791020201329281473983384442160
180,1.5802239439329870934281111247635
181,1.5813396489571954860214013960710
182,1.5824492037824840223468574236363
183,1.5835526758575230749835904291904
184,1.5846501315273415248516984428687
185,1.5857416360572774767514727715135
186,1.5868272536562818261000451562717
187,1.5879070474995984773319561988222
188,1.5889810797508366502472323859950
189,1.5900494115834590053635371681567
190,1.5911121032017012393159436552434
191,1.5921692138609423728215833221896
192,1.5932208018875421133768835198763
193,1.5942669246981635964995227263184
194,1.5953076388185948462612251231578
195,1.5963429999020868874330986415852
196,1.5973730627472222011057929113384
197,1.5983978813153278990673666659839
198,1.5994175087474477788796258535790
199,1.6004319973808860934679748346060
200,1.6014413987653369753854232524407
201,1.6024457636786104921291188587507
202,1.6034451421419687086202718826332
203,1.6044395834350824115291499530577
204,1.6054291361106201103061604295128
205,1.6064138480084792802306942734506
206,1.6073937662696728661741329925104
207,1.6083689373498769177021104228634
208,1.6093394070326535769202192860531
209,1.6103052204423551618902551651323
210,1.6112664220567208412156483593360
211,1.6122230557191732587519704694961
212,1.6131751646508253355641991374550
213,1.6141227914622016270181223445573
214,1.6150659781646892106890454311473
215,1.6160047661817173113119092851871
216,1.6169391963596796172228913799018
217,1.6178693089786032473273710106093
218,1.6187951437625733410366949945951
219,1.6197167398899165441020447210163
220,1.6206341360031558984655247134056
221,1.6215473702187350384104841047408
222,1.6224564801365288903685994890973
223,1.6233615028491344372069056227319
224,1.6242624749509566062848064421084
225,1.6251594325470918378152970626391
226,1.6260524112620128714629626868133
227,1.6269414462480633940167504754385
228,1.6278265721937643583283228201111
229,1.6287078233319391256508104283170
230,1.6295852334476621176057232108027
231,1.6304588358860327670319173183744
232,1.6313286635597851766205972040372
233,1.6321947489567284708239403676725
234,1.6330571241470339870861882712498
235,1.6339158207903624774800732613333
236,1.6347708701428410194994456186603
237,1.6356223030638932561174055531429
238,1.6364701500229246961031144291515
239,1.6373144411058685101587448454929
240,1.6381552060215939762746758248099
241,1.6389924741081818556320918648414
242,1.6398262743390695549834018619844
243,1.6406566353290701062630893454080
244,1.6414835853402666516446969999622
245,1.6423071522877868071336216756457
246,1.6431273637454594232420153180366
247,1.6439442469513551245098722683581
248,1.6447578288132182084046988948276
249,1.6455681359137848720934638479927
250,1.6463751945159981511854477075533
251,1.6471790305681174698508979341807
252,1.6479796697087256002083317657319
253,1.6487771372716381025764305854874
254,1.6495714582907149028403396813643
255,1.6503626575045778863546984038839
256,1.6511507593612345931427400132409
257,1.6519357880226144051286635378314
258,1.6527177673690136694546583892457
259,1.6534967210034565607257002629265
260,1.6542726722559720678791321246771
261,1.6550456441877874187288078948162
262,1.6558156595954426669083402484925
263,1.6565827410148252910928260505524
264,1.6573469107251302566493823137265
265,1.6581081907527440642413308917009
266,1.6588666028750549524156280034205
267,1.6596221686241924667026820523509
268,1.6603749092906964282246256164086
269,1.6611248459271195710082871785267
270,1.6618719993515595714239821308979
271,1.6626163901511297529834213368609
272,1.6633580386853624453375513922516
273,1.6640969650895524398653315814435
274,1.6648331892780377501474501556673
275,1.6655667309474215521807665336619
276,1.6662976095797335819619304894461
277,1.6670258444455384737303497378175
278,1.6677514546069827927940260013022
279,1.6684744589207922653828149186442
280,1.6691948760412112983746094071103
281,1.6699127244228926776974527480828
282,1.6706280223237349416555180709581
283,1.6713407878076706416050834943117
284,1.6720510387474026464954195711677
285,1.6727587928270952985146415373309
286,1.6734640675450164445657127221921
287,1.6741668802161354028431195400794
288,1.6748672479746732662659271458633
289,1.6755651877766101908109638342897
290,1.6762607164021504012528819132194
291,1.6769538504581427552310036541449
292,1.6776446063804597505288586538200
293,1.6783330004363388813206539337345
294,1.6790190487266813802783505746767
295,1.6797027671883104336640640105435
296,1.6803841715961964549468427744129
297,1.6810632775656393486479825912425
298,1.6817401005544170811456510222454
299,1.6824146558648973612733052781535
300,1.6830869586461141812941920690086
301,1.6837570238958096296665578478610
302,1.6844248664624430685087388702277
303,1.6850905010471648488696461201188
304,1.6857539422057581413103803416502
305,1.6864152043505503102998578747981
306,1.6870743017522930956208705187361
307,1.6877312485420087827360766386165
308,1.6883860587128098405390034263549
309,1.6890387461216881157517022225069
310,1.6896893244912739191118589572333
311,1.6903378074115685982485224658354
312,1.6909842083416481103749086553169
313,1.6916285406113389875438101703250
314,1.6922708174228684987352199090993
315,1.6929110518524883284154625907589
316,1.6935492568520731472062074961353
317,1.6941854452506916132645822385856
318,1.6948196297561551556155522967966
319,1.6954518229565416809948129783490
320,1.6960820373216942054567677436602
321,1.6967102852046983296781198664934
322,1.6973365788433346723840895477434
323,1.6979609303615097759329372739856
324,1.6985833517706644611942052601142
325,1.6992038549711613936982071501602
326,1.6998224517536500982790614035745
327,1.7004391538004122429632998211973
328,1.7010539726866843812944231928915
329,1.7016669198819631279481786026849
330,1.7022780067512891993005732919953
331,1.7028872445565117575208434975745
332,1.7034946444575341194094230577732
333,1.7041002175135412085141812784026
334,1.7047039746842069345265708141676
335,1.7053059268308858148682059422999
336,1.7059060847177848964973143353759
337,1.7065044590131188501589113047010
338,1.7071010602902492959085367991148
339,1.7076958990288044243943208214782
340,1.7082889856157850052153540811904
341,1.7088803303466524959115878013892
342,1.7094699434264017487124684870334
343,1.7100578349706179528111189658180
344,1.7106440150065178058484892091530
345,1.7112284934739767339194866511898
346,1.7118112802265396348733459567035
347,1.7123923850324187102443542222735
348,1.7129718175754751975144884113944
349,1.7135495874561885476100561544575
350,1.7141257041926105899502904911511
351,1.7147001772213067726294707212736
352,1.7152730158982841600752958694923
353,1.7158442294999054725395850639442
354,1.7164138272237905818757065479079
355,1.7169818181897058288646948063096
356,1.7175482114404393718569927391459
357,1.7181130159426658057530285843036
358,1.7186762405877992953084828852121
359,1.7192378941928309678881152160187
360,1.7197979855011595035724982585446
361,1.7203565231834066674722278586487
362,1.7209135158382242658353170905057
363,1.7214689719930871215471011835099
364,1.7220229001050770930026012222864
365,1.7225753085616563727051601223239
366,1.7231262056814289432478547275070
367,1.7236755997148930826751823970170
368,1.7242234988451817079412935450858
369,1.7247699111887951889979771785063
370,1.7253148447963223466755952485966
371,1.7258583076531524876542012609791
372,1.7264003076801774329924503932238
373,1.7269408527344835069184072790661
374,1.7274799506100377943504087167468
375,1.7280176090383593587064196830251
376,1.7285538356891868762064165984590
377,1.7290886381711344758670579998372
378,1.7296220240323389525891862638369
379,1.7301540007611001931284731802605
380,1.7306845757865115717029606214876
381,1.7312137564790831906618973357642
382,1.7317415501513550843747393470509
383,1.7322679640585050609902569564054
384,1.7327930053989461457551878536880
385,1.7333166813149172471351656228896
386,1.7338389988930677043786736304823
387,1.7343599651650314658473577490036
388,1.7348795871079948348977647235437
389,1.7353978716452584579861808550106
390,1.7359148256467907440874370027265
391,1.7364304559297730323532156448877
392,1.7369447692591401163703856314874
393,1.7374577723481135984894907771422
394,1.7379694718587266553032102739411
395,1.7384798744023430711300581507275
396,1.7389889865401701903531267777048
397,1.7394968147837654185038442958736
398,1.7400033655955362802069840779305
399,1.7405086453892325997594787774216
400,1.7410126605304351042821598483186
401,1.7415154173370364983449998959024
402,1.7420169220797157552634948288704
403,1.7425171809824084457867661032187
404,1.7430162002227709972477592032008
405,1.7435139859326363486014326053186
406,1.7440105441984671103657561694698
407,1.7445058810618033461661037037499
408,1.7450000025197024790573472758366
409,1.7454929145251741836805752043348
410,1.7459846229876127787131716182405
411,1.7464751337732213796099412795076
412,1.7469644527054313942045735142240
413,1.7474525855653184402110017413697
414,1.7479395380920111084496308613836
415,1.7484253159830968557409543331438
416,1.7489099248950214570791454759154
417,1.7493933704434848655521267652967
418,1.7498756582038306432238558428995
419,1.7503567937114332414701769582594
420,1.7508367824620781126696099719445
421,1.7513156299123386054121585619374
422,1.7517933414799489248079365392103
423,1.7522699225441709940149293878136
424,1.7527453784461588306894142507523
425,1.7532197144893168176978596887950
426,1.7536929359396554749088001457442
427,1.7541650480261422166725609414137
428,1.7546360559410471086543184630320
429,1.7551059648402875363856840331431
430,1.7555747798437646476174271533860
431,1.7560425060356990721042270731769
432,1.7565091484649630683120015163248
433,1.7569747121454044349205338850760
434,1.7574392020561732850339589377592
435,1.7579026231420395067485299510522
436,1.7583649803137088110419928732734
437,1.7588262784481355283287223036401
438,1.7592865223888311357180711661623
439,1.7597457169461691962536264297627
440,1.7602038668976877813193816044228
441,1.7606609769883865360378172054358
442,1.7611170519310219512779556957685
443,1.7615720964064004899398932178013
444,1.7620261150636641868575853913910
445,1.7624791125205780529488887066917
446,1.7629310933638103079315887170710
447,1.7633820621492126107435978799940
448,1.7638320234020935058369910392130
449,1.7642809816174929258192595055966
450,1.7647289412604499028503070702988
451,1.7651759067662709918569709178330
452,1.7656218825407922468798036897848
453,1.7660668729606404935903676744715
454,1.7665108823734902868937277565162
455,1.7669539150983201774535948236107
456,1.7673959754256635841042477554571
457,1.7678370676178589678205041288067
458,1.7682771959092957031060439469863
459,1.7687163645066581606885691504322
460,1.7691545775891676438274709531608
461,1.7695918393088200279216162532568
462,1.7700281537906223164294664061874
463,1.7704635251328267168343792787714
464,1.7708979574071603975219300940911
465,1.7713314546590548942657917724186
466,1.7717640209078722969789949958144
467,1.7721956601471274972070607526791
468,1.7726263763447115119628612007498
469,1.7730561734431083605593757713037
470,1.7734850553596130189393419952363
471,1.7739130259865447185666685492833
472,1.7743400891914598874490109683159
473,1.7747662488173600841508649421986
474,1.7751915086829024287473349277115
475,1.7756158725826014534295509465212
476,1.7760393442870348865221268338213
477,1.7764619275430437028640909326783
478,1.7768836260739311164955551309807
479,1.7773044435796594049873415278569
480,1.7777243837370449599471885964368
481,1.7781434501999501145290331310461
482,1.7785616465994753166830417901677
483,1.7789789765441470280935593136824
484,1.7793954436201041685085463362240
485,1.7798110513912845822848688971845
486,1.7802258033996061118897277677223
487,1.7806397031651491270864346510374
488,1.7810527541863351062364404470057
489,1.7814649599401044977611008804944
490,1.7818763238820917247508377330533
491,1.7822868494467994668641875251073
492,1.7826965400477708075608511905690
493,1.7831053990777592215325877260998
494,1.7835134299088974962245998096695
495,1.7839206358928637797932186680787
496,1.7843270203610479997685458217937
497,1.7847325866247143377883749743815
498,1.7851373379751637054987908709902
499,1.7855412776838937187829445304832
500,1.785944409002758300627096651342
501,1.786346735164122658468898121803
502,1.786748259381021091012670656214
503,1.787148984847309092436477307496
504,1.787548914737817597624693494635
505,1.787948052208502215682658235968
506,1.788346400396593181608737252553
507,1.788743962420743873934210680911
508,1.789140741381177538070034941634
509,1.789536740359830446025656404898
510,1.789931962420497545509025391582
511,1.790326410608973829252978843421
512,1.790720087953195324531085433644
513,1.791112997463378318365657955384
514,1.791505142132157494656516780706
515,1.791896524934723357293965706400
516,1.792287148828957149410053086955
517,1.792677016755564343323944478074
518,1.793066131638208486384500235942
519,1.793454496383642184471487125501
520,1.793842113881838079976085984598
521,1.794228987006116619307038643954
522,1.794615118613274885941051786436
523,1.795000511543712935992293626017
