Eigenstate,Potential Energy
1,0.500000000014918617045806586398587926
2,0.64623093774849555236898698662843816
3,0.73633760999102399554806265360273609
4,0.79966527841004424997956082063201208
5,0.8480465763177414779080784598649676
6,0.8870659984672690084863391334847823
7,0.9197208262960883531260122528839735
8,0.9477838461807761783416324924588783
9,0.9723835571274007222515294574877834
10,0.9942802132844026950119018217102351
11,1.0140093847927328979481781600902514
12,1.0319621669569576136934762546281095
13,1.0484326898428361186332235891033947
14,1.0636476511334739895365399549531716
15,1.0777854319435030282707048508870608
16,1.090988901689523278174931215189948
17,1.103374251551605475661741998983236
18,1.115037245479489337306302311621240
19,1.126057743296560434912931366352349
20,1.136503038333786159803171889988660
21,1.146430363511412585900421958182696
22,1.155888802497704390405408795649121
23,1.164920767645469362760426665793643
24,1.173563157392480461480094676807051
25,1.181848273057402133268565791382650
26,1.189804552647378011845643647476176
27,1.197457163820606716270618383533142
28,1.204828487245381661825396845133899
29,1.211938513802042976658295605065274
30,1.218805173424802049239434468768611
31,1.225444609234460732414060328772472
32,1.231871407535147645704457495771003
33,1.238098791938546213817867369149907
34,1.244138788128542813494372336751854
35,1.250002364440028335389524380941488
36,1.255699552392107589344832117267295
37,1.261239550511886433049724395216904
38,1.266630814154587761091988807562883
39,1.271881133527898841983920894404459
40,1.276997701732631707293357197779969
41,1.281987174315028023358311723429960
42,1.286855721571047274615850859620058
43,1.291609074636490742706439386215681
44,1.296252566228719750049550085939020
45,1.300791166768157067621394232974644
46,1.305229516494624104098944510341584
47,1.309571954100089881225395565154085
48,1.313822542321821436022875074103302
49,1.317985090875262746597516420411833
50,1.32206317705184656464199096310639
51,1.32606016426147657527922214648886
52,1.32997921876107209060098624953006
53,1.33382332477811736471698393979100
54,1.33759529821059648668049538641218
55,1.34129779906121931515056804104575
56,1.34493334274376934853032736538808
57,1.34850431038220545920612114533477
58,1.35201295820835223422475460306211
59,1.35546142615125971747399086455181
60,1.35885174570028884073179132417173
61,1.36218584711441460344745580827377
62,1.36546556604193805600626660629696
63,1.36869264960755625221037364578250
64,1.37186876201742685678801698283320
65,1.37499548972732925377157330717055
66,1.37807434621417666253197891671994
67,1.38110677638687147693216281048320
68,1.38409416066873988225442271564613
69,1.38703781878046913383054187237920
70,1.38993901324954261304014581071655
71,1.39279895266956907261204292143972
72,1.39561879473060424078408780759730
73,1.39839964903950994747388239304482
74,1.40114257974757708706028983289519
75,1.40384860800100763127297036477307
76,1.40651871422840134893218925280518
77,1.40915384027809049086323426692360
78,1.41175489141699990012978141328537
79,1.41432273820166318773844803647888
80,1.41685821823108748832249324625828
81,1.41936213779030996883609833026185
82,1.42183527339272781273725325343230
83,1.42427837322859466834771289988436
84,1.42669215852645225836240516248086
85,1.42907732483370657130704744458029
86,1.43143454322204219035349279049572
87,1.43376446142291084410244824182384
88,1.43606770489790688620758327412626
89,1.43834487784845890855357711087481
90,1.44059656416892347597138667867254
91,1.44282332834684551842335203588872
92,1.44502571631386161905165109726955
93,1.44720425625046018142800849064146
94,1.44935945934756953060445991331391
95,1.45149182052772384853597044468796
96,1.45360181912835502232932775672019
97,1.45568991954957414166307046373436
98,1.45775657186863350742858471203206
99,1.45980221242310654145331241151497
100,1.46182726436467664675101413898220
101,1.46383213818529676358950040363030
102,1.46581723221735579194521737673025
103,1.46778293310938013730116846386586
104,1.46972961627869137203423745331647
105,1.47165764634234793088111644206808
106,1.47356737752760799472829930557038
107,1.47545915406307263501620220355362
108,1.47733331055158905149309524273381
109,1.47919017232592514252035112003874
110,1.48103005578816422700547708550932
111,1.48285326873370287584086176475565
112,1.48466011066068537709270030362659
113,1.48645087306565282339049256911074
114,1.48822583972613605221115725369907
115,1.48998528697088122124923687695018
116,1.49172948393834846941646021558208
117,1.49345869282409240100714725122515
118,1.49517316911759209946037833995008
119,1.49687316182906466343356612568439
120,1.49855891370677041566705113576664
121,1.50023066144527966787516252420592
122,1.50188863588515201176635355695605
123,1.50353306220444691336305444116850
124,1.50516416010246670798320941968677
125,1.50678214397610352698236215357053
126,1.50838722308914649005758555720663
127,1.50997960173488491902817463913635
128,1.51155947939232074181810994559474
129,1.51312705087629118212719967317819
130,1.51468250648178444841055213298214
131,1.51622603212271573166793923990433
132,1.51775780946541584434379629905857
133,1.51927801605707305105473368641446
134,1.52078682544935736590243609744109
135,1.52228440731743848278745431057343
136,1.52377092757460481760901097210329
137,1.52524654848267783329228804400400
138,1.52671142875840220659414221709773
139,1.52816572367599028973253468455813
140,1.52960958516598387391669790632287
141,1.53104316191059170436514197730288
142,1.53246659943565312313143634249641
143,1.53388004019936956588853023113556
144,1.53528362367793845918525231419223
145,1.53667748644821987692968431231798
146,1.53806176226755844610304568442823
147,1.53943658215087478874178625839553
148,1.54080207444514182919226955582659
149,1.54215836490134776756805416751694
150,1.54350557674404936026271071583661
151,1.54484383073861142174720492064112
152,1.54617324525622284679634811041826
153,1.54749393633677810281203476288789
154,1.54880601774970809145913424240994
155,1.55010960105283861557993917099070
156,1.55140479564935431772316439919213
157,1.55269170884293913686338638946409
158,1.55397044589116510138433437507783
159,1.5552411100571931311314553129582
160,1.5565038026598521860434690341093
161,1.5577586231221552574538327404471
162,1.5590056690183116631334953213747
163,1.5602450361192904993442533777510
164,1.5614768184369898864675973488850
165,1.5627011082670606083966845768341
166,1.5639179962304346612501552916130
167,1.5651275713136059436971293524611
168,1.5663299209077057777768408185531
169,1.5675251308464183222734694116622
170,1.5687132854427756217317112068103
171,1.5698944675248724855438391098172
172,1.5710687584705390637360307824781
173,1.5722362382410065217545777083993
174,1.5733969854136016577358337447026
175,1.5745510772135044471627365495156
176,1.5756985895445982212305254579295
177,1.5768395970194457394289183666395
178,1.5779741729884203107067008898983
179,1.5791023895680184081342808036972
180,1.5802243176683847234328317875373
181,1.5813400270200723099258306009422
182,1.5824495862000655092680309338270
183,1.5835530626570887111953873976094
184,1.5846505227362251878015028082605
185,1.5857420317028678104333388798718
186,1.5868276537660226177949862850957
187,1.5879074521009890357260460293653
188,1.5889814888714321849382603623496
189,1.5900498252508710077670435340885
190,1.5911125214435978649814845273342
191,1.5921696367050488251701635885471
192,1.5932212293616410288705606051759
193,1.5942673568300954312542202263660
194,1.5953080756362582641138984646710
195,1.5963434414334391494744145773220
196,1.5973735090202795566895942004217
197,1.5983983323581659783082219545488
198,1.5994179645882019866498498636752
199,1.6004324580477520049055633281945
200,1.6014418642865707329244297407081
201,1.6024462340825292040640229488662
202,1.6034456174569508492160290710238
203,1.6044400636895682226886135240923
204,1.6054296213331120048066813529590
205,1.6064143382275422465417377470577
206,1.6073942615139348748678437361801
207,1.6083694376480293294688508393599
208,1.6093399124134515522011152967483
209,1.6103057309346180721389238577991
210,1.6112669376893326818013061799036
211,1.6122235765210830635162231174155
212,1.6131756906510475930438613033409
213,1.6141233226898166983465284935811
214,1.6150665146488437491883581002262
215,1.6160053079516246837890164938006
216,1.6169397434446203269815548705012
217,1.6178698614079253589093836004287
218,1.6187957015656929067048704527391
219,1.6197173030963180320779248430872
220,1.6206347046423926229348246376089
221,1.6215479443204295913093002799147
222,1.6224570597303735749635482857624
223,1.6233620879648917034824167332979
224,1.6242630656184594881508583533807
225,1.6251600287962443921490245958725
226,1.6260530131227906189975952624930
227,1.6269420537505137620914216518412
228,1.6278271853680071255124273168134
229,1.6287084422081668682566271265521
230,1.6295858580561406581031294233473
231,1.6304594662571016243790881814581
232,1.6313292997238580185246996719753
233,1.6321953909442935679458922429149
234,1.6330577719886546692036813783773
235,1.6339164745166775916231029784383
236,1.6347715297845653900726935670957
237,1.6356229686518181470239669734836
238,1.6364708215879182748840615649360
239,1.6373151186788763141631938448552
240,1.6381558896336393808750931591502
241,1.6389931637903665444996296110067
242,1.6398269701225739924382137624031
243,1.6406573372451540117146468223256
244,1.6414842934202694761372183214510
245,1.6423078665631282120118092380760
246,1.6431280842476397609524544153735
247,1.6439449737119559215534822590908
248,1.6447585618639026504557691785872
249,1.6455688752862982913008708740685
250,1.6463759402421685156717980780140
251,1.6471797826798558754254433862183
252,1.6479804282380267643095417923344
253,1.6487779022505808604602846069752
254,1.6495722297514627060305110611931
255,1.6503634354793793033708290906314
256,1.6511515438824238125232109301315
257,1.6519365791226117407643294966220
258,1.6527185650803260682500965829193
259,1.6534975253586781126047027628476
260,1.6542734832877845181512304509445
261,1.6550464619289606828337564034585
262,1.6558164840788353475555915077405
263,1.6565835722733851978131454721831
264,1.6573477487918949277758615883329
265,1.6581090356608412913372174722094
266,1.6588674546577033071664230177900
267,1.6596230273147018302901595016237
268,1.6603757749224685232005270015103
269,1.6611257185336484956855230623620
270,1.6618728789664323368033522003845
271,1.6626172768080268222339492354325
272,1.6633589324180582758486758926805
273,1.6640978659319160278893316699298
274,1.6648340972640331780505670962228
275,1.6655676461111085383216396220609
276,1.6662985319552680332161270692990
277,1.6670267740671730406798270440548
278,1.6677523915090674276005491118537
279,1.6684754031377747823644644688454
280,1.6691958276076379373046801102871
281,1.6699136833734086698451119312342
282,1.6706289886930850785878053570114
283,1.6713417616306998467699059638649
284,1.6720520200590565496053840377086
285,1.6727597816624208127516866996082
286,1.6734650639391623466266133337817
287,1.6741678842043529158461588159630
288,1.6748682595923166455390894648707
289,1.6755662070591373125821728143217
290,1.6762617433851233542629850838987
291,1.6769548851772284352903327944743
292,1.6776456488714304580383294441055
293,1.6783340507350729217785165417949
294,1.6790201068691636677939109234388
295,1.6797038332106330974997474019159
296,1.6803852455345594491102195420845
297,1.6810643594563510645554974057349
298,1.6817411904338949633799263283765
299,1.6824157537696685264560778710079
300,1.6830880646128160400971061873836
301,1.6837581379611905119821817416252
302,1.6844259886633628518043419544472
303,1.6850916314205955897464106044354
304,1.6857550807887847102909417757367
305,1.6864163511803710298672161022227
306,1.6870754568662203815318068390867
307,1.6877324119774697886325126815571
308,1.6883872305073471058808034299780
309,1.6890399263129602170946369610837
310,1.6896905131170561247546136352364
311,1.6903390045097535262728081170009
312,1.6909854139502463901029351961085
313,1.6916297547684799244375177696969
314,1.6922720401668007427618454574865
315,1.6929122832215805459042778620898
316,1.6935504968848146962213389091794
317,1.6941866939856932225190578359206
318,1.6948208872321496069519337944457
319,1.6954530892123844954579698707984
320,1.6960833123963643329844302198631
321,1.6967115691372988424351706987998
322,1.6973378716730934617666712733356
323,1.6979622321277802532686418920517
324,1.6985846625129262621648858326011
325,1.6992051747290210865120725797503
326,1.6998237805668418956189462208335
327,1.7004404917087987177382167835608
328,1.7010553197302571862216813677977
329,1.7016682761008437189935364544911
330,1.7022793721857295630042485998743
331,1.7028886192468951422371703425275
332,1.7034960284443757704883154271672
333,1.7041016108374891074528097865622
334,1.7047053773860425421197708434881
335,1.7053073389515248183863617607289
336,1.7059075062982779609208050195615
337,1.7065058900946523734982656957738
338,1.7071025009141461686397419526361
339,1.7076973492365247930389947532050
340,1.7082904454489270400956001333751
341,1.7088817998469531631097474553601
342,1.7094714226357375862660899270132
343,1.7100593239310058511736813222415
344,1.7106455137601157926467948497724
345,1.7112300020630847630386971944584
346,1.7118127986936003799010408679797
347,1.7123939134200183623051048201080
348,1.7129733559263442675267396944482
349,1.7135511358132026729974113514403
350,1.7141272625987913458394002561796
351,1.7147017457198224875670784117527
352,1.7152745945324507362973280489004
353,1.7158458183131872108251826399910
354,1.7164154262598010110195896014247
355,1.7169834274922085398014124265690
356,1.7175498310533488564708834577717
357,1.7181146459100483004079674034648
358,1.7186778809538736291317830291846
359,1.7192395450019694158432315533556
360,1.7197996467978886443554098197780
361,1.7203581950124082462666465822377
362,1.7209151982443360619623369646685
363,1.7214706650213038210447397583434
364,1.7220246038005511661715418814039
365,1.7225770229696989566568008983628
366,1.7231279308475107294913986171570
367,1.7236773356846452097804668789101
368,1.7242252456643966593147800806242
369,1.7247716689034276958091466663611
370,1.7253166134524902959716360826873
371,1.7258600872971378357010694866681
372,1.7264020983584271238806281515781
373,1.7269426544936103964720707554078
374,1.7274817634968215793789757732052
375,1.7280194330997475116378293692737
376,1.7285556709722955851417418933808
377,1.7290904847232495900963897357020
378,1.7296238819009169336090522602091
379,1.7301558699937690712013522672331
380,1.7306864564310719079998860880668
381,1.7312156485835090450293146858972
382,1.7317434537637949887673080179619
383,1.7322698792272829986113713937340
384,1.7327949321725625359475797772132
385,1.7333186197420499360641970975019
386,1.7338409490225729615511915214387
387,1.7343619270459449865094749846061
388,1.7348815607895327483552591817098
389,1.7353998571768183418913665696427
390,1.7359168230779526447370941187601
391,1.7364324653103004910420999558592
392,1.7369467906389812018456030078725
393,1.7374598057774019455510650895174
394,1.7379715173877825095967872852044
395,1.7384819320816743401779594016058
396,1.7389910564204735008702637940042
397,1.7394988969159271800456090878553
398,1.7400054600306337551964192427511
399,1.7405107521785349799415080190393
400,1.7410147797254045936530757645756
401,1.7415175489893294026057153985507
402,1.7420190662411835778455904588299
403,1.7425193377050989905006768168274
404,1.7430183695589294776028641411129
405,1.7435161679347065038483010109791
406,1.7440127389190923283111709561295
407,1.7445080885538277928118288194532
408,1.7450022228361722351141893256430
409,1.7454951477193383880096731150964
410,1.7459868691129247787467053672693
411,1.7464773928833398888041742642594
412,1.7469667248542216565784670492913
413,1.7474548708068534020238511163269
414,1.7479418364805725970722227738041
415,1.7484276275731767657744428576447
416,1.7489122497413229437768990058383
417,1.7493957086009235456000939814966
418,1.7498780097275358029352050982804
419,1.7503591586567490524509069231725
420,1.7508391608845648550118944647967
421,1.7513180218677738984729180910052
422,1.7517957470243289656305260799853
423,1.7522723417337118034523964191942
424,1.7527478113372975072880671893011
425,1.7532221611387127994007250505607
426,1.7536953964041918086388002611841
427,1.7541675223629268358557584484482
428,1.7546385442074141187443060197414
429,1.7551084670937985084505520045773
430,1.7555772961422099200512039736830
431,1.7560450364370990605254472069762
432,1.7565116930275695837123256703551
433,1.7569772709277020101271705455970
434,1.7574417751168805095500202245970
435,1.7579052105401103700358742913771
436,1.7583675821083340543120913772596
437,1.7588288946987440049072078569850
438,1.7592891531550911800494000001565
439,1.7597483622879900016129477718184
440,1.7602065268752207862990138093193
441,1.7606636516620268198767164159431
442,1.7611197413614096381026946449312
443,1.7615748006544221619867088762935
444,1.7620288341904543067454169797910
445,1.7624818465875203950738211211405
446,1.7629338424325393990541404111787
447,1.7633848262816151798405094000317
448,1.7638348026603099432900447807197
449,1.7642837760639187520141586713431
450,1.7647317509577372462594899513476
451,1.7651787317773300766805153104843
452,1.7656247229287928903197101314702
453,1.7660697287890136128337706926687
454,1.7665137537059294158814515470577
455,1.7669568019987829935111175869902
456,1.7673988779583734445128863532811
457,1.7678399858473064564071205136252
458,1.7682801299002401869305224527179
459,1.7687193143241293569087390093382
460,1.7691575432984671968221985107553
461,1.7695948209755230967532986251283
462,1.7700311514805791727278070563263
463,1.7704665389121643531843074146262
464,1.7709009873422841464390663361324
465,1.7713345008166500578436385422430
466,1.7717670833549057872929428014317
467,1.7721987389508494875608755670635
468,1.7726294715726570990642001124418
469,1.7730592851630992377115349234587
470,1.7734881836397591603375437539240
471,1.7739161708952460747874719239037
472,1.7743432507974080922227233179047
473,1.7747694271895401725074870585251
474,1.7751947038905945666271657731743
475,1.7756190846953826788507897350670
476,1.7760425733747808623984685367759
477,1.7764651736759304815659367640671
478,1.7768868893224369162497148602744
479,1.7773077240145663982108233413056
480,1.7777276814294410736113755984746
481,1.7781467652212308426515664972166
482,1.7785649790213455450458214412612
483,1.7789823264386228712856336964216
484,1.7793988110595148193942352047256
485,1.7798144364482741739979240134156
486,1.7802292061471355924552947748275
487,1.7806431236764981467739089483712
488,1.7810561925351039177467241504353
489,1.7814684162002158693530110708867
490,1.7818797981277928664125377251304
491,1.7822903417526639696361683033451
492,1.7827000504887005961180458396775
493,1.7831089277289865201345591845134
494,1.7835169768459868081432072955321
495,1.7839242011917138803285431294521
496,1.7843306040978939429649408730463
497,1.7847361888761294769631500266286
498,1.7851409588180617276976603023281
499,1.7855449171955306932769273693386
500,1.785948067260734741566848909353
501,1.786350412246385601813668883078
502,1.786751955365866185851992875456
503,1.787152699813382706823763121842
504,1.787552648764118939043354218866
505,1.787951805374385466266044455813
506,1.788350172781769648236736901897
507,1.788747754105284153330349295563
508,1.789144552445513697024014361947
509,1.789540570884758216867608223333
510,1.789935812487178536962933427207
511,1.790330280298937752797813318481
512,1.790723977348342236399325723801
513,1.791116906645980877310693265441
514,1.791509071184863235620946424667
515,1.791900473940556981112428648809
516,1.792291117871322828681600646089
517,1.792681005918248044590001148937
518,1.793070141005380308749891768155
519,1.793458526039858714807425478511
520,1.793846163912044764845183305572
521,1.794233057495650153751762366777
522,1.794619209647865619278670050873
523,1.795004623209487294760378988532
