Eigenstate,Potential Energy
1,0.500000000018357760780889487716312256
2,0.64623093777094446083645104383998675
3,0.73633761005696571791643543611799165
4,0.79966527854739294339924584636452879
5,0.8480465765556566722489576645408724
6,0.8870659988354200212428782427014949
7,0.9197208268243831218606214278291048
8,0.9477838468992480443404903967861225
9,0.9723835580661556669945230123866253
10,0.9942802144735924518017726795248203
11,1.0140093862625402443113673361742975
12,1.0319621687375878708489910262208296
13,1.0484326919645120300457415098157754
14,1.0636476536264325440718061842876796
15,1.0777854348379934564274991113412979
16,1.090988905015805785121831732851254
17,1.103374255339950453493087647712710
18,1.115037249760176898612699329764416
19,1.126057748099880167630348209335102
20,1.136503043690037038099441759486415
21,1.146430369450902993439804736915925
22,1.155888809050752226094506215806023
23,1.164920774842402208075978653228467
24,1.173563165263635794494259838768576
25,1.181848281633127578591011122626733
26,1.189804561958031618553559529441645
27,1.197457173896557257913187521115027
28,1.204828498117008954035685773596371
29,1.211938525499738208958438567497794
30,1.218805185978968128401486225574178
31,1.225444622675512635318515289269714
32,1.231871421893512780075958852325067
33,1.238098807244664785551349643709144
34,1.244138804412868199541901300187631
35,1.250002381733027461377848827054970
36,1.255699570724261311250216698694424
37,1.261239569913689922380324087440794
38,1.266630834656550893126467534315386
39,1.271881155160546586693928461163058
40,1.276997724526504522641149979723156
41,1.281987198300682250712492989275187
42,1.286855746779055536070431596827354
43,1.291609101097442340123098031002335
44,1.296252593973221065671598991761007
45,1.300791195826831966131725099377097
46,1.305229546898114336014040048648457
47,1.309571985879055487534088055070452
48,1.313822575506941153992504126340644
49,1.317985125497234416681931539024817
50,1.32206321314138753843585261576557
51,1.32606020184932412447158103054197
52,1.32997925787798381688840099069340
53,1.33382336545487161064268180185362
54,1.33759534047799274737146018016648
55,1.34129784295007865092907798353860
56,1.34493338828493479838048762703756
57,1.34850435760654245507942098837825
58,1.35201300714674901617173659214889
59,1.35546147683462774959176379436830
60,1.35885179815956322791945680903568
61,1.36218590138055450896356159822938
62,1.36546562214592711982421375038461
63,1.36869270758040301016928743433626
64,1.37186882189016516053800212243843
65,1.37499555153101869151354248255849
66,1.37807440997990298055333952052801
67,1.38110684214574700194065694576847
68,1.38409422845190394451329250760068
69,1.38703788861908849109900988315544
70,1.38993908517481187532389016062023
71,1.39279902671271112772902191367763
72,1.39561887092287068075162632974005
73,1.39839972741218149572348033048735
74,1.40114266033196402648707982631915
75,1.40384869082845023312719961765653
76,1.40651879933027030256047740681272
77,1.40915392768578733430775155520192
78,1.41175498116195745159379213621434
79,1.41432283031534597792699784759450
80,1.41685831274499219366728626165244
81,1.41936223473596584561386579673144
82,1.42183537280169713209117406145915
83,1.42427847513247315222165006283974
84,1.42669226295686951635794000772662
85,1.42907743182232653847348985368645
86,1.43143465280056356592121369916526
87,1.43376457362306753117006983744154
88,1.43606781975146843239370926345658
89,1.43834499538723094762389957603836
90,1.44059668442474817045214333965956
91,1.44282345135160200321225858206746
92,1.44502584209946644603754752755025
93,1.44720438484886776513058253823309
94,1.44935959079077259484553410468308
95,1.45149195484775387415395205615132
96,1.45360195635728269594851701621568
97,1.45569005971950980552964531426008
98,1.45775671501172761032516202082136
99,1.45980235857155009070409789677272
100,1.46182741355070166132963468295979
101,1.46383229044117672834171938580663
102,1.46581738757540611293881007914362
103,1.46778309160195859831531766067646
104,1.46972977793819859220092417294914
105,1.47165781120122782349102598552727
106,1.47356754561834822721387082035451
107,1.47545932541820509012452695981164
108,1.47733348520369028966143619427063
109,1.47919035030761686546715210985495
110,1.48103023713211374254979702783724
111,1.48285345347262356396325169092608
112,1.48466029882733715725061804758931
113,1.48645106469284262310141798141348
114,1.48822603484671827691665381473269
115,1.48998548561775822547328369818525
116,1.49172968614447102923144808852783
117,1.49345889862246018782100088076082
118,1.49517337854125415513835931666778
119,1.49687337491111987676836502065918
120,1.49855913048036800021086888772319
121,1.50023088194361964114754192668122
122,1.50188886014148567585161259457245
123,1.50353329025207733691122742011493
124,1.50516439197474920962849020998893
125,1.50678237970644616019311897784887
126,1.50838746271101052943209105410315
127,1.50997984528178534805025674531065
128,1.51155972689782674208703171817619
129,1.51312730237402662407613087193343
130,1.51468276200542838352807312823622
131,1.51622629170600288623710572426511
132,1.51775807314213711471337692514002
133,1.51927828386107600045727441462736
134,1.52078709741454672283392751130306
135,1.52228468347777664096343794257607
136,1.52377120796411233751202493207473
137,1.52524683313543394532566021856503
138,1.52671171770854531585720796294138
139,1.52816601695771848243242625529325
140,1.52960988281355542543196273487147
141,1.53104346395832558897648704415385
142,1.53246690591792952543502152792928
143,1.53388035115063039390729271023511
144,1.53528393913268785919383899824346
145,1.53667780644102475000863995437728
146,1.53806208683304896643801549397674
147,1.53943691132374492368355270815561
148,1.54080240826014986109353534930786
149,1.54215870339331681741299809882206
150,1.54350591994786791310539647191450
151,1.54484417868923385397500948967244
152,1.54617359798866995523471019218558
153,1.54749429388613763568690727847887
154,1.54880638015113528123352987761788
155,1.55010996834155671368118041822477
156,1.55140516786065513117745148219116
157,1.55269208601218356685444141195166
158,1.55397082805378368375293577097126
159,1.5552414972486865788328093904875
160,1.5565041949157919335794175990569
161,1.5577590204781840072970476254340
162,1.5590060715101439341608804009778
163,1.5602454437827131772968480908930
164,1.5614772313078627764544373043056
165,1.5627015263813169894601371318210
166,1.5639184196240818430103391873383
167,1.5651280000227258250931656273042
168,1.5663303549684554079227642285002
169,1.5675255702950304634467376921341
170,1.5687137303155593145123688224801
171,1.5698949178582136161224771623763
172,1.5710692143009009334088055169049
173,1.5722366996049304186236612193045
174,1.5733974523477074306337817484626
175,1.5745515497544910818193592203468
176,1.5756990677292444187009773703560
177,1.5768400808846104968018011435491
178,1.5779746625710435041111510343429
179,1.5791028849051213780650436113792
180,1.5802248187970708624125202122700
181,1.5813405339775276525236382653548
182,1.5824500990235593244943072077629
183,1.5835535813839740972915876150860
184,1.5846510474039396694451557967853
185,1.5857425623489339383778092769459
186,1.5868281904280485709638944778233
187,1.5879079948166692257823760882863
188,1.5889820376785478633482975610150
189,1.5900503801872908753793831881664
190,1.5911130825472786841415217676368
191,1.5921702040140360343905838554572
192,1.5932218029140693600784665090549
193,1.5942679366641895296357036265516
194,1.5953086617903333105769420683549
195,1.5963440339459014857512058352188
196,1.5973741079296273130994030396663
197,1.5983989377029897042021953511061
198,1.5994185764071852835591408989470
199,1.6004330763796721624144449293569
200,1.6014424891702993672900889646539
201,1.6024468655570328996049233294860
202,1.6034462555612918024908813372996
203,1.6044407084629048894881108287534
204,1.6054302728146997499802997138679
205,1.6064149964567339966820793707439
206,1.6073949265301817738751336450491
207,1.6083701094908813970183044352144
208,1.6093405911225583451361367003862
209,1.6103064165497293488131739468324
210,1.6112676302502990693928456080975
211,1.6122242760678567283371147646914
212,1.6131763972236829138687485162084
213,1.6141240363284709427838868032725
214,1.6150672353937777531182441530062
215,1.6160060358432035338913490903243
216,1.6169404785233140463790676742971
217,1.6178706037143095959496080966160
218,1.6187964511404496269056143374434
219,1.6197180599802362132609567479488
220,1.6206354688763689535725465413329
221,1.6215487159454691721094548336222
222,1.6224578387875906237171235889980
223,1.6233628744955102632000932948929
224,1.6242638596638141385135227720859
225,1.6251608303977809642980702174411
226,1.6260538223220669136908491157588
227,1.6269428705892002712508112361268
228,1.6278280098878877571895883610973
229,1.6287092744511396750428930965553
230,1.6295866980642185690105124667235
231,1.6304603140724131802190404581010
232,1.6313301553886481108116613631031
233,1.6321962545009241813527675508306
234,1.6330586434796056275966546392279
235,1.6339173539845473077033153934763
236,1.6347724172720716186525497400802
237,1.6356238642017987419660583243496
238,1.6364717252433319497308000722928
239,1.6373160304828034064855484511195
240,1.6381568096292826203689948439077
241,1.6389940920210518248588100270621
242,1.6398279066317511470323892256427
243,1.6406582820763975931023091834195
244,1.6414852466172795394423377787533
245,1.6423088281697311021941372984420
246,1.6431290543077889040011735410879
247,1.6439459522697326196342558156942
248,1.6447595489635168810414587813238
249,1.6455698709720895103163693912251
250,1.6463769445586064646836801488908
251,1.6471807956715413929073656181050
252,1.6479814499496926010145201629904
253,1.6487789327270924989312144748531
254,1.6495732690378191842805737720344
255,1.6503644836207140427655812043860
256,1.6511526009240054498964521358405
257,1.6519376451098449648000662361808
258,1.6527196400587524601631359393333
259,1.6534986093739769911526592983561
260,1.6542745763857737890110259980282
261,1.6550475641555976923758506903671
262,1.6558175954802177410495051950928
263,1.6565846928957517820980351740154
264,1.6573488786816265384302090773253
265,1.6581101748644616643819212372741
266,1.6588686032218799553358241087993
267,1.6596241852862469239058304538778
268,1.6603769423483397756828885004680
269,1.6611268954609500537386283945502
270,1.6618740654424156753084776645783
271,1.6626184728800916438878197118240
272,1.6633601381337534155825277972739
273,1.6640990813389403621051782728163
274,1.6648353224102365387114480327128
275,1.6655688810444926319327973026780
276,1.6662997767239873647343479034388
277,1.6670280287195358423886079774362
278,1.6677536560935365929888091577286
279,1.6684766777029688050470339255125
280,1.6691971122023318550229426955977
281,1.6699149780465350135865682261204
282,1.6706302934937348268635391170472
283,1.6713430766081233850893413054556
284,1.6720533452626646351879011351673
285,1.6727611171417855445151136748774
286,1.6734664097440181404927939844854
287,1.6741692403845974854042106904063
288,1.6748696261980119881071872728091
289,1.6755675841405107007091302874060
290,1.6762631309925683327111116296956
291,1.6769562833613058235414243966455
292,1.6776470576828693583650483713534
293,1.6783354702247717329235768528150
294,1.6790215370881911043000286457333
295,1.6797052742102292147335213395267
296,1.6803866973661366740233574549001
297,1.6810658221714952322274664519123
298,1.6817426640843663593861517934021
299,1.6824172384074029351062362321497
300,1.6830895602899257985885713553886
301,1.6837596447299655705137917204180
302,1.6844275065762718396962823930615
303,1.6850931605302868876120862995832
304,1.6857566211480875283073176878414
305,1.6864179028422964921904345798062
306,1.6870770198839626169051365036776
307,1.6877339864044070272342385157029
308,1.6883888163970427824598500768202
309,1.6890415237191640804423530218433
310,1.6896921220937053535613697425821
311,1.6903406251109738514183223771584
312,1.6909870462303532234300827476428
313,1.6916313987819794940592915444805
314,1.6922736959683912349518091805047
315,1.6929139508661532536213155464457
316,1.6935521764274551743196374615684
317,1.6941883854816824496949784112903
318,1.6948225907369651544797022222348
319,1.6954548047817017027664894627461
320,1.6960850400860574901281661012757
321,1.6967133090034423795122135707487
322,1.6973396237719631453376850710338
323,1.6979639965158543898309089517885
324,1.6985864392468869087359809972009
325,1.6992069638657552683780657071835
326,1.6998255821634428313029033610565
327,1.7004423058225670512445896161654
328,1.7010571464187022266131966706170
329,1.7016701154216846873575342423054
330,1.7022812241968968468655495771512
331,1.7028904840065315574755565193275
332,1.7034979060108378308188575451926
333,1.7041035012693483015277466833036
334,1.7047072807420866183113988130107
335,1.7053092552907590773106262074236
336,1.7059094356799265557617850741199
337,1.7065078325781596181945977361814
338,1.7071044565591778539941641785415
339,1.7076993181029695108127440418123
340,1.7082924275968975151502333773221
341,1.7088837953367875936591296834791
342,1.7094734315280009923019425943610
343,1.7100613462864914311287102191760
344,1.7106475496398462883599636915257
345,1.7112320515283138330875168960631
346,1.7118148618058139813666217650495
347,1.7123959902409361410360501742477
348,1.7129754465179209569687113550174
349,1.7135532402376295016555225525967
350,1.7141293809184974534414247118315
351,1.7147038779974763499959509325304
352,1.7152767408309615993618187812153
353,1.7158479786957065329385821877324
354,1.7164176007897239148566205606946
355,1.7169856162331752730040186240098
356,1.7175520340692462614746351388844
357,1.7181168632650112934609648169343
358,1.7186801127122866885788731673049
359,1.7192417912284680797488175919798
360,1.7198019075573610175388096055374
361,1.7203604703699965168246883006327
362,1.7209174882654380273544279480624
363,1.7214729697715744238163449280997
364,1.7220269233459040393925496300734
365,1.7225793573763079791522869872515
366,1.7231302801818115909424073202266
367,1.7236797000133369857737261281652
368,1.7242276250544433964203920415618
369,1.7247740634220600067665281997630
370,1.7253190231672069650641652198795
371,1.7258625122757074344010850122816
372,1.7264045386688896368467877819579
373,1.7269451102042788579819945360210
374,1.7274842346762837202807337601245
375,1.7280219198168674169046600504783
376,1.7285581732962153621151376507615
377,1.7290930027233910475032851466062
378,1.7296264156469832714398755603352
379,1.7301584195557465815362272355952
380,1.7306890218792316868711428012223
381,1.7312182299884087154093921167697
382,1.7317460511962804347716186628259
383,1.7322724927584901110068870221680
384,1.7327975618739189690582988133598
385,1.7333212656852768761659484126648
386,1.7338436112796869068485275635345
387,1.7343646056892595387886595396784
388,1.7348842558916604164081234317207
389,1.7354025688106723568053678597786
390,1.7359195513167487871482735862975
391,1.7364352102275589304480911161765
392,1.7369495523085283480768304332469
393,1.7374625842733723124993894883493
394,1.7379743127846205913014582795652
395,1.7384847444541364993696926588157
396,1.7389938858436298700753843055328
397,1.7395017434651635753530413968539
398,1.7400083237816536027909677940586
399,1.7405136332073612555083168312925
400,1.7410176781083817747587035530620
401,1.7415204648031254341623782079460
402,1.7420219995627918507662398364332
403,1.7425222886118403336533384881061
404,1.7430213381284541631737125535031
405,1.7435191542449962662240613395291
406,1.7440157430484623965925361518768
407,1.7445111105809289370702608530159
408,1.7450052628399928265059344546805
409,1.7454982057792064728614803239307
410,1.7459899453085101667291791159476
411,1.7464804872946562553095158939789
412,1.7469698375616286594205265594011
413,1.7474580018910588125795764211201
414,1.7479449860226344459844019017328
415,1.7484307956545055033374027940071
416,1.7489154364436836151271500645879
417,1.7493989140064379808356673309402
418,1.7498812339186848222883753888015
419,1.7503624017163746866400917292024
420,1.7508424228958725808998070215236
421,1.7513213029143348901593093099003
422,1.7517990471900823611088493928046
423,1.7522756611029669869611140655096
424,1.7527511499947364074887073296641
425,1.7532255191693922035155492013916
426,1.7536987738935456926827099180232
427,1.7541709193967687110981070354415
428,1.7546419608719393945377286054729
429,1.7551119034755868715649393308419
430,1.7555807523282277306525054197601
431,1.7560485125147017649403861752159
432,1.7565151890845041441212470276432
433,1.7569807870521093513285851182430
434,1.7574453113972979829421373782922
435,1.7579087670654742349613899223242
436,1.7583711589679819769140788576742
437,1.7588324919824175746455644391447
438,1.7592927709529384440283640425960
439,1.7597520006905680168719183363158
440,1.7602101859734981902203994004383
441,1.7606673315473864188657486420299
442,1.7611234421256510146961647081388
443,1.7615785223897643005483825086179
444,1.7620325769895382379080263459474
445,1.7624856105434118590889655199345
446,1.7629376276387315282128144647098
447,1.7633886328320312001284354808170
448,1.7638386306493058954442260385916
449,1.7642876255862862321480645476130
450,1.7647356221087061662260932583703
451,1.7651826246525714443442571102863
452,1.7656286376244216099099065353686
453,1.7660736654015913055538113099906
454,1.7665177123324672609497937458416
455,1.7669607827367445898119243950917
456,1.7674028809056776930356349499229
457,1.7678440111023304636567161488482
458,1.7682841775618221894907860222700
459,1.7687233844915716673443500391235
460,1.7691616360715391711057806333101
461,1.7695989364544641234061319372484
462,1.7700352897661016838647117669931
463,1.7704707001054568576551519631483
464,1.7709051715450142852611017765424
465,1.7713387081309676821209278074245
466,1.7717713138834460588210347252376
467,1.7722029927967360023169099506361
468,1.7726337488395050337847534084182
469,1.7730635859550185197622977073236
470,1.7734925080613576610811378911908
471,1.7739205190516328266577844472955
472,1.7743476227941965297162175977278
473,1.7747738231328513973040797214947
474,1.7751991238870606370554277786598
475,1.7756235288521499239142525097526
476,1.7760470417995132205822985431652
477,1.7764696664768128646453329009977
478,1.7768914066081785983235536633178
479,1.7773122658944044301862612976028
480,1.7777322480131437233679163001720
481,1.7781513566191010611148260305568
482,1.7785695953442244584039159862552
483,1.7789869677978932995836080614702
484,1.7794034775671048217438842017638
485,1.7798191282166606206432959299999
486,1.7802339232893477639364941784520
487,1.7806478663061213604340575208212
488,1.7810609607662831818298474084048
489,1.7814732101476595649429716448565
490,1.7818846179067764574657523242711
491,1.7822951874790337413633524735939
492,1.7827049222788774219731432340015
493,1.7831138256999696576714489087299
494,1.7835219011153577240035685930174
495,1.7839291518776401046270951131333
496,1.7843355813191329533408030337382
497,1.7847411927520326125693326523343
498,1.7851459894685781334028338637598
499,1.7855499747412112943573594395407
500,1.785953151822736249168362809175
501,1.786355523946474549467483617631
502,1.786757094326422997330091508660
503,1.787157866157405795623582327814
504,1.787557842615228839793739041520
505,1.787957026856828998350179302959
506,1.788355422020424111930489787311
507,1.788753031225661558757582253300
508,1.789149857573765026233988006466
509,1.789545904147677719342402061180
510,1.789941174012208058866549200347
511,1.790335670214171100281451435347
512,1.790729395782529573281040952041
513,1.791122353728533157450997680239
514,1.791514547045856670318920696487
515,1.791905978710737541851344345380
516,1.792296651682110785555221531171
517,1.792686568901742540745755969124
518,1.793075733294363971187648061672
519,1.793464147767802301876660148272
520,1.793851815213111850786856518502
521,1.794238738504701850635506110318
522,1.794624920500465336688745731913
523,1.795010364041905537588578083090
