Eigenstate,Potential Energy
1,0.500000000014236598974800359652509843
2,0.64623093774404370108354029030794147
3,0.73633760997794707471337179622191080
4,0.79966527838280661149323873485933968
5,0.8480465762705605226605602236269381
6,0.8870659983942610672325616139026929
7,0.9197208261913224685209971621176496
8,0.9477838460382965636085924489373533
9,0.9723835569412372314313318339331228
10,0.9942802130485761619030838338377531
11,1.0140093845012580594771549988179370
12,1.0319621666038448023626199299434800
13,1.0484326894220922848655475266111749
14,1.0636476506391033383898578649118524
15,1.0777854313695074235230561119211889
16,1.090988901029902500298748715372509
17,1.103374250800357384768933562663993
18,1.115037244630609972378664964500406
19,1.126057742344044069156365973980427
20,1.136503037271625325064008320141225
21,1.146430362333598074802271373635607
22,1.155888801198225242135689398266091
23,1.164920766218312836651468624065868
24,1.173563155831632001336882439237141
25,1.181848271356845324581367386707876
26,1.189804550801094533460239468789558
27,1.197457161822576287689167022188114
28,1.204828485089581987024133050824118
29,1.211938511482449685099455582893444
30,1.218805170935388634600816670405460
31,1.225444606569198489444685098566667
32,1.231871404688005605528025702887484
33,1.238098788903491077939537469552973
34,1.244138784899538886715408112907429
35,1.250002361011037457794753197845558
36,1.255699548757089067496808260386547
37,1.261239546664796970498963891591227
38,1.266630810089381388293120918969977
39,1.271881129238526845691953795667381
40,1.276997697213042559501628942831998
41,1.281987169559167309829448813630132
42,1.286855716572857623048683381098721
43,1.291609069389911750574945838462635
44,1.296252560727687912144227381527265
45,1.300791161006605703318740134916440
46,1.305229510466483284380807721527194
47,1.309571947799286355466658965231053
48,1.313822535742278558563170806284275
49,1.317985084010900403110333630152405
50,1.32206316989658109831254869202162
51,1.32606015680922071280079606536189
52,1.32997921100573486799793200019593
53,1.33382331671360405300146203855006
54,1.33759528983080851734884201071985
55,1.34129779036005420552432873120872
56,1.34493333371512062694618404812276
57,1.34850430101996259005824389340364
58,1.35201294850640054286251132740716
59,1.35546141610348031495742109658796
60,1.35885173530055854844679079901369
61,1.36218583635660587758220999475011
62,1.36546555491991891189011921289021
63,1.36869263811519018851599961298710
64,1.37186875014857277959748896924937
65,1.37499547747584140050666769750869
66,1.37807433357390452574884316940634
67,1.38110676335165972798027612900159
68,1.38409414723242829479959864064572
69,1.38703780493689250724157244028680
70,1.38993899899253069563854089155758
71,1.39279893799294648478419578616617
72,1.39561877962819039795508060755093
73,1.39839963350511898294204366552668
74,1.40114256377501777469152344937714
75,1.40384859158408330805378789905972
76,1.40651869736090983738030335137320
77,1.40915382295382402129450051312470
78,1.41175487362974503278020887159487
79,1.41432271994520073473994214470980
80,1.41685819949919243553094172177170
81,1.41936211857675139751035636613903
82,1.42183525369126882106754249539347
83,1.42427835303299229283190709125726
84,1.42669213783045739502863430663384
85,1.42907730363106389678101464120729
86,1.43143452150649008276886653760396
87,1.43376443918818130385265414316746
88,1.43606768213772545653730402918411
89,1.43834485455654459598822668653058
90,1.44059654033898867058280539758199
91,1.44282330397259591392994383716053
92,1.44502569138899613275116280942446
93,1.44720423076867087396112539886740
94,1.44935943330254152554736699560579
95,1.45149179391313525182002254458241
96,1.45360179193787684148593913170952
97,1.45568989177687020489191810199637
98,1.45775654350736038248721099412304
99,1.45980218346691345436618310240595
100,1.46182723480720540033608071388682
101,1.46383210802018165580030234688492
102,1.46581720143822353402652617781996
103,1.46778290170984977175618573732583
104,1.46972958425237419040132734756151
105,1.47165761368284739131804355801528
106,1.47356734422851963940193146587148
107,1.47545912011798400729562239190538
108,1.47733327595407961294405399164427
109,1.47919013706956618969897320500312
110,1.48103001986651880804913541636815
111,1.48285323214032570685410735326242
112,1.48466007338912275832612559726270
113,1.48645083510944255521040070635042
114,1.48822580107880735085789422663642
115,1.48998524762595463438202403238199
116,1.49172944388933579144256559175897
117,1.49345865206449658819321442269184
118,1.49517312764090718482371638973830
119,1.49687311962877567141120474560156
120,1.49855887077635327656034195126117
121,1.50023061777820113206769617783482
122,1.50188859147486956371296263384662
123,1.50353301704440868534764516375735
124,1.50516411418611139364316185352602
125,1.50678209729686029459722613952083
126,1.50838717564043489559979106139508
127,1.50997955351011481897345432891174
128,1.51155943038489220571332449204125
129,1.51312700107959440491325422404998
130,1.51468245588919966249806506583605
131,1.51622598072761311876332017896188
132,1.51775775726115544702338023751960
133,1.51927796303700468408460104793417
134,1.52078677160682052730154499371194
135,1.52228435264576226463168563572031
136,1.52377087206710781657372979810576
137,1.52524649213266806093100057746187
138,1.52671137155917699935082520757498
139,1.52816566562083621868519519904456
140,1.52960952624817665424970924728207
141,1.53104310212339610456789332039304
142,1.53246653877232287392081835946559
143,1.53387997865314726885276464601418
144,1.53528356124205549514656514976440
145,1.53667742311589631402330911527211
146,1.53806169803200294757002053132094
147,1.53943651700528452043301068081569
148,1.54080200838270236678126535982357
149,1.54215829791523300346985728536945
150,1.54350550882742141025632256708349
151,1.54484376188462053129900265324855
152,1.54617317545800729708183900552234
153,1.54749386558746411643335240207927
154,1.54880594604240973785562162981027
155,1.55010952838065771612918059375324
156,1.55140472200538035052979749049768
157,1.55269163422024914123302430541407
158,1.55397037028282358197989898098896
159,1.5552410334562519618092172114360
160,1.5565037250593505133660763068981
161,1.5577585445151194038776084179781
162,1.5590055893977550298672190772130
163,1.5602449554782134688766847040637
164,1.5614767367683797247609744689052
165,1.5627010255638913667433792765574
166,1.5639179124856670777896874615877
167,1.5651274865201873445907150772132
168,1.5663298350585699780366316252596
169,1.5675250439344855262436330538611
170,1.5687131974609523232184756651432
171,1.5698943784660513675916137604380
172,1.5710686683275988980466985053005
173,1.5722361470068120677470489759742
174,1.5733968930810035612429129661223
175,1.5745509837753391387623641351723
176,1.5756984949936878142084073007868
177,1.5768395013485979273695737362046
178,1.5779740761904282647099167367558
179,1.5791022916356606736539628659906
180,1.5802242185944251167351953161604
181,1.5813399267972598141638998933892
182,1.5824494848211341701693658636111
183,1.5835529601147575323599473904658
184,1.5846504190231980256065381592011
185,1.5857419268118332685421878504744
186,1.5868275476896539412666364414193
187,1.5879073448319440047222961929173
188,1.5889813804023530080253054420832
189,1.5900497155743842148082756647561
190,1.5911124105523141996183073218747
191,1.5921695245915631368875627909992
192,1.5932211160185321646441990580872
193,1.5942672422499261267757682138036
194,1.5953079598115750345913017106089
195,1.5963433243567721800037995142385
196,1.5973733906841425921954643657247
197,1.5983982127550562130486017378848
198,1.5994178437105999532829891638357
199,1.6004323358881214631148246096338
200,1.6014417408373585575979306327081
201,1.6024461093361652730256073010408
202,1.6034454914058479305040976267607
203,1.6044399363261218613793497252466
204,1.6054294926497004093781708638342
205,1.6064142082165261747754510780446
206,1.6073941301676575192839654554243
207,1.6083693049588162022918553747738
208,1.6093397783736103698520280586408
209,1.6103055955364386392506668336217
210,1.6112668009250867747534673692956
211,1.6122234383830243134856229723502
212,1.6131755511314113685672382681655
213,1.6141231817808199873916301082170
214,1.6150663723426850407297212048028
215,1.6160051642404838488847048819248
216,1.6169395983206584993470641424058
217,1.6178697148632848149849382361063
218,1.6187955535924969452122802175764
219,1.6197171536866708530631714162835
220,1.6206345537883792062925100883789
221,1.6215477920141155747850503128151
222,1.6224569059638051316304920139409
223,1.6233619327300954186877587849873
224,1.6242629089074422359286107351128
225,1.6251598706009932110948870731235
226,1.6260528534352725876019650001915
227,1.6269418925626758735265130686455
228,1.6278270226717761618694143031215
229,1.6287082779954492742286932799922
230,1.6295856923188224141103387923762
231,1.6304592989870481191309121474566
232,1.6313291309129139210160034674090
233,1.6321952205842826988822114273512
234,1.6330576000713798718515333230598
235,1.6339163010339206020810646822557
236,1.6347713547280867069589854265398
237,1.6356227920133569005761970167773
238,1.6364706433591920954668032456548
239,1.6373149388515812001790115884067
240,1.6381557081994495660746096035452
241,1.6389929807409343646862305086816
242,1.6398267854495297515628684298873
243,1.6406571509401058473564183479857
244,1.6414841054748032243648763138670
245,1.6423076769688072716220522348190
246,1.6431278929960049570801071760521
247,1.6439447807945253686490764753702
248,1.6447583672721716146258519265770
249,1.6455686790117390520063756390355
250,1.6463757422762302267797513845223
251,1.6471795830139644256092579882398
252,1.6479802268635846367931478990041
253,1.6487776991589669921012699561709
254,1.6495720249340323457374256578322
255,1.6503632289274638698498006297654
256,1.6511513355873307513489424744955
257,1.6519363690756243807705370639035
258,1.6527183532727034772344325462258
259,1.6534973117816549523431270559376
260,1.6542732679325708987168065960165
261,1.6550462447867420162147501993173
262,1.6558162651407722005678227998903
263,1.6565833515306131443013712452946
264,1.6573475262355244000990636508525
265,1.6581088112819574311325095397246
266,1.6588672284473658153863675617078
267,1.6596227992639448165081626500540
268,1.6603755450223003541789865514330
269,1.6611254867750516432013548006171
270,1.6618726453403632247254798163355
271,1.6626170413054156728473242992137
272,1.6633586950298089554193142352519
273,1.6640976266489058914648372236445
274,1.6648338560771129134906079900950
275,1.6655674030111020095527347016243
276,1.6662982869329721227051034454361
277,1.6670265271133574911202803726291
278,1.6677521426144746828065460027715
279,1.6684751522931198273657476312044
280,1.6691955748036081376375309968301
281,1.6699134286006636100330584813018
282,1.6706287319422563998062257568573
283,1.6713415028923910836886527105594
284,1.6720517593238429664033824456431
285,1.6727595189208492382975259363670
286,1.6734647991817510088190433974950
287,1.6741676174215912751083902560327
288,1.6748679907746652274607080303283
289,1.6755659361970275397025248358951
290,1.6762614704689573769897117087779
291,1.6769546101973789619467983956571
292,1.6776453718182405840336147401710
293,1.6783337715988559578935627033928
294,1.6790198256402029675773766889978
295,1.6797035498791818837671278318913
296,1.6803849600908406395396682436853
297,1.6810640718905570963737691155281
298,1.6817409007361876171318390184201
299,1.6824154619301787488507838391588
300,1.6830877706216437659244809753201
301,1.6837578418084044850925271848461
302,1.6844256903390004451445842674990
303,1.6850913309146626244459034426725
304,1.6857547780912552737899684103120
305,1.6864160462811872930811906195732
306,1.6870751497552924150441302522864
307,1.6877321026446753779090176307206
308,1.6883869189425315654986440969726
309,1.6890396125059362039783822164838
310,1.6896901970576034504123715189377
311,1.6903386861876189680250374762501
312,1.6909850933551435012965513996130
313,1.6916294318900888436379250691005
314,1.6922717149947680019154177553214
315,1.6929119557455188774637039722732
316,1.6935501670943028392263407400793
317,1.6941863618702757276247667696405
318,1.6948205527813366403972285399368
319,1.6954527524156516419659991285809
320,1.6960829732431523975875659404758
321,1.6967112276170136512164284372202
322,1.6973375277751056615097002203635
323,1.6979618858414251100082785780952
324,1.6985843138275034586302125176006
325,1.6992048236337945184537613936627
326,1.6998234270510394670128952944753
327,1.7004401357616121348569552258779
328,1.7010549613408417505654477769968
329,1.7016679152583181190726169014130
330,1.7022790088791756649639389958395
331,1.7028882534653577793170725502709
332,1.7034956601768625313072913915611
333,1.7041012400729701231109323027519
334,1.7047050041134502721085724398109
335,1.7053069631597538352986116306980
336,1.7059071279761847339508924223485
337,1.7065055092310550507243745547118
338,1.7071021174978243580787321049854
339,1.7076969632562193424649694899433
340,1.7082900568933398156130020417020
341,1.7088814087047468264717801975675
342,1.7094710288955353709292342043253
343,1.7100589275813913370788084281246
344,1.7106451147896326797176064819764
345,1.7112296004602366433879277558823
346,1.7118123944468505087347634570053
347,1.7123935065177894275156530552554
348,1.7129729463570181579643942357623
349,1.7135507235651202454109511486459
350,1.7141268476602521904758714387665
351,1.7147013280790846924206409029469
352,1.7152741741777306499971000774345
353,1.7158453952326592041520762207428
354,1.7164150004415972370418676482367
355,1.7169829989244186926186322323825
356,1.7175493997240199285559292580645
357,1.7181142118071843385366521309557
358,1.7186774440654354888894976692857
359,1.7192391053158745146979707504743
360,1.7197992043020107132865083041254
361,1.7203577496945770799384328765344
362,1.7209147500923372674317148359108
363,1.7214702140228785649918628054043
364,1.7220241499433959206423439648955
365,1.7225765662414652433063765826061
366,1.7231274712358048623168443012406
367,1.7236768731770280363319796135726
368,1.7242247802483833003733939060590
369,1.7247712005664872835197935858939
370,1.7253161421820457104197263625087
371,1.7258596130805654399208964130049
372,1.7264016211830564972839124861698
373,1.7269421743467240666845546604341
374,1.7274812803656547524731331038928
375,1.7280189469714878007496141142578
376,1.7285551818340827374590631956022
377,1.7290899925621752122070921314758
378,1.7296233867040242151958828165837
379,1.7301553717480525070715672913347
380,1.7306859551234770184366292547002
381,1.7312151442009320944522383495148
382,1.7317429462930827026894690289197
383,1.7322693686552322788795235145383
384,1.7327944184859201742528202417108
385,1.7333181029275123257097296975406
386,1.7338404290667858074640506651590
387,1.7343614039355030134826774659995
388,1.7348810345109794075070271794756
389,1.7353993277166455153277027041357
390,1.7359162904226003484040435200791
391,1.7364319294461565757538678971527
392,1.7369462515523810524744822216429
393,1.7374592634546281783652327677253
394,1.7379709718150646677316579838043
395,1.7384813832451885872267620842930
396,1.7389905043063423125795534353612
397,1.7394983415102190341009995891192
398,1.7400049013193628190839286576414
399,1.7405101901476607968696588214886
400,1.7410142143608317665208396054570
401,1.7415169802769072760012324997136
402,1.7420184941667059180605178229915
403,1.7425187622543036635447365470157
404,1.7430177907174981252032453593044
405,1.7435155856882642174181868651732
406,1.7440121532532073208718193506926
407,1.7445074994540110688522939119439
408,1.7450016302878772583726403392090
409,1.7454945517079607471601961330862
410,1.7459862696238018509753811007157
411,1.7464767899017505012579051603364
412,1.7469661183653857456701041187321
413,1.7474542607959316705768743418406
414,1.7479412229326661692880118114841
415,1.7484270104733268400054461147564
416,1.7489116290745104430882869581548
417,1.7493950843520687661025995283588
418,1.7498773818814980598719752597995
419,1.7503585271983263240204401342339
420,1.7508385257984934239096058433335
421,1.7513173831387279911332215196948
422,1.7517951046369203891514932306843
423,1.7522716956724895801846408266208
424,1.7527471615867475070696763523178
425,1.7532215076832573694195173976161
426,1.7536947392281894009032513874183
427,1.7541668614506716322557510370764
428,1.7546378795431356536827034966101
429,1.7551077986616612890262457794135
430,1.7555766239263130437744227353215
431,1.7560443604214758305456662677608
432,1.7565110131961871215391491219672
433,1.7569765872644608658241131560455
434,1.7574410876056142693813637791272
435,1.7579045191645852615461324344360
436,1.7583668868522485488176804565246
437,1.7588281955457284173798834489600
438,1.7592884500887072663703933539389
439,1.7597476552917305531769685956672
440,1.7602058159325092219469711613841
441,1.7606629367562167751355966955683
442,1.7611190224757845517112619247814
443,1.7615740777721948596851750396607
444,1.7620281072947665823069841796449
445,1.7624811156614425885562948739192
446,1.7629331074590699722489371493865
447,1.7633840872436802888965740509565
448,1.7638340595407630084900121483766
449,1.7642830288455400246798135897476
450,1.7647309996232333727631466635224
451,1.7651779763093336595391797360205
452,1.7656239633098620463482340638449
453,1.7660689650016315283332928573214
454,1.7665129857325038988390764691360
455,1.7669560298216460227865717643181
456,1.7673981015597807159876124760802
457,1.7678392052094369260712226136156
458,1.7682793450051956108825176185591
459,1.7687185251539338282431717824695
460,1.7691567498350666793794247545190
461,1.7695940232007849557060337656160
462,1.7700303493762917019785714775988
463,1.7704657324600362995475533274670
464,1.7709001765239442305818319656730
465,1.7713336856136464919578925834345
466,1.7717662637487057894730461365634
467,1.7721979149228387928589555185287
468,1.7726286431041394671960682524846
469,1.7730584522352959573857266294639
470,1.7734873462338085501793865028062
471,1.7739153289922029808303489113661
472,1.7743424043782433819380160046054
473,1.7747685762351402253445095441968
474,1.7751938483817607610344560912359
475,1.7756182246128308757491993562442
476,1.7760417086991408850769593602401
477,1.7764643043877455919702169771194
478,1.7768860154021632876337000486585
479,1.7773068454425725841205776531160
480,1.7777267981860074731711213196454
481,1.7781458772865491621209306069936
482,1.7785640863755182556168227216296
483,1.7789814290616626630884423192895
484,1.7793979089313440516795610350318
485,1.7798135295487243214641880362949
486,1.7802282944559466876882570517709
487,1.7806422071733182187659408316003
488,1.7810552711994884264628572332551
489,1.7814674900116271363104968941147
490,1.7818788670655995012403472100003
491,1.7822894057961402925802255666741
492,1.7826991096170260564583320282878
493,1.7831079819212451104792714766688
494,1.7835160260811664745650298072724
495,1.7839232454487059283079966449717
496,1.7843296433554924391050457017327
497,1.7847352231130306464394267071680
498,1.7851399880128633474073400131111
499,1.7855439413267314806507113656828
500,1.785947086306733739006112231233
501,1.786349426185481556715872200685
502,1.786750964176256926186559739919
503,1.787151703473164512220332726660
504,1.787551647251285907353982500351
505,1.787950798666828875562610732616
506,1.788349160857277314204134273005
507,1.788746736941539782016166956444
508,1.789143530020096232904518034026
509,1.789539543175141186189664824790
510,1.789934779470729386321244614038
511,1.790329241952917182906298828704
512,1.790722933649903531014943098511
513,1.791115857572169227267896985358
514,1.791508016712615057934170263006
515,1.791899414046699233104081341287
516,1.792290052532572317092070406745
517,1.792679935111210729626170798413
518,1.793069064706550603028065632829
519,1.793457444225618777145994841229
520,1.793845076558663788862269300136
521,1.794231964579283651222246939652
522,1.794618111144554698204807357187
523,1.795003519095157932109662384234
