Eigenstate,Potential Energy
1,0.500000000041413475037593706137975567
2,0.64623093792144021344514063655410662
3,0.73633761049903514478433412173105489
4,0.79966527946817393017725505499494239
5,0.8480465781506396386321160939296859
6,0.8870660013035178859052659415196863
7,0.9197208303661146824309833412253337
8,0.9477838517159802493903809677159425
9,0.9723835643597511593762221110163937
10,0.9942802224462305777528278634360759
11,1.0140093961166197223461280909225720
12,1.0319621806756710732671837644899058
13,1.0484327061892919185375778106440770
14,1.0636476703407126428273429081812506
15,1.0777854542446756905682816096257985
16,1.090988927317883259792932257292015
17,1.103374280740503446855058410536942
18,1.115037278462371010228861039795300
19,1.126057780306965951694141470515163
20,1.136503079605350684209673647944045
21,1.146430409277867762315845292089985
22,1.155888852992880439888229663254466
23,1.164920823103297655254857799400470
24,1.173563218046996449595332266210895
25,1.181848339142748564657085133096147
26,1.189804624397808359181740001979265
27,1.197457241470488779357434880440625
28,1.204828571029201307502365222210346
29,1.211938603954407990292776412146600
30,1.218805270180446077568832384842698
31,1.225444712828247301970402957840229
32,1.231871518202074244424403804613715
33,1.238098909913748426012393169339541
34,1.244138913647298500332741724864422
35,1.250002497737761854591328523203195
36,1.255699693704394048980264015952728
37,1.261239700074455975301464323655453
38,1.266630972203329872590785392430068
39,1.271881300298866687938152521768246
40,1.276997877462046487123719295958111
41,1.281987359239283345947287536587869
42,1.286855915926713551607241436357171
43,1.291609278660319598557707400343064
44,1.296252780157648447760619279166739
45,1.300791390839312949246945774383008
46,1.305229750945329045304256742391314
47,1.309572199167864759273957024531815
48,1.313822798244390610691973438819019
49,1.317985357890558553609238451555450
50,1.32206345539801382127452430647927
51,1.32606045417687709788941959018958
52,1.32997952048428922384561106824568
53,1.33382363854796052230856316163430
54,1.33759562426610570355554422845692
55,1.34129813764166981096408871195703
56,1.34493369408867610242188524153261
57,1.34850467473132779581008039995867
58,1.35201333580169842092123098657923
59,1.35546181722909157289789020538183
60,1.35885215050312635457577270990290
61,1.36218626588304056761085669447733
62,1.36546599901740270715643712238910
63,1.36869309703118192583558474600645
64,1.37186922413081265283242686459078
65,1.37499596677235571395297935928921
66,1.37807483843301045945209133284899
67,1.38110728402197011509734857107284
68,1.38409468396285641113222336042625
69,1.38703835797665687307402534493540
70,1.38993956859115989001804471511290
71,1.39279952440028397238838834832947
72,1.39561938309439936869586161683645
73,1.39840025428068720446004231899128
74,1.40114320211076245789966251962218
75,1.40384924773115598589253809199264
76,1.40651937157080125695086919156383
77,1.40915451547836904953972099144886
78,1.41175558472112757588616855570160
79,1.41432344985595867143437556063152
80,1.41685894848222256445727081415876
81,1.41936288688531439885901146168239
82,1.42183604157899423264872726909333
83,1.42427916075388350077637198549043
84,1.42669296563889663930537408100481
85,1.42907815178181729172304709719789
86,1.43143539025471265280027594149020
87,1.43376532878942203461229187877863
88,1.43606859284793236159639744591906
89,1.43834578663206979936111362693546
90,1.44059749403659350523186271703830
91,1.44282427954945603646765042832632
92,1.44502668910270665454395393049381
93,1.44720525087725150884147344246660
94,1.44936047606444175434223082445438
95,1.45149285958723950390551593520458
96,1.45360288078350969357964375913455
97,1.45569100405380159729607315615284
98,1.45775767947581085299743247240823
99,1.45980334338755939006217666265372
100,1.46182841894118430747227054342544
101,1.46383331662909744801596748123681
102,1.46581843478415183909662961042515
103,1.46778416005534325710554257136991
104,1.46973086786046790760657644781605
105,1.47165892281706413982323824585224
106,1.47356867915287534967526060944793
107,1.47546048109699314365636465892140
108,1.47733466325276059629036994786838
109,1.47919155095344684036887698482421
110,1.48103146060164180904843773821839
111,1.48285469999325408768683184215975
112,1.48466156862694539966450234981082
113,1.48645235799977971464309867418408
114,1.48822735188981620995687983034169
115,1.48998682662633486733003021446914
116,1.49173105134833515546483531793492
117,1.49346028825191653603884077535574
118,1.49517479282710849954357710735540
119,1.49687481408468412368118083343278
120,1.49856059477346530480032607564134
121,1.50023237158858954560846746346590
122,1.50189037537118926926483829616112
123,1.50353483129990243702659170362295
124,1.50516595907461556681175882769832
125,1.50678397309281068377971370510342
126,1.50838908261887253673228105867444
127,1.50998149194669183625210135848083
128,1.51156140055587768330523520138044
129,1.51312900326188028379670535161566
130,1.51468449036030666270045740959038
131,1.51622804776569668726722218822844
132,1.51775985714501173161313592922357
133,1.51928009604607653340747910037909
134,1.52078893802120351741982056679000
135,1.52228655274621075234388839431967
136,1.52377310613504101978510691993361
137,1.52524876045017616635558697586986
138,1.52671367440902729782930550362713
139,1.52816800328647926840505496768002
140,1.52961189901375247215607237829063
141,1.53104551027374038625564885646791
142,1.53246898259297324230081822645943
143,1.53388245843034955188694572350903
144,1.53528607726277003294923568212699
145,1.53667997566780429562779485998486
146,1.53806428740351277766233463041046
147,1.53943914348553821635639733546974
148,1.54080467226158198611771251709432
149,1.54216099948336710250714258313643
150,1.54350824837619153365123389627170
151,1.54484653970616773325016077625074
152,1.54617599184523869432755117410543
153,1.54749672083405947339262159390995
154,1.54880884044282808423268687455751
155,1.55011246223014399730461846030509
156,1.55140769559997211106376053839734
157,1.55269464785678324180848213496794
158,1.55397342425894295011658540378239
159,1.5552441280704123766814244795784
160,1.5565068606108274250601774496501
161,1.5577617213040147874277340643175
162,1.5590088077250042744104081282628
163,1.5602482156455923022711767195171
164,1.5614800390785111740145082238339
165,1.5627043703202527546009017630316
166,1.5639212999925970558326652308490
167,1.5651309170828929632031602842279
168,1.5663333089831337935959535094500
169,1.5675285615278727458969816497546
170,1.5687167590310179876087295907520
171,1.5698979843215475718996101746984
172,1.5710723187781820517196647055642
173,1.5722398423630501932860955638396
174,1.5734006336543836324255826584506
175,1.5745547698782744586793529139211
176,1.5757023269395254334967531736675
177,1.5768433794516261030277091754804
178,1.5779780007658839598833158293318
179,1.5791062629997370987832858549224
180,1.5802282370642793124622521455636
181,1.5813439926910202763940556934332
182,1.5824535984579085176922233793557
183,1.5835571218146402174338782404126
184,1.5846546291072780879157844851626
185,1.5857461856022021329391163873716
186,1.5868318555094132597147127948897
187,1.5879117020052135428595343398069
188,1.5889857872542785767711581301449
189,1.5900541724311456474407518507709
190,1.5911169177411333747518385364198
191,1.5921740824407120477857257294096
192,1.5932257248573410353054119322865
193,1.5942719024087915752336733497448
194,1.5953126716219682838757366653607
195,1.5963480881512473172117859750437
196,1.5973782067963448761259606792983
197,1.5984030815197304308586268773783
198,1.5994227654635988266266855472623
199,1.6004373109664141042314586485006
200,1.6014467695790389758186161728308
201,1.6024511920804609321728543493005
202,1.6034506284931283576628518395058
203,1.6044451280979073075218946785521
204,1.6054347394486705623302440292892
205,1.6064195103865289250147360147012
206,1.6073994880537177790670934102886
207,1.6083747189071447786102086746201
208,1.6093452487316128917213608664956
209,1.6103111226527245398440842820278
210,1.6112723851494783288920314179059
211,1.6122290800665657310055528158721
212,1.6131812506263779440872615114477
213,1.6141289394407273070092846380788
214,1.6150721885222982461798389985303
215,1.6160110392958269596985835211197
216,1.6169455326090237935556230919882
217,1.6178757087432422689143332693061
218,1.6188016074239037329253606158718
219,1.6197232678306809060057905548757
220,1.6206407286074528337083370336299
221,1.6215540278720291454683254790246
222,1.6224632032256608175912510361499
223,1.6233682917623310013095652133325
224,1.6242693300778409752042614608980
225,1.6251663542786937785312291334997
226,1.6260593999907790633904952174360
227,1.6269485023678678085819847744616
228,1.6278336960999187053447061447653
229,1.6287150154212033671197983642648
230,1.6295924941182550495711869266755
231,1.6304661655376426701240042964598
232,1.6313360625935805359302894254998
233,1.6322022177753687657564097192359
234,1.6330646631546805518466818217248
235,1.6339234303926894328527650403639
236,1.6347785507470462765857765238083
237,1.6356300550787095927071386716729
238,1.6364779738586309063576261389281
239,1.6373223371743006282926605699352
240,1.6381631747361565749292760218279
241,1.6390005158838594196397186119385
242,1.6398343895924379312293376038968
243,1.6406648244783080303587891064971
244,1.6414918488051673521323467793491
245,1.6423154904897696879498410755682
246,1.6431357771075818251755422018373
247,1.6439527358983241663948541438259
248,1.6447663937714027087993233996977
249,1.6455767773112273522003266743010
250,1.6463839127824269197782026744788
251,1.6471878261349587909789608439152
252,1.6479885430091159444593896889519
253,1.6487860887404364826839743343872
254,1.6495804883645152944317507771370
255,1.6503717666217217346428392166589
256,1.6511599479618234063729014379440
257,1.6519450565485224356000500975395
258,1.6527271162639006829444015546057
259,1.6535061507127806951515311281904
260,1.6542821832270027820454956127734
261,1.6550552368696185320096901399624
262,1.6558253344390054907287756530809
263,1.6565924984729018530798830675166
264,1.6573567512523666183321229667095
265,1.6581181148056637331888270591323
266,1.6588766109120723897103527651140
267,1.6596322611056266906566740206600
268,1.6603850866787847152546699165546
269,1.6611351086860312545959026671335
270,1.6618823479474099400956673943890
271,1.6626268250519940482562969116375
272,1.6633685603612899605853639377475
273,1.6641075740125807210695820326361
274,1.6648438859222068995086188264297
275,1.6655775157887886355745091458128
276,1.6663084830963871412359943810766
277,1.6670368071176131448477686414469
278,1.6677625069166740308390668987233
279,1.6684856013523711774566597564944
280,1.6692061090810395854187308550378
281,1.6699240485594376862937242778368
282,1.6706394380475848268627088661461
283,1.6713522956115496419031843300517
284,1.6720626391261864719199892481572
285,1.6727704862778266330757864281192
286,1.6734758545669205640570076698894
287,1.6741787613106359091581995467056
288,1.6748792236454079393522980145439
289,1.6755772585294469594024490857430
290,1.6762728827452034335348026924731
291,1.6769661129017886706041481822942
292,1.6776569654373539536513417487404
293,1.6783454566214320196188006700686
294,1.6790316025572359261318392949646
295,1.6797154191839173924819625237953
296,1.6803969222787922003658382922449
297,1.6810761274595225860967750680414
298,1.6817530501862659410331912190392
299,1.6824277057637866230721568830229
300,1.6831001093435326298044511684170
301,1.6837702759256775447597787800954
302,1.6844382203611298496654744459690
303,1.6851039573535067758385235370381
304,1.6857675014610762722315798692912
305,1.6864288670986685186506865170534
306,1.6870880685395562473556322868407
307,1.6877451199173010550082438027158
308,1.6884000352275731834089382706064
309,1.6890528283299408582983938033085
310,1.6897035129496295213833677446325
311,1.6903521026792545505015533277432
312,1.6909986109805249810706410615331
313,1.6916430511859196215828671857345
314,1.6922854365003373674315171993137
315,1.6929257800027210327260035630530
316,1.6935640946476560757501744912804
317,1.6942003932669417566829856664874
318,1.6948346885711400788400945487158
319,1.6954669931510996550120783417907
320,1.6960973194794545001723240348991
321,1.6967256799121016695027374019293
322,1.6973520866896538561835600294531
323,1.6979765519388704630005442895450
324,1.6985990876740661249253378301824
325,1.6992197057984984446642546002858
326,1.6998384181057331784185480847493
327,1.7004552362809896926269195352270
328,1.7010701719024638809010763379003
329,1.7016832364426335160295987920602
330,1.7022944412695424687320326215941
331,1.7029037976480652317568913173712
332,1.7035113167411528105640040499714
333,1.7041170096110603591464421645116
334,1.7047208872205547450148981672140
335,1.7053229604341063582772623356859
336,1.7059232400190612228647594365138
337,1.7065217366467962821515329588359
338,1.7071184608938589178197383108262
339,1.7077134232430867664782766647049
340,1.7083066340847139253768187048184
341,1.7088981037174592607940556407906
342,1.7094878423495993162514255021221
343,1.7100758601000254583432138338739
344,1.7106621669992852538927462901749
345,1.7112467729906098977717875349371
346,1.7118296879309251661800722660060
347,1.7124109215918494607482345689928
348,1.7129904836606757551902801676185
349,1.7135683837413409894354942519217
350,1.7141446313553804535839447371362
351,1.7147192359428692492946954969890
352,1.7152922068633505109766131660428
353,1.7158635533967496711664832139452
354,1.7164332847442761845770965918376
355,1.7170014100293130761053699962945
356,1.7175679382982925225974854125963
357,1.7181328785215607074238402934853
358,1.7186962395942311918787398178967
359,1.7192580303370225485603078088882
360,1.7198182594970891946650726001156
361,1.7203769357488371700832957255761
362,1.7209340676947313419127440067850
363,1.7214896638660886310219303955316
364,1.7220437327238622846757526482458
365,1.7225962826594154316105595597731
366,1.7231473219952827972483974259755
367,1.7236968589859234710818341340911
368,1.7242449018184615149811004619164
369,1.7247914586134190449905805783055
370,1.7253365374254374998141794340880
371,1.7258801462439899493225379489726
372,1.7264222929940833995863410995068
373,1.7269629855369510611769135139416
374,1.7275022316707388892395946553572
375,1.7280400391311770869371180396612
376,1.7285764155922480285052591371414
377,1.7291113686668423911606017870602
378,1.7296449059074066632995425455769
379,1.7301770348065838688196224582536
380,1.7307077627978442643583724005761
381,1.7312370972561088849154869677528
382,1.7317650454983630560588584164933
383,1.7322916147842645474080308301538
384,1.7328168123167413311271293116556
385,1.7333406452425825667151515342820
386,1.7338631206530234707778153647337
387,1.7343842455843198211507290590386
388,1.7349040270183160322046263674819
389,1.7354224718830074760508025297922
390,1.7359395870530942387856732298186
391,1.7364553793505266287473923514655
392,1.7369698555450460451945466901731
393,1.7374830223547186809264376587772
394,1.7379948864464606399747453751684
395,1.7385054544365573272733240751216
396,1.7390147328911767612076352076868
397,1.7395227283268764389866358314046
398,1.7400294472111037630058741698531
399,1.7405348959626885940298515730230
400,1.7410390809523322311868746249792
401,1.7415420085030888677329378343552
402,1.7420436848908402678395349877914
403,1.7425441163447664851827417566553
404,1.7430433090478105164630724309624
405,1.7435412691371343553406668820578
406,1.7440380027045725558619320529219
407,1.7445335157970804221378684247735
408,1.7450278144171743275117891930544
409,1.7455209045233670243358732072237
410,1.7460127920306004588789110577008
411,1.7465034828106703514291040824313
412,1.7469929826926461242256128988406
413,1.7474812974632872563267879253051
414,1.7479684328674524893076350931180
415,1.7484543946085061677977828092767
416,1.7489391883487181445435427210025
417,1.7494228197096600985307685678245
418,1.7499052942725954294577409750721
419,1.7503866175788670071223985646290
420,1.7508667951302777577003499219763
421,1.7513458323894680391514234000931
422,1.7518237347802890874156094423069
423,1.7523005076881703695942709304343
424,1.7527761564604844579006337617250
425,1.7532506864069058037982285720372
426,1.7537241027997670192291803630180
427,1.7541964108744101496218169035126
428,1.7546676158295329524300052440144
429,1.7551377228275340936532505829522
430,1.7556067369948501245087718196102
431,1.7560746634222917419749635957482
432,1.7565415071653764827870186507779
433,1.7570072732446531888495333245828
434,1.7574719666460293420713935800410
435,1.7579355923210890923664334097278
436,1.7583981551874098798823983092093
437,1.7588596601288758128973695785631
438,1.7593201119959867835236059430433
439,1.7597795156061640025942925968082
440,1.7602378757440530250241554198157
441,1.7606951971618214255724253360384
442,1.7611514845794546887323054770971
443,1.7616067426850499605208198291646
444,1.7620609761351022816210360002903
445,1.7625141895547926326172641346191
446,1.7629663875382688157532637537751
447,1.7634175746489263424691934829688
448,1.7638677554196825450024060428737
449,1.7643169343532517526452397009043
450,1.7647651159224136851875251381441
451,1.7652123045702825667314617160351
452,1.7656585047105698013156256057755
453,1.7661037207278459535154818504702
454,1.7665479569777984230633167079669
455,1.7669912177874884374565329394622
456,1.7674335074556026596529495628679
457,1.7678748302527041066584823622833
458,1.7683151904214787750076174806632
459,1.7687545921769804871640183220456
460,1.7691930397068736012918430127872
461,1.7696305371716714342285435012556
462,1.7700670887049736108210678994890
463,1.7705026984137009435072716432667
464,1.7709373703783260031637919838417
465,1.7713711086531033500710877861787
466,1.7718039172662965558118705401116
467,1.7722358002204012967400374356803
468,1.7726667614923695347838376883296
469,1.7730968050338272624067270303577
470,1.7735259347712933363922290000320
471,1.7739541546063936676938439034518
472,1.7743814684160750650920956405919
473,1.7748078800528140836974526080241
474,1.7752333933448283824322517118398
475,1.7756580120962795133857225145651
476,1.7760817400874796569920463022838
477,1.7765045810750926361748125380653
478,1.7769265387923338855928835713122
479,1.7773476169491682655265045926887
480,1.7777678192325061151363606937629
481,1.7781871493063960961304031850957
482,1.7786056108122183957824836536061
483,1.7790232073688736694656071778892
484,1.7794399425729705426188852396215
485,1.7798558199990131491935407323139
486,1.7802708431995832915428469437516
487,1.7806850157055240707135975718426
488,1.7810983410261195838037875802507
489,1.7815108226492739166663258286443
490,1.7819224640416872951899799310432
491,1.7823332686490315295434730657895
492,1.7827432398961233396799389731940
493,1.7831523811870955372183691183156
494,1.7835606959055671578561325259612
495,1.7839681874148107369214494497306
496,1.7843748590579199726056620874836
497,1.7847807141579734625145348589601
498,1.7851857560181984589145281105360
499,1.7855899879221321401200256927842
500,1.785993413133782528619293376884
501,1.786396034897784802083202808431
502,1.786797856439560452537937675633
503,1.787198880965470761936938764604
504,1.787599111662972438076686142027
505,1.787998551700768258430631528072
506,1.788397204228958452102717555721
507,1.788795072379190668039970762860
508,1.789192159264808169581298388957
509,1.789588467980994486349968406151
510,1.789984001604920576849191278836
511,1.790378763195887732963774026198
512,1.790772755795470126691157412256
513,1.791165982427655614978665030055
514,1.791558446098985479271140105062
515,1.791950149798693474217320964446
516,1.792341096498842396082515600711
517,1.792731289154459245822299891455
518,1.793120730703670772428848723478
519,1.793509424067836178726307608040
520,1.793897372151679846861550071395
521,1.794284577843420878966883896650
522,1.794671044014903729455555896706
523,1.795056773521726366374545609758
