Eigenstate,Potential Energy
1,0.500000000046453564355624320319714981
2,0.64623093795433935820947886170460118
3,0.73633761059567403928783277443287023
4,0.79966527966946260140903982917846690
5,0.8480465784993147696365172150405860
6,0.8870660018430653455476266540671056
7,0.9197208311403726628146807756024742
8,0.9477838527689738823796051830426397
9,0.9723835657356157276172128462469994
10,0.9942802241891726463788968250155901
11,1.0140093982708961221409357021993461
12,1.0319621832855769807901997081727692
13,1.0484327092991538887998446307311220
14,1.0636476739948844922990281365088119
15,1.0777854584875360998710364692256979
16,1.090988932193834456750224778323324
17,1.103374286293970592441695594385268
18,1.115037284737802056045616659359067
19,1.126057787348831822401547594533175
20,1.136503087458145689347891550991179
21,1.146430417986110173566526279246131
22,1.155888862601113190004052461396887
23,1.164920833656089128068363243633199
24,1.173563229588941339334160122906931
25,1.181848351718468788807051334268308
26,1.189804638051954013318770808148218
27,1.197457256247739125323201567005989
28,1.204828586974265788418441728975397
29,1.211938621112027267451369649516520
30,1.218805288595393085376284847025031
31,1.225444732545328317969287376251790
32,1.231871539266129972061383876165289
33,1.238098932369655088308266455274370
34,1.244138937539968942987897685767238
35,1.250002523112146657352755635855061
36,1.255699720605482644325828183311615
37,1.261239728547277773678615287082775
38,1.266631002292955393591272323515816
39,1.271881332050408696906144821894898
40,1.276997910920661136788197169109534
41,1.281987394450171322745495779787736
42,1.286855952935121226428048696756468
43,1.291609317511540181684707088059283
44,1.296252820897023147836946017972978
45,1.300791433512232136118785455166642
46,1.305229795597233416629258535531982
47,1.309572245844246510805252914530209
48,1.313822846990794610169192071303250
49,1.317985408752583518205373279776035
50,1.32206350842131349856237868651734
51,1.32606050940716145030406924188021
52,1.32997957796732561663018262183156
53,1.33382369832957491494001534386143
54,1.33759568639218384465521984404307
55,1.34129820215815843670484759479358
56,1.34493376104158413844972938027009
57,1.34850474416672756270354113712676
58,1.35201340776572684321650326485039
59,1.35546189176795139171180423658092
60,1.35885222766308734386238619551687
61,1.36218634571044075409067829803938
62,1.36546608155864959396022374383977
63,1.36869318233275371990722588784946
64,1.37186931223925949613777623890838
65,1.37499605773430091854360029673630
66,1.37807493229515174643480768733002
67,1.38110738083108085756220893230482
68,1.38409478376578688109309636770483
69,1.38703846082033549247751480773138
70,1.38993967452259448587772879213127
71,1.39279963346656303610268805139755
72,1.39561949534269331960895363039847
73,1.39840036975824965772636982771794
74,1.40114332086493149671357716113316
75,1.40384936980935543814561855971941
76,1.40651949702054197638032144896190
77,1.40915464434725020143217456549624
78,1.41175571705683792740201323567964
79,1.41432358570627788661855224600991
80,1.41685908789502250400321281822740
81,1.41936302990856042469319818952375
82,1.42183618826074651740398423971688
83,1.42427931114229834222278507213849
84,1.42669311978222777980836351971084
85,1.42907830972841724279880272271511
86,1.43143555205303402483943023691218
87,1.43376549448801887184333567964792
88,1.43606876249546148236099249308298
89,1.43834596027729214177409093889282
90,1.44059767172837547829930232656015
91,1.44282446133677087673708382379236
92,1.44502687503463578836132825229149
93,1.44720544100298592029014322646301
94,1.44936067043328335893984932024666
95,1.45149305824860252813532706935562
96,1.45360308378692206033326613795241
97,1.45569121144890631730550882921067
98,1.45775789131236742233462833991870
99,1.45980355971544519378511453223833
100,1.46182863981039602949713932174783
101,1.46383354208975248729564236990648
102,1.46581866488648973218629065701873
103,1.46778439484972710719688763025558
104,1.46973110739738582011275876601618
105,1.47165916714713066459726113844121
106,1.47356892832683292994523840208975
107,1.47546073516571357176170348531829
108,1.47733492226724647630358001220970
109,1.47919181496483305768840115480622
110,1.48103172966119700704855695752634
111,1.48285497415238215151136003940063
112,1.48466184793718694725172729431964
113,1.48645264251281359507007395506582
114,1.48822764165746100919190467888616
115,1.48998712170055042148280723075464
116,1.49173135178122407162458643863674
117,1.49346059409572572079136345543654
118,1.49517510413423069525892255343639
119,1.49687513090765945266443807777707
120,1.49856091716498282139870409215460
121,1.50023269960148879636864973156375
122,1.50189070905846186123534025799928
123,1.50353517071469361430064284569573
124,1.50516630427022579540701643207879
125,1.50678432412269724495191147901056
126,1.50838943953665112882073587144210
127,1.50998185480613818515577410987433
128,1.51156176941092916168897856130693
129,1.51312937816663753912801671981675
130,1.51468487136903525421805637135012
131,1.51622843493282873198349269943504
132,1.51776025052514755945348510057897
133,1.51928049569398635159042182472970
134,1.52078934399182908418257113213706
135,1.52228696509466706011910093610523
136,1.52377352491661798793534119207968
137,1.52524918572034034357302498338861
138,1.52671410622342357430912438538429
139,1.52816844170093259790186701408352
140,1.52961234408426960403379705929529
141,1.53104596205651160764208753583507
142,1.53246944114437413045932728534739
143,1.53388292380694273691846255799759
144,1.53528654952130697093903504210195
145,1.53668045486522705235225908793388
146,1.53806477359695582297218272842223
147,1.53943963673233022935385874414714
148,1.54080517261924767124601144953332
149,1.54216150700962901667203476608425
150,1.54350876312897192449516526830575
151,1.54484706174359038870092333077561
152,1.54617652122563080354426618985457
153,1.54749725761595349923312892926218
154,1.54880938468496364736753509750800
155,1.55011301399146977210395544841843
156,1.55140825493964773338477278022609
157,1.55269521483418122881197030709052
158,1.55397399893365063224271982124685
159,1.5552447105022338419157542146969
160,1.5565074508597854756223699819721
161,1.5577623194303529090166677951776
162,1.5590094137891886181405298713164
163,1.5602488297083136794363670356458
164,1.5614806612006870638169085431724
165,1.5627050005630293249836827427772
166,1.5639219384173511975567618179057
167,1.5651315637512343373095775991205
168,1.5663339639569068923965820997439
169,1.5675292248691589676381467060617
170,1.5687174308021377249532402041637
171,1.5698986645850623143743756545011
172,1.5710730075968965022775245888149
173,1.5722405398000143991318442761079
174,1.5734013397728951302577267071063
175,1.5745554847418804345006231326069
176,1.5757030506120248971478658099346
177,1.5768441119970720776005586911117
178,1.5779787422485856861710799517128
179,1.5791070134842622549267811535732
180,1.5802289966154562489533009416657
181,1.5813447613739402665982862032531
182,1.5824543763379280240554133731118
183,1.5835579089573831735375392605148
184,1.5846554255786381965493676353866
185,1.5857469914683451803580688840177
186,1.5868326708367794462551063966980
187,1.5879125268605198300819495956901
188,1.5889866217045210513081009793335
189,1.5900550165436019017238621320147
190,1.5911177715833649047967738894850
191,1.5921749460805666682145560756404
192,1.5932265983629553117882175996134
193,1.5942727858485932745329501175062
194,1.5953135650646788416789771966509
195,1.5963489916658843239397492714516
196,1.5973791204522245809059553354884
197,1.5984040053864702638542051870632
198,1.5994236996111199399170377725670
199,1.6004382554649439314360886293210
200,1.6014477244991138106645795894033
201,1.6024521574929285262042966240935
202,1.6034516044691505372944209042035
203,1.6044461147089626106399860204050
204,1.6054357367665568946479687706068
205,1.6064205184833662363888850544868
206,1.6074005070019507599876084866143
207,1.6083757487795455770747551033518
208,1.6093462896012838507100750753317
209,1.6103121745931009556118345910709
210,1.6112734482343312302978228864174
211,1.6122301543700046801011401177122
212,1.6131823362228538581894377585037
213,1.6141300364050353024827968224487
214,1.6150732969295805041602864378119
215,1.6160121592215756139872010880995
216,1.6169466641290838409204857044938
217,1.6178768519338145020346489792543
218,1.6188027623615476962189730721315
219,1.6197244345923178745819101131611
220,1.6206419072703688156903635141075
221,1.6215552185138779079346781052404
222,1.6224644059244669363843698563235
223,1.6233695065964929349664017930276
224,1.6242705571261341632642860924533
225,1.6251675936202737644808754417239
226,1.6260606517051846425057553332762
227,1.6269497665350242009338741112649
228,1.6278349728001407542353672706225
229,1.6287163047351987632199592771922
230,1.6295937961271275810325768657638
231,1.6304674803228954989438389201163
232,1.6313373902371195008477252233892
233,1.6322035583595057119641235754678
234,1.6330660167621366878041162191711
235,1.6339247971065987144905215290023
236,1.6347799306509588191942595031541
237,1.6356314482565951108058494967045
238,1.6364793803948821818447956139451
239,1.6373237571537370071784352890107
240,1.6381646082440274929590566413146
241,1.6390019630058479571179703691532
242,1.6398358504146643973576718476056
243,1.6406662990873335774057818938667
244,1.6414933372879976197561823998090
245,1.6423169929338584779986676412730
246,1.6431372936008348072941367445658
247,1.6439542665291026147703550462972
248,1.6447679386285272703819561019739
249,1.6455783364839818467399415429636
250,1.6463854863605621720205888129356
251,1.6471894142086964953705498684353
252,1.6479901456691525627127349146471
253,1.6487877060779471745605428508453
254,1.6495821204711578821031479323484
255,1.6503734135896407009954362023823
256,1.6511616098836539276254139479757
257,1.6519467335173944486079854586223
258,1.6527288083734429875696557209438
259,1.6535078580571250920799979992004
260,1.6542839059007882464402489126410
261,1.6550569749679954233917092068162
262,1.6558270880576397994821350011151
263,1.6565942677079794839827422191360
264,1.6573585362005977115204532436474
265,1.6581199155642870229635910027706
266,1.6588784275788596016049107016548
267,1.6596340937788869771854452656117
268,1.6603869354573691307699524796874
269,1.6611369736693372696841409187791
270,1.6618842292353859959503321611790
271,1.6626287227451441514695057777038
272,1.6633704745606783188060882120546
273,1.6641095048198364199813630573518
274,1.6648458334395286215860280248349
275,1.6655794801189494210822031691319
276,1.6663104643427391919407731524487
277,1.6670388053840926709195967513035
278,1.6677645223078061414226866384894
279,1.6684876339732748154017971700055
280,1.6692081590374325066626636998611
281,1.6699261159576414843961462399420
282,1.6706415229945300031991440679825
283,1.6713543982147807220295104379843
284,1.6720647594938671686271388626470
285,1.6727726245187450566599428088414
286,1.6734780107904944803374762915277
287,1.6741809356269180457816348739145
288,1.6748814161650913409289149127310
289,1.6755794693638703920264682339652
290,1.6762751120063568392488887529598
291,1.6769683607023186723740192778310
292,1.6776592318905694114244564714897
293,1.6783477418413096380481830715415
294,1.6790339066584259145531311735603
295,1.6797177422817491777399718419920
296,1.6803992644892801930938263477347
297,1.6810784888993720010601710498222
298,1.6817554309728786721562997967848
299,1.6824301060152671737753770289664
300,1.6831025291786940992868889168801
301,1.6837727154640476708708165948835
302,1.6844406797229571090166054013094
303,1.6851064366597665418160511316964
304,1.6857700008334770315783801716742
305,1.6864313866596581472946628139142
306,1.6870906084123283461709595074068
307,1.6877476802258013462046030961382
308,1.6884026160965059682527048990891
309,1.6890554298847755368796049932347
310,1.6897061353166071751508280132224
311,1.6903547459853945882987820787419
312,1.6910012753536318494141462534325
313,1.6916457367545895799349387739814
314,1.6922881433939653292286232232918
315,1.6929285083515074729350856723271
316,1.6935668445826140057343542643330
317,1.6942031649199037671693879560316
318,1.6948374820747654517921963422578
319,1.6954698086388815452206811963858
320,1.6961001570857271873893049885480
321,1.6967285397720478819530945163666
322,1.6973549689393121663024332762455
323,1.6979794567151427562536005558113
324,1.6986020151147251425815597065748
325,1.6992226560421954014029631361982
326,1.6998413912920054556635042662826
327,1.7004582325502686085130311620466
328,1.7010731913960825377913576016929
329,1.7016862793028347265121726451217
330,1.7022975076394867610401883788409
331,1.7029068876718389355673898165910
332,1.7035144305637762241424857278791
333,1.7041201473784959988216430352434
334,1.7047240490797156779771696831426
335,1.7053261465328646197099756347005
336,1.7059264505062563184318117176560
337,1.7065249716722437768776232924106
338,1.7071217206083591124148991520726
339,1.7077167077984334621722433675844
340,1.7083099436337032783437282484178
341,1.7089014384138987272633830381386
342,1.7094912023483166894156543527157
343,1.7100792455568779981884709927334
344,1.7106655780711689110949057088260
345,1.7112502098354686328150928793842
346,1.7118331507077603648735769714651
347,1.7124144104607294473297129026072
348,1.7129939987827454042258914444324
349,1.7135719252788314377389806631958
350,1.7141481994716189133975866315200
351,1.7147228308022889239909430685472
352,1.7152958286315006145577755697822
353,1.7158672022403055528577913491137
354,1.7164369608310495598264600455432
355,1.7170051135282623653228159402389
356,1.7175716693795332989853847075694
357,1.7181366373563762552685756885796
358,1.7187000263550831766945016558666
359,1.7192618451975618004954210369751
360,1.7198221026321666066015062757227
361,1.7203808073345147118804912684011
362,1.7209379679082931922682117741527
363,1.7214935928860524284424010900938
364,1.7220476907299904990734898567609
365,1.7226002698327268580627332591699
366,1.7231513385180641734788844168144
367,1.7237009050417412202476887045018
368,1.7242489775921736153692841072743
369,1.7247955642911870282540397126660
370,1.7253406731947385793999687482599
371,1.7258843122936292807691255740956
372,1.7264264895142064743923209484318
373,1.7269672127190562359674481995779
374,1.7275064897076900519837274849493
375,1.7280443282172164619940545484354
376,1.7285807359230091223041374768653
377,1.7291157204393630803463645118265
378,1.7296492893201424272026385616194
379,1.7301814500594211681373101045783
380,1.7307122100921140679619546227925
381,1.7312415767946003467270229454063
382,1.7317695574853373439705546671014
383,1.7322961594254688262463222662580
384,1.7328213898194229016943903319489
385,1.7333452558155031629722475825033
386,1.7338677645064737172623189839144
387,1.7343889229301338527564912208966
388,1.7349087380698862784821506849337
389,1.7354272168552996122193669670230
390,1.7359443661626623056823049490292
391,1.7364601928155283239715698874233
392,1.7369747035852581877424110872335
393,1.7374879051915528516427449998319
394,1.7379998043029790001875880992660
395,1.7385104075374886180123914662082
396,1.7390197214629324854440074287165
397,1.7395277525975672293697447775915
398,1.7400345074105559376123353689154
399,1.7405399923224609026766871119349
400,1.7410442137057327949023003811293
401,1.7415471778851923140181786500103
402,1.7420488911385050643962853890023
403,1.7425493596966524748222041945089
404,1.7430485897443966559561074551273
405,1.7435465874207366610115454599862
406,1.7440433588193622587715996111217
407,1.7445389099891023357487052565355
408,1.7450332469343654307714816581925
409,1.7455263756155752631633211725417
410,1.7460183019496037690845737435547
411,1.7465090318101959061482936397718
412,1.7469985710283898089941754617041
413,1.7474869253929333749770131536794
414,1.7479741006506937039145542125422
415,1.7484601025070636759578378585159
416,1.7489449366263620973183991562024
417,1.7494286086322302624456336449339
418,1.7499111241080220959960015297601
419,1.7503924885971921532156609840893
420,1.7508727076036764607686894992479
421,1.7513517865922701503070707846972
422,1.7518297309890011665021616049616
423,1.7523065461814978857928709388138
424,1.7527822375193542596963895482404
425,1.7532568103144888621618097481463
426,1.7537302698415014479318152516054
427,1.7542026213380245066675790161068
428,1.7546738700050698266531213670735
429,1.7551440210073739805962996440491
430,1.7556130794737355957667533060494
431,1.7560810504973519122571637848042
432,1.7565479391361517790218771054075
433,1.7570137504131204257283988818970
434,1.7574784893166271085013698353974
435,1.7579421608007434533772969475217
436,1.7584047697855603986075228134342
437,1.7588663211575018973293767356448
438,1.7593268197696343628210924996474
439,1.7597862704419725377995495502107
440,1.7602446779617828591331257264555
441,1.7607020470838814779812854177852
442,1.7611583825309304991718844306690
443,1.7616136889937320876772798253038
444,1.7620679711315150617274431045148
445,1.7625212335722233033952845503640
446,1.7629734809127970111733085628414
447,1.7634247177194539638934736967614
448,1.7638749485279640143697149907643
449,1.7643241778439246534548962650966
450,1.7647724101430297971407692049234
451,1.7652196498713392999873979625903
452,1.7656659014455420364259850004850
453,1.7661111692532182932049269537063
454,1.7665554576530978621329307861774
455,1.7669987709753174571955486272628
456,1.7674411135216727532569922017933
457,1.7678824895658697422676910458604
458,1.7683229033537718030936700777347
459,1.7687623591036449991139290132252
460,1.7692008610064012461586765175752
461,1.7696384132258372007427549593375
462,1.7700750198988720818814018657583
463,1.7705106851357830305011422772207
464,1.7709454130204361675963856609933
465,1.7713792076105173201179928194308
466,1.7718120729377595455459309666922
467,1.7722440130081667359239910454846
468,1.7726750318022383172610667689937
469,1.7731051332751875212693276494356
470,1.7735343213571607542546485868675
471,1.7739625999534523305483846882468
472,1.7743899729447188683809440269268
473,1.7748164441871886993923128721674
474,1.7752420175128737960723084658099
475,1.7756666967297731401912186042949
476,1.7760904856220800463372573893753
477,1.7765133879503837738759127028731
478,1.7769354074518701036409792022420
479,1.7773565478405197690742794095464
480,1.7777768128073051367300520933432
481,1.7781962060203836873634453520403
482,1.7786147311252918667391923274298
483,1.7790323917451346865156404331331
484,1.7794491914807738953219508346874
485,1.7798651339110161972763969089291
486,1.7802802225927961031175711055909
487,1.7806944610613602631170366302323
488,1.7811078528304478786530164371072
489,1.7815204013924704209473522166365
490,1.7819321102186885204190466686306
491,1.7823429827593881612721919576407
492,1.7827530224440547698510700575985
493,1.7831622326815451721167309960677
494,1.7835706168602585146455700098752
495,1.7839781783483043420100336280591
496,1.7843849204936710753360388751847
497,1.7847908466243905779386287147387
498,1.7851959600487027536795361382048
499,1.7856002640552176757645547797502
500,1.786003761913077376859755536448
501,1.786406456872113046954295618247
502,1.786808352163005094544369449377
503,1.787209450997437539670936796554
504,1.787609756568254583060013383319
505,1.788009272049612199254077422977
506,1.788408000597130484253908964249
507,1.788805945348044606133284544425
508,1.789203109421353999043046890880
509,1.789599495917968031946629241485
510,1.789995107920854205799419707223
511,1.790389948495182110729250854473
512,1.790784020688467043906920543362
513,1.791177327530711904356744866767
514,1.791569872034548041690412190265
515,1.791961657195375433607838210681
516,1.792352685991500403105300093508
517,1.792742961384271950760127405434
518,1.793132486318218488117287953530
519,1.793521263721181754785451744748
520,1.793909296504450776921815433227
521,1.794296587562892663035472786904
522,1.794683139775084514024122784733
523,1.795068956003442885339277354820
