Eigenstate,Potential Energy
1,0.500000000014269701031968392047261711
2,0.64623093774425977369882959134813258
3,0.73633760997858176892953201872545492
4,0.79966527838412860234734130498746183
5,0.8480465762728504709164848348069968
6,0.8870659983978045389340277062646478
7,0.9197208261964073246034382160233408
8,0.9477838460452118698048716001183265
9,0.9723835569502727500407694955428849
10,0.9942802130600220926108882481735754
11,1.0140093845154048974145993547713938
12,1.0319621666209832559105530683505566
13,1.0484326894425132259816455827340863
14,1.0636476506630977716525960127747588
15,1.0777854313973664664663873437128549
16,1.090988901061917370838323124453871
17,1.103374250836819393240559555981754
18,1.115037244671810516669151157753840
19,1.126057742390274631963872175440701
20,1.136503037323177472659936920521231
21,1.146430362390763456874456380719965
22,1.155888801261295592425107235496320
23,1.164920766287579974181293181428710
24,1.173563155907387832090602637741912
25,1.181848271439381843526183841073813
26,1.189804550890703826839405409182730
27,1.197457161919550535526337290582382
28,1.204828485194213465796706448292254
29,1.211938511595030770548030873775922
30,1.218805171056211804649355320750053
31,1.225444606698556327211553967105342
32,1.231871404826190802412302322196334
33,1.238098789050796436770174657583049
34,1.244138785056257324953326716629513
35,1.250002361177462010779854996580638
36,1.255699548933512891733408175022899
37,1.261239546851513346974330391219077
38,1.266630810286683725824761714410280
39,1.271881129446708684300042651933349
40,1.276997697432397573803583019933913
41,1.281987169789989312454162671369749
42,1.286855716815440568068332867447312
43,1.291609069644549736952607712744535
44,1.296252560994675187195838186884818
45,1.300791161286236666188142979096941
46,1.305229510759052489526829975186864
47,1.309571948105088516161321351952015
48,1.313822536061608550400264248639032
49,1.317985084344053267523710643728758
50,1.32206317024385204610357704021282
51,1.32606015717090512767450013373585
52,1.32997921138212831010741966798591
53,1.33382331710500226250029518125551
54,1.33759529023750741795105748012143
55,1.34129779078234990807186618804970
56,1.34493333415330943298351003546505
57,1.34850430147434099541399939801598
58,1.35201294897726524123803808236675
59,1.35546141659112820152204681902695
60,1.35885173580528672343977434313348
61,1.36218583687871164992127199143187
62,1.36546555545969980278649645681422
63,1.36869263867294393509597683621506
64,1.37186875072459733853037965259863
65,1.37499547807043495163922133807236
66,1.37807433418736547574607268239480
67,1.38110676398428671397270355383087
68,1.38409414788452018803693111741699
69,1.38703780560874841675282237645452
70,1.38993899968444997189861703645676
71,1.39279893870522872338699076793043
72,1.39561878036113544329309459072739
73,1.39839963425902693189258182495792
74,1.40114256455018898030951160378051
75,1.40384859238081838327125683709847
76,1.40651869817950965871259359767137
77,1.40915382379458973255324348443475
78,1.41175487449297804879314385146407
79,1.41432272083120274507762952202516
80,1.41685820040826540824043990540698
81,1.41936211950919758285592652946021
82,1.42183525464739075527845133265641
83,1.42427835401309280185740021251520
84,1.42669213883483959830015143835720
85,1.42907730466003121098172223350662
86,1.43143452256034622561058089832025
87,1.43376444026723029786024261353029
88,1.43606768324227163284063189773347
89,1.43834485568689259812173946787907
90,1.44059654149544345829282331840098
91,1.44282330515546276698975358063627
92,1.44502569259858065478399338621295
93,1.44720423200527899627108703174418
94,1.44935943456647951095844702320976
95,1.45149179520470969852322072190982
96,1.45360179325739468689463042829957
97,1.45568989312463872950553682355840
98,1.45775654488368721376334130198547
99,1.45980218487210657060114827475621
100,1.46182723624157313455412747657303
101,1.46383210948403269965145976153808
102,1.46581720293186694169324754287097
103,1.46778290323359496386885869073085
104,1.46972958580653095796274606209011
105,1.47165761526772589963694340807837
106,1.47356734584443043203567727099801
107,1.47545912176523801000214763641379
108,1.47733327763298813764314794744424
109,1.47919013878044093844301826341064
110,1.48103002160967187700338560214760
111,1.48285323391606959028660771910122
112,1.48466007519777035260737884187027
113,1.48645083695130716282287720265203
114,1.48822580295420268441547818873958
115,1.48998524953519482065951093687163
116,1.49172944583273537541530268576891
117,1.49345865404237053708698804622269
118,1.49517312965357089217499571695913
119,1.49687312167654496113783361670402
120,1.49855887285954440704279038376911
121,1.50023061989713080024097800106293
122,1.50188859362985490916931600350568
123,1.50353301923576729445008881335914
124,1.50516411641416130365003063239723
125,1.50678209956191999779779172076162
126,1.50838717794282334346107409781591
127,1.50997955585015142629833888507483
128,1.51155943276289685481008237044975
129,1.51312700349588744977658374703935
130,1.51468245834410193300175737953278
131,1.51622598322144592486466428297733
132,1.51775775979424058297941301865547
133,1.51927796560966443268031840477866
134,1.52078677421937766409017870156077
135,1.52228435529854006218716327557720
136,1.52377087476043004875543087670850
137,1.52524649486685900716091850819944
138,1.52671137433456144890325070467915
139,1.52816566843773947498903519415020
140,1.52960952910692453920355761375547
141,1.53104310502431496286796556541519
142,1.53246654171573957740187060057061
143,1.53387998163938922084211037358700
144,1.53528356427145063483130973002234
145,1.53667742618877312083091346457088
146,1.53806170114869044556232197264473
147,1.53943652016611228271381536254146
148,1.54080201158800051991762750614149
149,1.54215830116533223192717385054939
150,1.54350551212265296084735744296298
151,1.54484376522531621764696408762659
152,1.54617317884449950409763825254320
153,1.54749386902008580480715419125197
154,1.54880594952149444856282041906416
155,1.55010953190653957495092070872896
156,1.55140472557839407258816640994371
157,1.55269163784073003554104057011968
158,1.55397037395110755600642035455671
159,1.5552410371726755260588992763828
160,1.5565037288242507859745094363644
161,1.5577585483288341152217538112109
162,1.5590055932606225271912778298241
163,1.5602449593905727209335382843586
164,1.5614767407305703264692986828221
165,1.5627010295762535438606023533820
166,1.5639179165485416916008825362918
167,1.5651274906339158966135941153030
168,1.5663298392234946147427553040759
169,1.5675250481509490437959645422604
170,1.5687132017292981722254253573567
171,1.5698943827866236578777177670000
172,1.5710686727007424034400419078823
173,1.5722361514328722308835826722489
174,1.5733968975603264983878166905736
175,1.5745509883082716446485609231332
176,1.5756984995805773668924013828670
177,1.5768395059897926931047239925644
178,1.5779740808862771028373142533090
179,1.5791022963865131415110240348662
180,1.5802242234006314745821311658914
181,1.5813399316591710301282028627850
182,1.5824494897391019252084559219248
183,1.5835529650891342252421142764455
184,1.5846504240543367779103285634662
185,1.5857419319000879296744016437570
186,1.5868275528353790934990495271903
187,1.5879073500354949682472732092459
188,1.5889813856640858460304571161222
189,1.5900497208946557385702944565145
190,1.5911124159314819736161352800850
191,1.5921695300299854839350673521181
192,1.5932211215165681710424664788374
193,1.5942672478079356474851995893021
194,1.5953079654299186984236555951452
195,1.5963433300358113948343336302693
196,1.5973733964242395501953383125036
197,1.5983982185565738959376868087298
198,1.5994178495739021376032507536620
199,1.6004323418135727255244445342363
200,1.6014417468253242801862987113607
201,1.6024461153870116486493760657974
202,1.6034454975199419681444471213807
203,1.6044399425038313915206241317301
204,1.6054294988913940894080435766188
205,1.6064142145225734944068038880939
206,1.6073941365384288059986187759408
207,1.6083693113946826268063392798974
208,1.6093397848749439516055549911930
209,1.6103056021036122519154581737691
210,1.6112668075584741517676318667338
211,1.6122234450830000536087395459244
212,1.6131755578983509414588070805169
213,1.6141231886150997392125869083423
214,1.6150663792446821997671699077411
215,1.6160051712105765312000494166433
216,1.6169396053592257144477195834013
217,1.6178697219707064715197930591437
218,1.6187955607691538566910775312321
219,1.6197171609329447436000255509934
220,1.6206345611046527163736746505225
221,1.6215477994007722670611937469729
222,1.6224569134212294967336015810642
223,1.6233619402586728810728911305518
224,1.6242629165075591597406615377436
225,1.6251598782730369060605676355035
226,1.6260528611796313149471770096855
227,1.6269419003797388519193069882566
228,1.6278270305619335733887053587563
229,1.6287082859590922703589644132428
230,1.6295857003563431217624853398138
231,1.6304593070988396466894275349894
232,1.6313291390993703644127273125196
233,1.6321952288457991476968077933277
234,1.6330576084083524154389001407007
235,1.6339163094467463357258817129092
236,1.6347713632171637380575971049352
237,1.6356228005790843548460382643262
238,1.6364706520019701231835408885142
239,1.6373149475718109824416502993421
240,1.6381557169975333210987359376888
241,1.6389929896172753541255944284459
242,1.6398267944045322868595559725018
243,1.6406571599741752961197610903668
244,1.6414841145883460167793640627030
245,1.6423076861622309068844258295922
246,1.6431279022697180098658593222591
247,1.6439447901489374956085657805167
248,1.6447583767076935609102667552612
249,1.6455686885287826578237372015215
250,1.6463757518752084339811978651617
251,1.6471795926952912843058212359689
252,1.6479802366276753120032373786393
253,1.6487777090062377704291025794366
254,1.6495720348649006420826199866501
255,1.6503632389423482341483545718922
256,1.6511513456866508753458351954176
257,1.6519363792598011048241805077267
258,1.6527183635421587971531993815397
259,1.6534973221368120262541947142252
260,1.6542732783738540539675273946684
261,1.6550462553145767563068472726122
262,1.6558162757555852121245628341750
263,1.6565833622328323040680279472501
264,1.6573475370255787819768630017897
265,1.6581088221602773132463260103037
266,1.6588672394143826871864170197942
267,1.6596228103200913859059185257492
268,1.6603755561680105547175766064366
269,1.6611254980107606412606947775491
270,1.6618726566665074267623993998610
271,1.6626170527224327326709093422933
272,1.6633587065381377815017506152544
273,1.6640976382489866542880139403671
274,1.6648338677693870529286997087915
275,1.6655674147960122422910723266621
276,1.6662982988109624496955690516018
277,1.6670265390848732050734815822906
278,1.6677521546799623757210665211543
279,1.6684751644530273980947152342753
280,1.6691955870583847994927851796097
281,1.6699134409507598984271680216697
282,1.6706287443881241799326862717931
283,1.6713415154344835582404466278018
284,1.6720517719626146833302851315317
285,1.6727595316567560986023443936508
286,1.6734648120152502743931345610677
287,1.6741676303531415766067117613501
288,1.6748680038047265722166901677887
289,1.6755659493260613196830480482416
290,1.6762614836974263767904988712103
291,1.6769546235257473668284848227422
292,1.6776453852469739879988222410346
293,1.6783337851284213718052413495564
294,1.6790198392710688273187319556031
295,1.6797035636118180584434365930166
296,1.6803849739257184397222634254904
297,1.6810640858281492823865336760223
298,1.6817409147769684073804698219799
299,1.6824154760746238281951976974367
300,1.6830877848702302940946009317101
301,1.6837578561616111051478157492961
302,1.6844257047973072919776261758510
303,1.6850913454785513333303562104388
304,1.6857547927612089889731840562126
305,1.6864160610576906764218617920793
306,1.6870751646388316546952654069210
307,1.6877321176357381970465970870257
308,1.6883869340416072310962245245251
309,1.6890396277135155356280887129364
310,1.6896902123741788291925228712062
311,1.6903387016136843454147511371132
312,1.6909851088911944081377274969677
313,1.6916294475366223991449030692786
314,1.6922717307522829227326498681722
315,1.6929119716145154867718281729894
316,1.6935501830752830758969713445235
317,1.6941863779637431554243654279290
318,1.6948205689877964572404286570901
319,1.6954527687356106892187164268733
320,1.6960829896771191694202841937863
321,1.6967112441654983040079871024928
322,1.6973375444386200233020080438413
323,1.6979619026204826900122413494622
324,1.6985843307226194567833333417868
325,1.6992048406454858350297814799634
326,1.6998234441798247122837189684643
327,1.7004401530080116388074815295710
328,1.7010549787053775726614638322150
329,1.7016679327415140580822325895137
330,1.7022790264815572688330117802238
331,1.7028882711874523550989399404282
332,1.7034956780191991551472043666840
333,1.7041012580360796502856244949263
334,1.7047050221978653471213656126330
335,1.7053069813660089020304148980459
336,1.7059071463048160458676238820642
337,1.7065055276826006811410239850776
338,1.7071021360728242104806910448486
339,1.7076969819552151608868762243102
340,1.7082900757168751950756195731173
341,1.7088814276533672234773699133987
342,1.7094710479697881140156475249426
343,1.7100589467818256374330049697721
344,1.7106451341167996418488527106185
345,1.7112296199146892758611256946240
346,1.7118124140291437349644829318358
347,1.7123935262284800966211361013561
348,1.7129729661966650556860305838436
349,1.7135507435342841050888748012961
350,1.7141268677594957040907799246468
351,1.7147013483089725216975953019230
352,1.7152741945388294375726224335288
353,1.7158454157255375848050717115877
354,1.7164150210668258489888060077142
355,1.7169830196825701888734912921643
356,1.7175494206156689883553585957092
357,1.7181142328329076788308263303332
358,1.7186774652258118758991897487371
359,1.7192391266114847755382987138968
360,1.7197992257334377476578688834437
361,1.7203577712624058718851070451852
362,1.7209147717971548971686506555144
363,1.7214702358652742208001531510159
364,1.7220241719239609108338702383538
365,1.7225765883607930082582035505984
366,1.7231274934944909865758114519976
367,1.7236768955756702607900393493997
368,1.7242248027875815345142609806918
369,1.7247712232468436177373715966341
370,1.7253161650041644284088482362889
371,1.7258596360450530311410597833479
372,1.7264016442905216694962985258372
373,1.7269421975977777585630867678893
374,1.7274813037609101462901069218886
375,1.7280189705115603351363452147234
376,1.7285552055195901202422209102482
377,1.7290900163937374333212011549178
378,1.7296234106822635596726976773989
379,1.7301553958735935681067130977326
380,1.7306859793969467105342226100145
381,1.7312151686229596666480864103714
382,1.7317429708642997518532683597383
383,1.7322693933762727630969239140926
384,1.7327944433574204262876597773754
385,1.7333181279501110665473078824052
386,1.7338404542411241599357982497346
387,1.7343614292622245159731381979496
388,1.7348810599907300277434470117118
389,1.7353993533500736642531059214938
390,1.7359163162103568941343105317693
391,1.7364319553888948576194503062173
392,1.7369462776507568951474247059763
393,1.7374592897092999060721490251144
394,1.7379709982266931185532852598721
395,1.7384814098144371274848173838398
396,1.7389905310338768513114521997926
397,1.7394983683967080376232173901146
398,1.7400049283654773256445200055636
399,1.7405102173540744313908863092849
400,1.7410142417282207554322401773854
401,1.7415170078059504621641993664804
402,1.7420185218580847757847255216390
403,1.7425187901087023136973858400315
404,1.7430178187356033504117138078714
405,1.7435156138707654773668175326914
406,1.7440121816007967676935677665712
407,1.7445075279673835626160079887342
408,1.7450016589677303826666180755577
409,1.7454945805549948247728563255458
410,1.7459862986387199596736941837498
411,1.7464768190852584896644817748891
412,1.7469661477181922492394722472573
413,1.7474542903187481276719634263030
414,1.7479412526262068373575273569069
415,1.7484270403383088118627507998969
416,1.7489116591116536632927984126943
417,1.7493951145620960474444361511350
418,1.7498774122651350999605354477437
419,1.7503585577563017219779285952129
420,1.7508385565315386971700649062272
421,1.7513174140475775923481355771197
422,1.7517951357223117232026188125589
423,1.7522717269351630213049622712604
424,1.7527471930274464160733871893197
425,1.7532215393027281110417490419297
426,1.7536947710271813612504404539730
427,1.7541668934299372363676702271035
428,1.7546379117034303832068070245594
429,1.7551078310037437000052943554748
430,1.7555766564509447845483220134589
431,1.7560443931294216597683772763321
432,1.7565110460882149263114614067623
433,1.7569766203413416799435216291750
434,1.7574411208681222917094888138022
435,1.7579045526134978744949902257037
436,1.7583669204883463369557363638611
437,1.7588282293697951861584182982009
438,1.7592884841015300609717011112332
439,1.7597476894940996774849241648106
440,1.7602058503252182576410867108433
441,1.7606629713400626009095904218027
442,1.7611190572515673626171073785300
443,1.7615741127407181866034206483623
444,1.7620281424568373115447496692595
445,1.7624811510178709815735587405025
446,1.7629331430106696855143316723182
447,1.7633841229912683938737097649099
448,1.7638340954851600117554406598993
449,1.7642830649875698881733910423256
450,1.7647310359637235341722319106881
451,1.7651780128491150528174495341240
452,1.7656240000497691223703585661667
453,1.7660690019425022756865160187355
454,1.7665130228751798647526963208850
455,1.7669560671669723342006071824553
456,1.7673981391086061007616383636874
457,1.7678392429626137343345332378672
458,1.7682793829635798365268458329608
459,1.7687185633183851305588598334501
460,1.7691567882064484048366250211456
461,1.7695940617799641598816161832798
462,1.7700303881641391716303481650235
463,1.7704657714574265748367470273472
464,1.7709002157317556274450067609378
465,1.7713337250327611246297418631267
466,1.7717663033800095931610970271150
467,1.7721979547672215465713955877991
468,1.7726286831624948167241116908792
469,1.7730584925085214384416335884483
470,1.7734873867228056116914224700872
471,1.7739153696978770083960424698410
472,1.7743424453015037214369200551304
473,1.7747686173769002067118479038769
474,1.7751938897429377221967986218060
475,1.7756182661943461867238584614348
476,1.7760417505019199722360136400162
477,1.7764643464127179624708178517872
478,1.7768860576502625540158411729559
479,1.7773068879147364890738781716080
480,1.7777268408831779144719854119837
481,1.7781459202096722177411985876804
482,1.7785641295255442090058454606674
483,1.7789814724395460286295157824479
484,1.7793979525380436003225082577560
485,1.7798135733852031065353426166440
486,1.7802283385231720708794562459889
487,1.7806422514722618963039185446416
488,1.7810553157311264554604989463502
489,1.7814675347769399613017713398741
490,1.7818789120655719808999081848866
491,1.7822894510317617266297362928501
492,1.7826991550892902127608856726272
493,1.7831080276311502523232503106077
494,1.7835160720297153881394683892389
495,1.7839232916369059503706095560457
496,1.7843296897843554848446848079048
497,1.7847352697835732375347523184460
498,1.7851400349261066402831877331609
499,1.7855439884837012949338018173451
500,1.785947133708460586181817196913
501,1.786349473833000668987964451401
502,1.786751012070608285541123924471
503,1.787151751615392879696181696700
504,1.787551695642440852520920559033
505,1.787950847307964806209336349681
506,1.788349209749453506237804508217
507,1.788746786085820409575219303880
508,1.789143579417550398686448594724
509,1.789539592826842951995942796762
510,1.789934829377757803821022286923
511,1.790329292116356324620561275185
512,1.790722984070842521523518487154
513,1.791115908251702274640624419938
514,1.791508067651841485388615363230
515,1.791899465246723510891518039986
516,1.792290103994504094613730774288
517,1.792679986836164867781730280015
518,1.793069116695647206798376761343
519,1.793457496479983228412170877725
520,1.793845129079426779462855091982
521,1.794232017367581216251095255236
522,1.794618164201528249551041301561
523,1.795003572421954292242422553901
