Eigenstate,Potential Energy
1,0.500000000077609736130999433329977952
2,0.64623093815771140309789301199916256
3,0.73633761119306662407009736003293146
4,0.79966528091377345301040138251551253
5,0.8480465806547385535886667724276138
6,0.8870660051784348743443059545826573
7,0.9197208359267073984411735097957946
8,0.9477838592784593684081146174492822
9,0.9723835742411306853038679499576581
10,0.9942802349640504859433288417065289
11,1.0140094115887968079435582047343444
12,1.0319621994204151330956781292617873
13,1.0484327285250575028688798114321757
14,1.0636476965861712797393063715954000
15,1.0777854847187004631285510391857509
16,1.090988962339541144812080153102582
17,1.103374320629052704610996122975486
18,1.115037323537261963702037459161739
19,1.126057830887844102921262205998150
20,1.136503136012061481580747191844616
21,1.146430471830462559790879971685092
22,1.155888922011623333964664864359027
23,1.164920898908672980215566383051804
24,1.173563300959716774878462248061670
25,1.181848429483763081383309074092244
26,1.189804722488311572892074657744829
27,1.197457347631929447229372431320730
28,1.204828685583291573538147511142349
29,1.211938727223132683057657585451978
30,1.218805402486072143232079439856614
31,1.225444854493333351504467261670437
32,1.231871669549480198424796302219603
33,1.238099071266645244115357649362065
34,1.244139085329177984915113824265481
35,1.250002680072446520541519904065472
36,1.255699887016047052979270414589359
37,1.261239904687591099356874528684463
38,1.266631188442821557605167113638055
39,1.271881528489960113926045386036600
40,1.276998117930367697363983535452621
41,1.281987612310849412904025299296363
42,1.286856181927942782899384269771769
43,1.291609557918041781624895953379056
44,1.296253072999115132176899791469810
45,1.300791697592207765886563646486874
46,1.305230071937778061775113635442296
47,1.309572534728446871211694184308920
48,1.313823148702147968657525099220503
49,1.317985723575007025459754573773239
50,1.32206383663915348998580294845433
51,1.32606085130520279490081200655752
52,1.32997993383080109807806356125736
53,1.33382406844417464507535065041344
54,1.33759607104406470964511326820539
55,1.34129860163395357622656571028284
56,1.34493417562841245823648732963495
57,1.34850517415220328085085327103636
58,1.35201385343796907067420292641731
59,1.35546235341559374741417148147174
60,1.35885270557528760497343230582662
61,1.36218684017689054186365997400784
62,1.36546659286958409573043748798147
63,1.36869371077896144775512141005962
64,1.37186985811209208277597642257610
65,1.37499662132568295099659919267553
66,1.37807551389759063809403846221662
67,1.38110798073767675921212881017858
68,1.38409540227024263151603342446288
69,1.38703909821696660925642794324473
70,1.38994033110633919702649321302678
71,1.39280030953299235316388287930787
72,1.39562019118802115286852151278888
73,1.39840108567934297420388240391673
74,1.40114405715932052159555330968579
75,1.40385012677524390033798857991633
76,1.40652027495681739886424356431019
77,1.40915544355349423711554621771323
78,1.41175653783333674116684653664516
79,1.41432442835403258427208898739256
80,1.41685995271575960884808073548476
81,1.41936391720474240243950163958768
82,1.42183709833558235015353595727426
83,1.42428024429975415226289209269350
84,1.42669407632703750395992601468504
85,1.42907928996609335807065233534559
86,1.43143655628987832614793751221615
87,1.43376652303113330256363670692909
88,1.43606981565275901848327213891633
89,1.43834703835750773044553692660603
90,1.44059877504107703153957808439535
91,1.44282559019237032112248885669006
92,1.44502802974440017147993896675782
93,1.44720662187904857477770310380454
94,1.44936187778865512491350088576814
95,1.45149429239718303484969303834167
96,1.45360434504351106789096331710235
97,1.45569250012921511926168261669231
98,1.45775920773303031004274842055652
99,1.45980490419403098333908411721242
100,1.46183001266541965213245633840455
101,1.46383494364068664412038491438254
102,1.46582009545377661412055511556876
103,1.46778585475479018100739974676030
104,1.46973259696264168143776350747666
105,1.47166068669600095886480626890210
106,1.47357047818375634209647500934883
107,1.47546231565615788569931884563010
108,1.47733653371772070499414039804582
109,1.47919345770289964485596149079184
110,1.48103340401548410140585358964852
111,1.48285668045259595448374509858957
112,1.48466358651412413515818456215570
113,1.48645441369837381673475491079723
114,1.48822944578465945996900032637314
115,1.48998895910353049468704899040806
116,1.49173322279527008836914851494174
117,1.49346249905727573924481149096015
118,1.49517704338088940034252041824339
119,1.49687710477821112722124321333456
120,1.49856292599940439987597105080485
121,1.50023474374096300206536966257885
122,1.50189278884539042817717704442627
123,1.50353728649271059481495476970828
124,1.50516845638421095448151915898920
125,1.50678651291878954247144660229166
126,1.50839166536226229078743611083276
127,1.50998411800996636500931491206818
128,1.51156407034297269285485877569311
129,1.51313171717820877993329152725710
130,1.51468724881277452632562981782013
131,1.51623085116271835350803055175429
132,1.51776270589652597393396578850983
133,1.51928299056356235400628229088492
134,1.52079187871769614521326154796369
135,1.52228954003631774985905139681944
136,1.52377614043495850028902046960784
137,1.52525184217770512256793138263586
138,1.52671680398359004357750659436006
139,1.52817118112913599459519122938760
140,1.52961512554721791844765744626296
141,1.53104878592240062984261050155406
142,1.53247230778290260521632161945824
143,1.53388583358932762826439943927184
144,1.53528950282029883768737306288866
145,1.53668345205512553592292922851365
146,1.53806781505362524888691194115261
147,1.53944272283321532377883320551161
148,1.54080830374338939397454314610898
149,1.54216468353768051195514410657816
150,1.54351198544321459114357046342212
151,1.54485033022795007089790578339068
152,1.54617983626569410382456197734516
153,1.54750061959898421509960708766122
154,1.54881279399991933303355445096331
155,1.55011647102901842686629876713228
156,1.55141176009218461814895288614121
157,1.55269876849584581230876709994375
158,1.55397760150034366849251703677723
159,1.5552483623716345805148073728537
160,1.5565111524313690064431070670418
161,1.5577660711054076429325424714875
162,1.5590132159708339054042319844519
163,1.5602526828015175673590591455401
164,1.5614845656122841954153719736872
165,1.5627089567017389802813849678933
166,1.5639259466937954792445019237351
167,1.5651356245779565024913556123849
168,1.5663380777483898321665595853233
169,1.5675333920418438362548870558046
170,1.5687216517744427203984685844175
171,1.5699029397774016121043423920553
172,1.5710773374316993439967272560849
173,1.5722449247017443384402370646533
174,1.5734057801680694370450400239105
175,1.5745599810590896599834256497557
176,1.5757076032819526014679846938605
177,1.5768487214525147219260977900262
178,1.5779834089244726912653535067325
179,1.5791117378176762281733316540908
180,1.5802337790456533818501053148555
181,1.5813496023423709047580821796256
182,1.5824592762882574117740344982398
183,1.5835628683355123750175255185221
184,1.5846604448327251958913509999310
185,1.5857520710488261624589379708113
186,1.5868378111963902607770958057887
187,1.5879177284543176406849347823532
188,1.5889918849899061723635249249321
189,1.5900603419803398247563863290646
190,1.5911231596336085169277941857744
191,1.5921803972088786649104527430219
192,1.5932321130363308062440054818471
193,1.5942783645364826060522989227345
194,1.5953192082390105854399842994561
195,1.5963546998010885045674181389862
196,1.5973848940252560923014114751753
197,1.5984098448768324977626305363152
198,1.5994296055008886257473908941874
199,1.6004442282387911898778764481209
200,1.6014537646443324236790933110046
201,1.6024582654994564260003316172386
202,1.6034577808295955169332751831646
203,1.6044523599186272589464983581915
204,1.6054420513234637581407627184940
205,1.6064269028882832109764333685576
206,1.6074069617584167152127803663229
207,1.6083822743938962157273736461986
208,1.6093528865826778066617929710503
209,1.6103188434535461327667853530523
210,1.6112801894887113855888220100663
211,1.6122369685361062535000970007207
212,1.6131892238213930527396856543107
213,1.6141369979596854174001713303244
214,1.6150803329669995240901124328748
215,1.6160192702714340575449829863029
216,1.6169538507240928716857978921030
217,1.6178841146097543052093976095812
218,1.6188101016572961242036509029112
219,1.6197318510498793647674939513355
220,1.6206494014349035838069919694733
221,1.6215627909337314203428178129881
222,1.6224720571511996647404171733045
223,1.6233772371849103967396235832792
224,1.6242783676343172516296105046878
225,1.6251754846096093711593581020690
226,1.6260686237403965771731886872267
227,1.6269578201842044108660430751141
228,1.6278431086347808479099535754378
229,1.6287245233302218416443029293622
230,1.6296020980609203806186657869659
231,1.6304758661773408498038111185227
232,1.6313458605976291044366715345816
233,1.6322121138150532420503622786713
234,1.6330746579052912188025249940404
235,1.6339335245335584812498753993105
236,1.6347887449615853123856055910365
237,1.6356403500544475121174617940321
238,1.6364883702872521432469239175348
239,1.6373328357516837785800452296461
240,1.6381737761624134026405641219533
241,1.6390112208633742493832750500291
242,1.6398451988339074319123878882783
243,1.6406757386947813950316432941557
244,1.6415028687140868789150113523987
245,1.6423266168130117670660156762136
246,1.6431470105714983371880332526362
247,1.6439640772337842968082338107962
248,1.6447778437138351842679355834822
249,1.6455883366006631036538318635903
250,1.6463955821635421778508222455208
251,1.6471996063571186192058822348848
252,1.6480004348264182157798565398877
253,1.6487980929117563048697228326223
254,1.6495926056535498901395526364892
255,1.6503839977970357818706843862934
256,1.6511722937968948451817849359873
257,1.6519575178217887470476228000985
258,1.6527396937588056462615868925183
259,1.6535188452178216292796963337590
260,1.6542949955357782777406398640073
261,1.6550681677808766808086815431442
262,1.6558383847566926171645406177025
263,1.6566056690062117566240111429063
264,1.6573700428157903316386508424733
265,1.6581315282190398033075909783161
266,1.6588901470006376890359257071715
267,1.6596459207000677644779471505332
268,1.6603988706152896728706124327624
269,1.6611490178063422110648999144591
270,1.6618963830988760157906369657422
271,1.6626409870876249335021631712226
272,1.6633828501398100527647387872057
273,1.6641219923984838416901167081581
274,1.6648584337858115988380211405979
275,1.6655921940062940925613776491370
276,1.6663232925499296665501557801407
277,1.6670517486953232949909034873798
278,1.6677775815127343413946608779900
279,1.6685008098670745236701809875079
280,1.6692214524208481784218924530193
281,1.6699395276370427134112470502371
282,1.6706550537819667445684445732814
283,1.6713680489280391301209644173112
284,1.6720785309565260584973685118106
285,1.6727865175602329973929389213156
286,1.6734920262461475288684307632695
287,1.6741950743380381299049655753131
288,1.6748956789790053003236795793642
289,1.6755938571339896862685353771457
290,1.6762896255922379319195687561925
291,1.6769830009697241005159126480856
292,1.6776739997115295497397282543953
293,1.6783626380941851673815548084823
294,1.6790489322279710043517775405073
295,1.6797328980591753923327394123861
296,1.6804145513723211317902234966865
297,1.6810939077923486822243753409741
298,1.6817709827867656715732585956570
299,1.6824457916677595277898199376072
300,1.6831183495942749833616947619713
301,1.6837886715740568643807477523442
302,1.6844567724656602572661855433748
303,1.6851226669804252264457779059079
304,1.6857863696844196607020314698924
305,1.6864478950003516768932799406441
306,1.6871072572094508444534312199548
307,1.6877644704533154128345422179105
308,1.6884195487357330205330148293639
309,1.6890725059244709751822321553266
310,1.6897233557530364400790538230982
311,1.6903721118224101222710681434374
312,1.6910187876027509755677630690677
313,1.6916633964350733114561632217722
314,1.6923059515328981224324194449669
315,1.6929464659838779376354436425957
316,1.6935849527513965866690520255084
317,1.6942214246761414104697392468561
318,1.6948558944776532707212521489446
319,1.6954883747558514996363946825522
320,1.6961188779925337916315087205263
321,1.6967474165528549560957136126241
322,1.6973740026867806459642035383674
323,1.6979986485305195764113637122883
324,1.6986213661079332110921833515785
325,1.6992421673319246782014019257196
326,1.6998610640058051538745907563290
327,1.7004780678246405339880221671337
328,1.7010931903765755838598079650133
329,1.7017064431441405410242156053849
330,1.7023178375055366030645717409448
331,1.7029273847359017394064303324051
332,1.7035350960085578886261008589148
333,1.7041409823962399201509400733101
334,1.7047450548723045447004511437722
335,1.7053473243119234887346403407292
336,1.7059478014932569912996578768083
337,1.7065464970986104958658064419967
338,1.7071434217155755963608786065076
339,1.7077385858381513022680112646292
340,1.7083319998678517144966661936572
341,1.7089236741147958259794942794897
342,1.7095136187987819445281866957032
343,1.7101018440503463761284441806782
344,1.7106883599118063627809906528084
345,1.7112731763382890946282543863154
346,1.7118563031987442715804347984934
347,1.7124377502769437802209958454458
348,1.7130175272724652981503406206798
349,1.7135956438016633711331575935072
350,1.7141721093986255058428398542312
351,1.7147469335161153662656826347766
352,1.7153201255265027566022356630491
353,1.7158916947226796755219074964054
354,1.7164616503189638567401087180846
355,1.7170300014519901617011757373708
356,1.7175967571815880346685244734088
357,1.7181619264916482597871583451272
358,1.7187255182909782646615496257568
359,1.7192875414141417161372749070804
360,1.7198480046222913467689817112810
361,1.7204069166039867574186684344362
362,1.7209642859760036781708294186838
363,1.7215201212841292837775382515912
364,1.7220744310039485882394085025760
365,1.7226272235416201555163963396904
366,1.7231785072346400046754374378743
367,1.7237282903525966021375497327488
368,1.7242765810979137304223949643086
369,1.7248233876065858666160992654186
370,1.7253687179489017844307661202458
371,1.7259125801301592338801568729581
372,1.7264549820913696557720172623404
373,1.7269959317099528984779763165334
374,1.7275354368004262462173233514959
375,1.7280735051150784511953033014319
376,1.7286101443446402266075396469622
377,1.7291453621189429905235466960367
378,1.7296791660075690288905398917832
379,1.7302115635204949182973490796046
380,1.7307425621087249661279484337034
381,1.7312721691649175444185913862230
382,1.7318003920240014364877748019764
383,1.7323272379637868719171364401379
384,1.7328527142055662145253468895251
385,1.7333768279147079255452878983148
386,1.7338995862012444616379311074389
387,1.7344209961204498580795350212750
388,1.7349410646734109349425100843957
389,1.7354597988075928019974299331687
390,1.7359772054173958525099787337060
391,1.7364932913447045639635314111127
392,1.7370080633794317151944991344532
393,1.7375215282600554945695724491811
394,1.7380336926741480814591971284931
395,1.7385445632588985590720956025469
396,1.7390541466016298107336770338113
397,1.7395624492403090307579818651185
398,1.7400694776640518593189329944094
399,1.7405752383136187084120632111847
400,1.7410797375819075801931895485628
401,1.7415829818144394279752118739240
402,1.7420849773098368064866278044892
403,1.7425857303202986335598834417699
404,1.7430852470520689577878290823820
405,1.7435835336658971990915964692901
406,1.7440805962774959727531790341041
407,1.7445764409579936151908330417425
408,1.7450710737343789162739822591491
409,1.7455645005899409208808413153975
410,1.7460567274647063158565132921118
411,1.7465477602558686640935147893259
412,1.7470376048182130700805594875562
413,1.7475262669645373577721133775682
414,1.7480137524660661864597101582618
415,1.7485000670528623904871868148722
416,1.7489852164142319743688717102288
417,1.7494692061991256137675262223590
418,1.7499520420165338275895706752522
419,1.7504337294358801017735860303709
420,1.7509142739874069488140980522576
421,1.7513936811625588573729804725733
422,1.7518719564143614158012623092196
423,1.7523491051577944479897639755161
424,1.7528251327701627776038630877849
425,1.7533000445914610024515004171903
426,1.7537738459247358882710680210914
427,1.7542465420364438690786408191923
428,1.7547181381568036703316358999179
429,1.7551886394801479699301527049063
430,1.7556580511652669618590781459136
431,1.7561263783357513288927148447602
432,1.7565936260803317767136939372182
433,1.7570597994532104702462048207699
434,1.7575249034743954731218529938900
435,1.7579889431300260170092298475761
436,1.7584519233726965049274447443032
437,1.7589138491217774131257441054315
438,1.7593747252637320768886086924962
439,1.7598345566524300449485919494680
440,1.7602933481094580771837205186730
441,1.7607511044244259490089218403777
442,1.7612078303552706297515900098536
443,1.7616635306285584864505599104576
444,1.7621182099397801362831647402209
445,1.7625718729536472822209290547744
446,1.7630245243043825603043754250267
447,1.7634761685960095718483452933022
448,1.7639268104026363230454898005552
449,1.7643764542687399168334950809119
450,1.7648251047094446539584303806756
451,1.7652727662108010509317731093693
452,1.7657194432300586209603819891925
453,1.7661651401959381657729902624641
454,1.7666098615088999722843900215472
455,1.7670536115414115430868756573186
456,1.7674963946382101630298236626846
457,1.7679382151165650029971292990593
458,1.7683790772665351623356021633795
459,1.7688189853512261695535274021607
460,1.7692579436070445895042637600716
461,1.7696959562439485927929291629608
462,1.7701330274456977066523914195617
463,1.7705691613701003574200925090119
464,1.7710043621492573720600835317472
465,1.7714386338898054141905042945203
466,1.7718719806731574922256700096181
467,1.7723044065557398272556964344782
468,1.7727359155692301036118989387375
469,1.7731665117207895863381555794900
470,1.7735961989932966378299469337564
471,1.7740249813455759087108024697842
472,1.7744528627126275087327132199903
473,1.7748798470058515170263503575053
474,1.7753059381132753443482965893563
475,1.7757311398997728790027344629643
476,1.7761554562072879394115309537449
477,1.7765788908550523757678132379700
478,1.7770014476398035064907572078491
479,1.7774231303359997888595865312990
480,1.7778439426960351287212771557935
481,1.7782638884504503907500876551671
482,1.7786829713081456889699799350468
483,1.7791011949565888487935945199806
484,1.7795185630620228719191049348540
485,1.7799350792696738929056349554812
486,1.7803507472039542245171982497111
487,1.7807655704686673533011114111362
488,1.7811795526472094949450437290070
489,1.7815926973027709509782340981287
490,1.7820050079785351437414104672012
491,1.7824164881978774781324339059892
492,1.7828271414645626329822263172672
493,1.7832369712629402721974001458976
494,1.7836459810581402853092006576310
495,1.7840541742962657660171194040898
496,1.7844615544045869897520231966423
497,1.7848681247917320929053899782566
498,1.7852738888478784166546409540563
499,1.7856788499449420309477929504339
500,1.786083011436767587942469944650
501,1.786486376659314270350684967735
502,1.786888948930845309904301594453
503,1.787290731552112564759007417151
504,1.787691727806544021033304681670
505,1.788091940960427088026103105575
506,1.788491374263093439985196845485
507,1.788890030947103276006159833633
508,1.789287914228428662359112650515
509,1.789685027306634213269338225122
510,1.790081373365061189387883631030
511,1.790476955571008271890719354671
512,1.790871777075912940181875344837
513,1.791265841015532097663706191673
514,1.791659150510122651750720151116
515,1.792051708664622453154182327839
516,1.792443518568829836625055183998
517,1.792834583297582870847556874819
518,1.793224905910940136968970750672
519,1.793614489454359853000678939044
520,1.794003336958880237626981313958
521,1.794391451441297946472375496712
522,1.794778835904348896195222165941
523,1.795165493336887954114699226453
