Eigenstate,Potential Energy
1,0.500000000022631297497658219515649523
2,0.64623093779883986016956655193037831
3,0.73633761013890610564597967015987479
4,0.79966527871806513818584077435554900
5,0.8480465768512952290186960911593095
6,0.8870659992928932552374907419567732
7,0.9197208274808562256401785184216330
8,0.9477838477920424776283707196712895
9,0.9723835592326836662429658807007641
10,0.9942802159513236927098129039469220
11,1.0140093880889836404213265897865995
12,1.0319621709502810851985528664360168
13,1.0484326946010151857773735803839689
14,1.0636476567243243514905766104708626
15,1.0777854384348687977992917137733433
16,1.090988909149274215096483963364937
17,1.103374260047635295075662330953754
18,1.115037255079714738471504077461842
19,1.126057754068920626439069332582764
20,1.136503050346242734847439043811135
21,1.146430376831949649462640681865245
22,1.155888817194328871678539980319004
23,1.164920783786211465671018541541470
24,1.173563175045394220042742118064833
25,1.181848292290566047581563396848802
26,1.189804573528895746950518377275762
27,1.197457186418607850618049762766064
28,1.204828511628022475333865499843938
29,1.211938540037507270713077146683386
30,1.218805201581301992720974800433740
31,1.225444639380237729144657352731967
32,1.231871439738473219683391173684153
33,1.238098826267722909363539900853025
34,1.244138824651905107988434803859254
35,1.250002403225943562765940123803185
36,1.255699593508976872817936369665198
37,1.261239594028145625852740818822635
38,1.266630860138708394218252142224869
39,1.271881182048389078100025476641839
40,1.276997752858037300136263109154137
41,1.281987228113933282044371254214896
42,1.286855778112076032384427152985196
43,1.291609133988307329698569543323885
44,1.296252628460029969786324750976596
45,1.300791231947709176900033633112708
46,1.305229584691209796069000159859709
47,1.309572025382545271444737037117096
48,1.313822616759028051324466422495581
49,1.317985168536148516624450598805543
50,1.32206325800538681593070613925704
51,1.32606024857669502778996658572171
52,1.32997930650704185661093467269117
53,1.33382341602396195000542873970584
54,1.33759539302549079394762371042966
55,1.34129789751439064962174210798365
56,1.34493344490449842570683306494237
57,1.34850441631982741473117448407280
58,1.35201306799225763584044021146877
59,1.35546153985089557905073871187090
60,1.35885186338515963835727637586389
61,1.36218596885408329356639486723506
62,1.36546569190602709560667482466997
63,1.36869277966574862105541403634924
64,1.37186889633946708169576042046082
65,1.37499562838302443494784513087325
66,1.37807448927339750196395394105847
67,1.38110692391955330885264602301274
68,1.38409431274488370568874939096504
69,1.38703797547014264723988276440320
70,1.38993917462288125107656762032019
71,1.39279911879677704500222003435104
72,1.39561896568195557335982021551720
73,1.39839982488534952536883575929120
74,1.40114276055832170009344339563810
75,1.40384879384714702154027438866650
76,1.40651890518049926062882950646940
77,1.40915403640678572235976217961558
78,1.41175509279300735832611484416665
79,1.41432294489577494472049179317241
80,1.41685843031417384034674323585903
81,1.41936235533332049766823404124691
82,1.42183549646669244937128126253889
83,1.42427860190462475913274109913030
84,1.42669239287574163356462810580206
85,1.42907756492753261613499069039135
86,1.43143478913176691847497949249846
87,1.43376471321998197368218484416854
88,1.43606796265385891849463195958438
89,1.43834514163491420904835735494224
90,1.44059683405759335820218442694613
91,1.44282360440953133036267337618877
92,1.44502599862245583220305167828675
93,1.44720454487694748261434756461179
94,1.44935975436402791648881313414429
95,1.45149212200632572290674312185388
96,1.45360212714136829618133895301209
97,1.45569023416936333610669958926170
98,1.45775689316766085945927607323298
99,1.45980254047393311261402836420746
100,1.46182759923996343472044653307754
101,1.46383247995780581672909865532550
102,1.46581758095995132683833090079398
103,1.46778328889502965931780627945269
104,1.46972997918046679895522983878122
105,1.47165801643342671961562380994129
106,1.47356775488127427115887540142643
107,1.47545953875271832700582733927193
108,1.47733370265071502508879825231849
109,1.47919057190814234138828036935058
110,1.48103046292719481513246754858000
111,1.48285368350338138353777216016928
112,1.48466053313495985033500389028051
113,1.48645130331858597653180754195854
114,1.48822627783190642410561545020720
115,1.48998573300378433481881041651543
116,1.49172993797279799469956294083424
117,1.49345915493462132172502941351072
118,1.49517363937885388313807120034377
119,1.49687364031583443511230169158712
120,1.49855940049394613524533486063464
121,1.50023115660788331111585393865869
122,1.50188913949833075500734669021209
123,1.50353357434347432196934695157878
124,1.50516468084274392857835150860248
125,1.50678267339316048349752988676966
126,1.50838776125864308363670228556016
127,1.50998014873261223182772636849528
128,1.51156003529420224474053583593533
129,1.51312761575838394652694209509072
130,1.51468308042028036181207288330666
131,1.51622661519394271753523054177104
132,1.51775840174583908594117596877132
133,1.51927861762329621943884332275392
134,1.52078743637812385208570401259709
135,1.52228502768563263411344945047499
136,1.52377155745925317838032681028047
137,1.52524718796095038969188915211950
138,1.52671207790761363594129304406634
139,1.52816638257360121411467700846557
140,1.52961025388960211823891862759063
141,1.53104384053797355885901652339247
142,1.53246728804470461036540103551128
143,1.53388073886814771232206888547499
144,1.53528433248465257130954604645336
145,1.53667820547123282203748976278341
146,1.53806249158538793773089700885874
147,1.53943732184219467682792138891151
148,1.54080282458878339499376838647099
149,1.54215912557630102338112729768474
150,1.54350634802946435399019682580983
151,1.54484461271379954635767036177629
152,1.54617403800065815471942603772470
153,1.54749473993009862531493170417974
154,1.54880683227171716304943082457122
155,1.55011042658350620348016633165602
156,1.55140563226881835646289450282149
157,1.55269255663150686803482850216732
158,1.55397130492931441860770951036554
159,1.5552419804255739302767248667914
160,1.5565046844392877207552860550849
161,1.5577595163936435000268436292300
162,1.5590065738630266707854480330388
163,1.5602459526185837859345977391294
164,1.5614777466723917997096422671653
165,1.5627020483202817126116789172044
166,1.5639189481833671257118221324068
167,1.5651285352483249366156605198691
168,1.5663308969064708659716131288947
169,1.5675261189916748765839742121392
170,1.5687142858171562282166387104038
171,1.5698954802111983625184804566826
172,1.5710697835518214846985100735956
173,1.5722372758004482442517454065150
174,1.5733980355345983582200168151536
175,1.5745521399796461618908185297183
176,1.5756996650396707932571862977011
177,1.5768406853274322717462169349272
178,1.5779752741935026255825046067916
179,1.5791035037545785127023738844056
180,1.5802254449210062815879386659663
181,1.5813411674235421205770926372031
182,1.5824507398393749910048091880788
183,1.5835542296174353934197082799746
184,1.5846517031030142083817141839800
185,1.5857432255617134199340403728357
186,1.5868288612027496903384891324996
187,1.5879086732016345865411817848830
188,1.5889827237222468946525894077818
189,1.5900510739383207534989428620271
190,1.5911137840543652582890302618972
191,1.5921709133260347569140008905394
192,1.5932225200799662210484346943186
193,1.5942686617331019958651872085756
194,1.5953093948115112691106678559067
195,1.5963447749687281918626493720585
196,1.5973748570036203428333759684325
197,1.5983996948778019115014070159320
198,1.5994193417326057620132784695818
199,1.6004338499056272116706931224446
200,1.6014432709468534641642508009701
201,1.6024476556343896739325699498497
202,1.6034470539897950177582821538724
203,1.6044415152930394282829642441711
204,1.6054310880970926043025882040796
205,1.6064158202421552631556336920113
206,1.6073957588695456539008438144689
207,1.6083709504352472019101922674111
208,1.6093414407231315062817818320145
209,1.6103072748578624329003337679677
210,1.6112684973174927987444151173456
211,1.6122251519457610063968419980787
212,1.6131772819640978558804765413281
213,1.6141249299833479117074466153853
214,1.6150681380152204008253450564058
215,1.6160069474834688476852464380549
216,1.6169413992348134008820496224124
217,1.6178715335496098104026968352890
218,1.6187973901522740279252215237264
219,1.6197190082214657030975428121250
220,1.6206364264000430839167321566147
221,1.6215496828047872234913146412746
222,1.6224588150359126905447806157711
223,1.6233638601863583444840639488844
224,1.6242648548508732343236470440698
225,1.6251618351349001780001967409035
226,1.6260548366632605600108288967591
227,1.6269438945886489902136932073049
228,1.6278290435999396339822910298568
229,1.6287103179303113658490235528117
230,1.6295877513651964328663693444088
231,1.6304613772500544169402020902940
232,1.6313312284979819050399462838134
233,1.6321973375971528527737844301325
234,1.6330597366181057873785345952672
235,1.6339184572208710212075711235583
236,1.6347735306619475744684561171935
237,1.6356249878011334273203690125532
238,1.6364728591082108323249669684530
239,1.6373171746694921228130876834111
240,1.6381579641942281705659851562831
241,1.6389952570208837741410139638847
242,1.6398290821232828337728412760202
243,1.6406594681166273436037328265106
244,1.6414864432633918894590899132760
245,1.6423100354790980252588276758924
246,1.6431302723379710466116906339459
247,1.6439471810784805433571944359697
248,1.6447607886087723115884691869564
249,1.6455711215119865936504579728026
250,1.6463782060514730302128823661175
251,1.6471820681759002238236861976637
252,1.6479827335242627118365545760684
253,1.6487802274307904203092863754126
254,1.6495745749297602551237452364123
255,1.6503658007602137097503054594772
256,1.6511539293705805744172775362130
257,1.6519389849232151374231000587951
258,1.6527209912988413226436495058382
259,1.6534999721009135660786068388383
260,1.6542759506598938171348170800794
261,1.6550489500374449776971981506544
262,1.6558189930305455037127418094296
263,1.6565861021755240191677371098291
264,1.6573502997520193926095990336096
265,1.6581116077868648007389303073030
266,1.6588700480578979461023928230802
267,1.6596256420977006414164070984441
268,1.6603784111972677935187939435477
269,1.6611283764096100561454031830022
270,1.6618755585532858749539064016681
271,1.6626199782158722080289659062387
272,1.6633616557573679007106143054078
273,1.6641006113135371571378119266874
274,1.6648368647991903168021441945102
275,1.6655704359114058109683993316017
276,1.6663013441326915765917670617816
277,1.6670296087340934110224491557580
278,1.6677552487782420214225655808309
279,1.6684782831223502713407454125014
280,1.6691987304211527172910563613190
281,1.6699166091297953241403044141228
282,1.6706319375066728555528581947012
283,1.6713447336162171519198831495814
284,1.6720550153316334522892462816649
285,1.6727628003375915675373369133413
286,1.6734681061328679295087807847031
287,1.6741709500329435753960545328694
288,1.6748713491725544691155022004520
289,1.6755693205081988077249566182084
290,1.6762648808206020453906540379476
291,1.6769580467171374758247396080753
292,1.6776488346342052580801753987163
293,1.6783372608395737914586792918205
294,1.6790233414346784764266208415740
295,1.6797070923568799486646171924814
296,1.6803885293816893717913427060856
297,1.6810676681249507204666741509834
298,1.6817445240449893706065469584373
299,1.6824191124447237995448944175708
300,1.6830914484737421467266128490490
301,1.6837615471303440463471898006578
302,1.6844294232635498248497356516039
303,1.6850950915750742363858260070805
304,1.6857585666212683137476576453687
305,1.6864198628150307632757693457972
306,1.6870789944276881669395304098699
307,1.6877359755908411735419727414864
308,1.6883908202981841574751044702720
309,1.6890435424072944342885320052658
310,1.6896941556413913682161794557362
311,1.6903426735910689665610437391183
312,1.6909891097159994740685030044635
313,1.6916334773466093600346610480204
314,1.6922757896857295024211036131070
315,1.6929160598102188886167923699908
316,1.6935543006725632084868847999930
317,1.6941905251024458783114032025566
318,1.6948247458082968468560866394944
319,1.6954569753788163251358154940498
320,1.6960872262844734411261553967292
321,1.6967155108789837383553457278288
322,1.6973418414007616328056296255413
323,1.6979662299743513421606588627146
324,1.6985886886118352645364864705458
325,1.6992092292142215686750830973955
326,1.6998278635728092328246094935695
327,1.7004446033705333530595411180581
328,1.7010594601832879102336008943233
329,1.7016724454812309704211614645831
330,1.7022835706300687505114245468030
331,1.7028928468923199875291124549767
332,1.7035002854285616729033865491826
333,1.7041058972986565302203618521503
334,1.7047096934629604204623334161295
335,1.7053116847835139896463290386398
336,1.7059118820252146168929307343705
337,1.7065102958569715351516834537086
338,1.7071069368528451834140403478451
339,1.7077018154931668549011013595978
340,1.7082949421656447325456770785336
341,1.7088863271664520253261954320392
342,1.7094759807012997025812951858403
343,1.7100639128864934640740294183935
344,1.7106501337499749394921378998505
345,1.7112346532323489366983044521367
346,1.7118174811878942135049056886272
347,1.7123986273855613383110812998230
348,1.7129781015099544513062613441078
349,1.7135559131623004711438619442409
350,1.7141320718614032894054809881923
351,1.7147065870445850404393983012342
352,1.7152794680686141289180211269228
353,1.7158507242106192994727093084742
354,1.7164203646689911628626807023653
355,1.7169883985642715439419694196010
356,1.7175548349400288611937671747619
357,1.7181196827637227768578663463198
358,1.7186829509275573616388816859457
359,1.7192446482493185191218326433669
360,1.7198047834732046078018003453548
361,1.7203633652706420055843263990051
362,1.7209204022410920983452115265007
363,1.7214759029128442881506795306905
364,1.7220298757438000451210672880643
365,1.7225823291222462392940672964985
366,1.7231332713676166301465417650492
367,1.7236827107312444057746300719732
368,1.7242306553971025604518051193491
369,1.7247771134825367430999023511998
370,1.7253220930389862898392670925054
371,1.7258656020526962939178677155933
372,1.7264076484454196694898037436333
373,1.7269482400751091759497482761421
374,1.7274873847366037112945504153018
375,1.7280250901622995660728561295212
376,1.7285613640228180941303616518222
377,1.7290962139276615893528459665358
378,1.7296296474258605358099633627891
379,1.7301616720066140710934685938821
380,1.7306922950999204196063408444664
381,1.7312215240772001712302289305097
382,1.7317493662519095235328027212937
383,1.7322758288801481621685954694280
384,1.7328009191612567431650683627447
385,1.7333246442384075983404614641518
386,1.7338470111991893224965333630851
387,1.7343680270761809917133460944681
388,1.7348876988475199495341831694207
389,1.7354060334374638357149891561558
390,1.7359230377169440466333894225970
391,1.7364387185041109442850863203917
392,1.7369530825648744222324168119455
393,1.7374661366134373019780355042116
394,1.7379778873128201408469520563071
395,1.7384883412753803082358636999361
396,1.7389975050633249810829492759482
397,1.7395053851892176884516718210890
398,1.7400119881164784133482792374103
399,1.7405173202598758175491530763010
400,1.7410213879860158893809802550606
401,1.7415241976138230633576893480958
402,1.7420257554150145568758752002867
403,1.7425260676145707446927019610325
404,1.7430251403911994642606302400149
405,1.7435229798777917173486243664312
406,1.7440195921618748769688878688426
407,1.7445149832860605163131035990109
408,1.7450091592484843628768095426503
409,1.7455021260032412388328013397022
410,1.7459938894608175021163701424683
411,1.7464844554885152482241055902770
412,1.7469738299108718552997128436253
413,1.7474620185100759515507455557952
414,1.7479490270263762288252946820273
415,1.7484348611584873862956904306577
416,1.7489195265639896338657725935077
417,1.7494030288597246037731741837156
418,1.7498853736221848336060890525772
419,1.7503665663879010992312692812731
420,1.7508466126538225795382531730015
421,1.7513255178776938051683137027556
422,1.7518032874784276728139848313044
423,1.7522799268364723612134690681267
424,1.7527554412941757625481811240431
425,1.7532298361561438085870721082064
426,1.7537031166895962984011343102038
427,1.7541752881247177122605777964358
428,1.7546463556550030253858690604056
429,1.7551163244376024339219440590285
430,1.7555851995936578552241497794367
431,1.7560529862086387060912872057643
432,1.7565196893326741084419558418552
433,1.7569853139808768603122250153190
434,1.7574498651336702700921162815131
435,1.7579133477371056776561370945140
436,1.7583757667031785633574544282028
437,1.7588371269101414062356078442276
438,1.7592974332028122734803917714355
439,1.7597566903928798224358382061591
440,1.7602149032592057863353083151334
441,1.7606720765481221035992924401023
442,1.7611282149737262543192637127076
443,1.7615833232181744516002014280522
444,1.7620374059319673071096233678617
445,1.7624904677342373014680205486750
446,1.7629425132130290838058588662088
447,1.7633935469255797696311098958805
448,1.7638435733985924551839392230462
449,1.7642925971285107887573522312323
450,1.7647406225817867513999794997731
451,1.7651876541951491500679311490007
452,1.7656336963758656645482283657490
453,1.7660787535020041911979411442248
454,1.7665228299226898724208923669694
455,1.7669659299583614357262143957685
456,1.7674080579010221393394797950003
457,1.7678492180144900200449361504378
458,1.7682894145346438391262540235400
459,1.7687286516696672403012657489059
460,1.7691669336002907619636805569840
461,1.7696042644800295534268287302391
462,1.7700406484354200081889095916594
463,1.7704760895662539179603249375732
464,1.7709105919458083083273900726050
465,1.7713441596210749247564270964675
466,1.7717767966129864996035174263428
467,1.7722085069166390806136525201022
468,1.7726392945015154365174619872115
469,1.7730691633117020163897139909015
470,1.7734981172661069872765051843939
471,1.7739261602586736171648274300120
472,1.7743532961585933008717305016704
473,1.7747795288105135797213106679197
474,1.7752048620347486589681727562267
475,1.7756292996274813456867773933299
476,1.7760528453609689208964701780477
477,1.7764755029837432788817528701646
478,1.7768972762208100096597032857308
479,1.7773181687738453139406292494933
480,1.7777381843213911451249265861272
481,1.7781573265190471291719050743553
482,1.7785755989996628310876068243576
483,1.7789930053735257479890182332803
484,1.7794095492285478484568623437565
485,1.7798252341304521350124704207134
486,1.7802400636229538144677168345639
487,1.7806540412279429248871574631464
488,1.7810671704456630156044391453948
489,1.7814794547548891083462051224056
490,1.7818908976131028024622857315717
491,1.7823015024566666584147904861455
492,1.7827112727009964475814026525130
493,1.7831202117407312432471728339924
494,1.7835283229499024466887051381317
495,1.7839356096820999407074451021213
496,1.7843420752706386148925861810702
497,1.7847477230287209479904326828488
498,1.7851525562495995924882701879990
499,1.7855565782067374585849443919763
500,1.785959792153967427869794793637
501,1.786362201325647442566891247961
502,1.786763808936818425340890159117
503,1.787164618183356497602506464296
504,1.787564632242127339959479867200
505,1.787963854271135542081786637604
506,1.788362287409674671869903947325
507,1.788759934778475911749375925878
508,1.789156799479854901843486626198
509,1.789552884597855020703041892435
510,1.789948193198393156615933179318
511,1.790342728329401200354664603663
512,1.790736493020967159339233706241
513,1.791129490285474508732641028990
514,1.791521723117740455710575453787
515,1.791913194495153490984079872967
516,1.792303907377808437743962082333
517,1.792693864708640072596836360294
518,1.793083069413557103711196218635
519,1.793471524401573287950113015508
520,1.793859232564938543827266529634
521,1.794246196779266855346646227340
522,1.794632419903665242761954880137
523,1.795017904780860237245483583661
