Eigenstate,Potential Energy
1,0.500000000041689181826058442358114012
2,0.64623093792323988694822779177456353
3,0.73633761050432155539376805375568568
4,0.79966527947918496240050213566131208
5,0.8480465781697130936182064964161275
6,0.8870660013330325386183933050300568
7,0.9197208304084685699378117313621312
8,0.9477838517735816216906407717277180
9,0.9723835644350142765944666497207009
10,0.9942802225415735816939332583888644
11,1.0140093962344634845725075648015475
12,1.0319621808184385408025455773506307
13,1.0484327063594077304863376573178885
14,1.0636476705406029029123845226185870
15,1.0777854544767678337373828720609636
16,1.090988927584605977920728350996171
17,1.103374281044286652892309386168464
18,1.115037278805645828142019571769683
19,1.126057780692164724177451642454222
20,1.136503080034906992941477304427203
21,1.146430409754216457260963427195345
22,1.155888853518457675251625565677176
23,1.164920823680540930413094157181018
24,1.173563218678344653814563366906418
25,1.181848339830642024735325573990682
26,1.189804625144688889381783767046235
27,1.197457242278799733158379820934653
28,1.204828571901387630813665614875172
29,1.211938604892916275859164207849916
30,1.218805271187724620356706594932648
31,1.225444713906746155372762567483237
32,1.231871519354245277156480367453394
33,1.238098911142045379596904691776645
34,1.244138914954177047094298880646675
35,1.250002499125679656095545474995558
36,1.255699695175810814865685791660388
37,1.261239701631833522462345054739451
38,1.266630973849132184676653137795886
39,1.271881302035559975142427801292352
40,1.276997879292099246238769018952785
41,1.281987361165166420667447860734453
42,1.286855917950900193064734650236382
43,1.291609280785285526079168269159866
44,1.296252782385871909834246403423730
45,1.300791393173274784692214945609530
46,1.305229753387512744637721361113140
47,1.309572201720756526266005915178353
48,1.313822800910479424110545015797071
49,1.317985360672336229147443067257541
50,1.32206345829797507365993954322418
51,1.32606045719751960317351686407542
52,1.32997952362811368187236900359128
53,1.33382364181747071936182327570845
54,1.33759562766380857518511974020803
55,1.34129814117007550499101303099626
56,1.34493369775029804212351825953749
57,1.34850467852868274328608780606963
58,1.35201333973730654064169209507051
59,1.35546182130547649543504560250972
60,1.35885215472281524052108518846967
61,1.36218627024856417167925968451436
62,1.36546600353129544247979187333474
63,1.36869310169598192844750975281496
64,1.37186922894906184634679235935822
65,1.37499597174659987443846142083435
66,1.37807484356579928050530661767417
67,1.38110728931585727311715360943539
68,1.38409468942039963079786754569076
69,1.38703836360041799302992726196051
70,1.38993957438370492876801505927902
71,1.39279953036418319440220451592122
72,1.39561938923222735073115898698551
73,1.39840026059502290210253430472598
74,1.40114320860418927232476489922592
75,1.40384925440626183085152966370875
76,1.40651937843017862598474460115963
77,1.40915452252461508342396269020645
78,1.41175559195684413030969800474389
79,1.41432345728375238491597261401919
80,1.41685895610470492650281667313455
81,1.41936289470510181836292670092787
82,1.42183604959870810654301225498834
83,1.42427916897615028293071727273534
84,1.42669297406634790968180479078150
85,1.42907816041708982578863835155914
86,1.43143539910044849120148810633258
87,1.43376533784826855311449932479431
88,1.43606860212254234129223973044026
89,1.43834579612510149715131032331229
90,1.44059750375071072458218266434189
91,1.44282428948732819844573306297068
92,1.44502669926700886913972989406941
93,1.44720526127066464657495873738392
94,1.44936048668965251816249156243453
95,1.45149287044694050138464370974252
96,1.45360289188039950940560254923427
97,1.45569101539058486606830545567786
98,1.45775769105519833232915936846161
99,1.45980335521226803399333835678552
100,1.46182843101393734019710009282865
101,1.46383332895262443792920534768766
102,1.46581844736118877316242372181612
103,1.46778417288863261555313220243662
104,1.46973088095275873895684806096651
105,1.47165893617111213625030197947979
106,1.47356869277144292270721808573320
107,1.47546049498284950021947493774934
108,1.47733467740868181510084999143355
109,1.47919156538221594867659948527173
110,1.48103147530604885973684523533430
111,1.48285471497609623673338316106618
112,1.48466158389102698396602261440741
113,1.48645237354791233021045678904845
114,1.48822736772481879048339833942431
115,1.48998684275103376313812057864060
116,1.49173106776556421283536090049768
117,1.49346030496451717692775120424246
118,1.49517480983792980169036808672201
119,1.49687483139658290111382670827798
120,1.49856061238930618874131301081811
121,1.50023238951124506578661874091109
122,1.50189039360353993563766067332855
123,1.50353484984483682191789390774105
124,1.50516597793503038746936093306771
125,1.50678399227161088535806305278008
126,1.50838910211897137570484618310520
127,1.50998151177101096425850569081456
128,1.51156142070734723143805176608100
129,1.51312902374343894733290192794633
130,1.51468451117490178628256658482262
131,1.51622806891628435053928487782119
132,1.51775987863455683531655589777039
133,1.51928011787755288594195402264523
134,1.52078896019759392187456122384650
135,1.52228657527050709400435325414576
136,1.52377312901024435412056662359188
137,1.52524878367929680749287749566650
138,1.52671369799508490751812441107447
139,1.52816802723250294548025547691280
140,1.52961192332278084250241822032272
141,1.53104553494882169328054953586823
142,1.53246900763716543792064368152353
143,1.53388248384672038803251850553921
144,1.53528610305439715359619008959116
145,1.53668000183777532935750570184918
146,1.53806431395492543075917153430000
147,1.53943917042150036644716924173550
148,1.54080469958521177635913562351631
149,1.54216102719779303632725776807582
150,1.54350827648455257005076672441005
151,1.54484656821161338266983747893217
152,1.54617602075092911508745991843844
153,1.54749675014316556870977043750170
154,1.54880887015853159982291428375478
155,1.55011249235563761957511940466662
156,1.55140772613845956590256401547972
157,1.55269467881147939397719623140921
158,1.55397345563307390325287408733329
159,1.5552441598672155739176414943759
160,1.5565068928335517502647319012248
161,1.5577617539559206670758011571751
162,1.5590088408093637800906151686499
163,1.5602482491656892538349810372014
164,1.5614800730376412433750535086412
165,1.5627044047217235701882526572466
166,1.5639213348397283077122637367357
167,1.5651309523790165088644875084063
168,1.5663333447315937644184789965727
169,1.5675285977320256543004982514222
170,1.5687167956942328348951924606301
171,1.5698980214472059567938060144878
172,1.5710723563696782796159916983520
173,1.5722398804237913862087879716484
174,1.5734006721877898397099267557217
175,1.5745548088877787683813540709068
176,1.5757023664285740845388599943328
177,1.5768434194236785980882726631777
178,1.5779780412244131790375299564466
179,1.5791063039482294139034929031688
180,1.5802282785062347023853666251597
181,1.5813440346299524428641834743862
182,1.5824536408973450020865531467390
183,1.5835571647581225182799150912938
184,1.5846546725583617792081565718473
185,1.5857462295644569832642334124105
186,1.5868318999864233521917095224715
187,1.5879117470005773959058815092058
188,1.5889858327716092657015577997273
189,1.5900542184740709269078939537839
190,1.5911169643132958020377453588780
191,1.5921741295457691069524838465377
192,1.5932257724989652622142233508239
193,1.5942719505906706834411895853395
194,1.5953127203478052914166791677308
195,1.5963481374247606742771301454020
196,1.5973782566212685936458507613883
197,1.5984031318998142099994290602155
198,1.5994228164026081892116179819681
199,1.6004373624681305240942953395776
200,1.6014468216472600111002021390534
201,1.6024512447190003585700690058002
202,1.6034506817058163026399386727649
203,1.6044451818885903854940804150126
204,1.6054347938212120108296559932155
205,1.6064195653448087418488555102149
206,1.6073995436016328604799344217814
207,1.6083747750486090584565966430162
208,1.6093453054705574816647745751174
209,1.6103111799930978705887404267688
210,1.6112724430952462924597778987549
211,1.6122291386217118240683853818712
212,1.6131813097949034123665015214033
213,1.6141289992266512907524104518818
214,1.6150722489296579267260424746087
215,1.6160111003286777071444017629419
216,1.6169455942714393155320012244818
217,1.6178757710393147604866923989000
218,1.6188016703577440276282884033764
219,1.6197233314064186280240305097595
220,1.6206407928292365512160864226828
221,1.6215540927440265251387964326913
222,1.6224632687520587802886672312676
223,1.6233683579473358789758518473576
224,1.6242693969256786689528080448945
225,1.6251664217936099179604012863200
226,1.6260594681770391671294309158762
227,1.6269485712297574460815663901477
228,1.6278337656417436599266572825404
229,1.6287150856472898002970988989928
230,1.6295925650329496666528226842178
231,1.6304662371453128871176770692020
232,1.6313361348986146477565430352430
233,1.6322022907821761157878332875735
234,1.6330647368676917027861225678462
235,1.6339235048163563389644170993936
236,1.6347786258858424572933941481461
237,1.6356301309371303075735945574390
238,1.6364780504411933314604848038148
239,1.6373224144855440340101917458247
240,1.6381632527806425051516930800578
241,1.6390005946661718724207151771809
242,1.6398344691171835408930037751279
243,1.6406649047501162510772558456122
244,1.6414919298286906429895557002880
245,1.6423155722696836995070581966160
246,1.6431358596485855875546075255149
247,1.6439528192051402788950192799006
248,1.6447664778487775310638406302536
249,1.6455768621639311969492119281367
250,1.6463839984152542471237651563089
251,1.6471879125527284043409318705297
252,1.6479886302166711880963280619627
253,1.6487861767426454408581842765843
254,1.6495805771662709922251829038351
255,1.6503718562279423404413633516066
256,1.6511600383774524360366944976467
257,1.6519451477785289583381085926226
258,1.6527272083132795289112564336186
259,1.6535062435865526647844969102011
260,1.6542822769302148571610672170922
261,1.6550553314073440886779280685415
262,1.6558254298163445139444907814068
263,1.6565925946949811532500859881904
264,1.6573568483243400495990575352397
265,1.6581182127327124136082516310367
266,1.6588767096994049233050833290106
267,1.6596323607584793913653647109923
268,1.6603851872024218327963433379151
269,1.6611352100857452022708921360685
270,1.6618824502285215245437412950047
271,1.6626269282198527011931041935682
272,1.6633686644212739725386267290493
273,1.6641076789700974771364996561001
274,1.6648439917826931171565575820743
275,1.6655776225577106045070452715389
276,1.6663085907792409653466760057500
277,1.6670369157199249862842781103484
278,1.6677626164440003562007295743159
279,1.6684857118102990061486950343632
280,1.6692062204751867401865075829782
281,1.6699241608954530459608857885455
282,1.6706395513311485812973345408926
283,1.6713524098483735492361482212289
284,1.6720627543220141180404730250248
285,1.6727706024384336934287315037054
286,1.6734759716981150677677176404288
287,1.6741788794182585055098075080005
288,1.6748793427353321666419622550136
289,1.6755773786075795162024066540633
290,1.6762730038174844523848665434011
291,1.6769662349741919941625310182272
292,1.6776570885158874133309977757792
293,1.6783455807121377167367359099866
294,1.6790317276661905155992811503967
295,1.6797155453172323690635666234389
296,1.6803970494426141875366501865466
297,1.6810762556600336275257350800662
298,1.6817531794296837947222991853259
299,1.6824278360563650581812313848492
300,1.6831002406915617261914690098380
301,1.6837704083354839952669357366593
302,1.6844383538390772651818305971263
303,1.6851040919059959931705893360751
304,1.6857676370945456648131125348772
305,1.6864290038195943101237336859318
306,1.6870882063544528280554108566523
307,1.6877452588327213013842360853989
308,1.6884001752501087804153969584597
309,1.6890529694662226247882793267831
310,1.6897036552063277385392631308606
311,1.6903522460630792933382432244467
312,1.6909987554982264530442576407737
313,1.6916431968442884923418245334017
314,1.6922855833062051137450964484970
315,1.6929259279629602826267946948854
316,1.6935642437691809559273212434418
317,1.6942005435567082431630595681693
318,1.6948348400361463509934981960205
319,1.6954671457983864529231990199469
320,1.6960974733161054854118893348560
321,1.6967258349452437893415099342501
322,1.6973522429264577112873892139428
323,1.6979767093865506786466395506988
324,1.6985992463398817257803942384755
325,1.6992198656897532331661198922451
326,1.6998385792297761168026165141505
327,1.7004553986452152886399753316888
328,1.7010703355143125772454140777603
329,1.7016834013095920835808188761575
330,1.7022946073991444035745115929489
331,1.7029039650478911560814731656622
332,1.7035114854188308774731738508927
333,1.7041171795742666614128348909529
334,1.7047210584770137278394608758099
335,1.7053231329915912360940910547347
336,1.7059234138853944002402381076217
337,1.7065219118298497788260010232765
338,1.7071186374015547979408374184997
339,1.7077136010833975720752451844870
340,1.7083068132656631141262744164227
341,1.7088982842471216481279674239341
342,1.7094880242361015218587610522851
343,1.7100760433515463571181186527254
344,1.7106623516240564313815773869392
345,1.7112469589969161101732498878939
346,1.7118298753271048049526727630721
347,1.7124111103862950218801949399160
348,1.7129906738618343131880892263107
349,1.7135685753577146760876178090712
350,1.7141448243955269415572978591068
351,1.7147194304154022406219077705110
352,1.7152924027769402304936072151633
353,1.7158637507601233649598932123338
354,1.7164334835662186235021352813441
355,1.7170016103186670644361586876468
356,1.7175681400639594118720300889399
357,1.7181330817725009155466186180062
358,1.7186964443394647275453804807009
359,1.7192582365856295410693512195085
360,1.7198184672582104291826754373848
361,1.7203771450316746284277164499730
362,1.7209342785085487489265546408714
363,1.7214898762202120066005156370379
364,1.7220439466276805015218457887292
365,1.7225964981223807787855203679874
366,1.7231475390269115495920435021781
367,1.7236970775957964645732582706988
368,1.7242451220162247281142704194756
369,1.7247916804087841862397325789704
370,1.7253367608281826012644844919387
371,1.7258803712639599665431023262006
372,1.7264225196411908178233580480325
373,1.7269632138211765079464678528370
374,1.7275024616021317534001808713487
375,1.7280402707198561443227786868464
376,1.7285766488484020742027860490520
377,1.7291116036007308785137719561321
378,1.7296451425293603497255102894760
379,1.7301772731270054685240908696609
380,1.7307080028272091080364068484260
381,1.7312373390049655865269458760978
382,1.7317652889773341867681918600756
383,1.7322918600040473167799839996050
384,1.7328170592881082756707554878402
385,1.7333408939763822458702237060062
386,1.7338633711601811704388695774813
387,1.7343844978758382648254594057711
388,1.7349042811052760999049472479391
389,1.7354227277765689310158626248322
390,1.7359398447644964621380584603293
391,1.7364556388910893621852073265934
392,1.7369701169261701418232321803317
393,1.7374832855878868643358935343027
394,1.7379951515432382716690724049523
395,1.7385057214085931825620235503359
396,1.7390150017502038136683620122550
397,1.7395229990847126536116444239692
398,1.7400297198796528981462814095455
399,1.7405351705539410122525131565721
400,1.7410393574783657191613070439236
401,1.7415422869760694652673432886197
402,1.7420439653230231061864129158120
403,1.7425443987484966347366880178560
404,1.7430435934355238439753476029111
405,1.7435415555213583907763827598358
406,1.7440382910979273690282660885155
407,1.7445338062122795092139128262913
408,1.7450281068670255076111464798951
409,1.7455211990207733462371317868016
410,1.7460130885885611180598411682220
411,1.7465037814422816175425399272696
412,1.7469932834111022791581972190272
413,1.7474816002818815429822797377617
414,1.7479687377995780712603102306246
415,1.7484547016676570999626537642434
416,1.7489394975484903550125420529886
417,1.7494231310637523817269096472172
418,1.7499056077948104507611305251383
419,1.7503869332831123191241231564822
420,1.7508671130305668282438238150450
421,1.7513461524999212913217363616827
422,1.7518240571151349516411349100310
423,1.7523008322617463480270148065383
424,1.7527764832872382012445481244226
425,1.7532510155013962007565417149866
426,1.7537244341766652987457279658543
427,1.7541967445485009960939778480892
428,1.7546679518157156340720057330315
429,1.7551380611408236041941116036564
430,1.7556070776503783384100752815436
431,1.7560750064353085833570697121629
432,1.7565418525512511082561874316879
433,1.7570076210188751844198527718890
434,1.7574723168242099343806749504161
435,1.7579359449189623743863365849736
436,1.7583985102208340513279292296647
437,1.7588600176138344355434953983874
438,1.7593204719485900516393544061432
439,1.7597798780426500287100446067543
440,1.7602382406807891412495986162056
441,1.7606955646153055006866116355710
442,1.7611518545663164612716976037240
443,1.7616071152220523880942002513244
444,1.7620613512391429066833265454319
445,1.7625145672429049649395833756012
446,1.7629667678276237318294031009679
447,1.7634179575568335021031966533136
448,1.7638681409635918253252273070522
449,1.7643173225507546998135751809026
450,1.7647655067912449840217552585315
451,1.7652126981283215285531784824495
452,1.7656589009758418702509525992820
453,1.7661041197185242315336196293726
454,1.7665483587122052140252509234247
455,1.7669916222840968104527049894204
456,1.7674339147330380319134020409031
457,1.7678752403297458463245466613208
458,1.7683156033170618240586455261662
459,1.7687550079101970047974072846834
460,1.7691934582969746280598688271624
461,1.7696309586380685772406075641753
462,1.7700675130672407503258531117224
463,1.7705031256915759611739423851121
464,1.7709378005917125323865138387926
465,1.7713715418220725486282513846446
466,1.7718043534110889012159430448479
467,1.7722362393614284046196799196086
468,1.7726672036502160006456610503516
469,1.7730972502292525271318092124366
470,1.7735263830252335758272288355567
471,1.7739546059399637067019366759956
472,1.7743819228505703164379311810547
473,1.7748083376097125121446976304078
474,1.7752338540457924944392523148282
475,1.7756584759631583727936098824926
476,1.7760822071423109271028241542304
477,1.7765050513401046486274192591965
478,1.7769270122899477364514373282650
479,1.7773480937019999390014698659717
480,1.7777682992633686353675182939071
481,1.7781876326383017074674038263383
482,1.7786060974683807720090376908143
483,1.7790236973727101524178690713979
484,1.7794404359481044106589790827589
485,1.7798563167692759160066929141488
486,1.7802713433890170357356234078688
487,1.7806855193383837966986726337132
488,1.7810988481268756144652962451560
489,1.7815113332426143183104329224525
490,1.7819229781525203352928381923700
491,1.7823337863024881678181650519464
492,1.7827437611175597529946156890723
493,1.7831529060020956789070647595168
494,1.7835612243399453519728417506090
495,1.7839687194946143079999042158195
496,1.7843753948094319114964860775777
497,1.7847812536077151288818108544859
498,1.7851862991929323209850772698837
499,1.7855905348488645522905992725504
500,1.785993963839766547536743528342
501,1.786396589410523041824374020900
502,1.786798414786807979529576277903
503,1.787199443175238030265033903498
504,1.787599677763528265848810081766
505,1.787999121720642845868009717781
506,1.788397778196946442049701180228
507,1.788795650324354249592339245263
508,1.789192741216480225548791127569
509,1.789589053968781785282617220229
510,1.789984591658707010367990026092
511,1.790379357345837599153284868727
512,1.790773354072031460326491558765
513,1.791166584861563565371678964104
514,1.791559052721265736537960930497
515,1.791950760640665744784090288970
516,1.792341711592123928261832381751
517,1.792731908530968406309077928912
518,1.793121354395630674582401137527
519,1.793510052107778363520314040289
520,1.793898004572448017401296100808
521,1.794285214678174689492795127057
522,1.794671685297122629767353392767
523,1.795057419285213502629445517039
