Eigenstate,Potential Energy
1,0.500000000018829560292359786581420306
2,0.64623093777402411900532894936290754
3,0.73633761006601195083439303478411057
4,0.79966527856623517238588441191357111
5,0.8480465765882951776327729061129117
6,0.8870659988859250352455363303210166
7,0.9197208268968576326827595620213406
8,0.9477838469978122688145941193152860
9,0.9723835581949398164704639759396382
10,0.9942802146367330477233640319551916
11,1.0140093864641781048169539263953319
12,1.0319621689818669488925047887638054
13,1.0484326922555787150808403761294066
14,1.0636476539684352305095517399574571
15,1.0777854352350822730258245195692202
16,1.090988905472132425456945817190944
17,1.103374255859668072176070924919012
18,1.115037250347440051589307679506244
19,1.126057748758844782840775185029834
20,1.136503044424860407548125009002537
21,1.146430370265743780686073836899879
22,1.155888809949770485062903582437528
23,1.164920775829759410319375691547671
24,1.173563166343494862868071171347922
25,1.181848282809652925859782375438448
26,1.189804563235389189842429005905790
27,1.197457175278914576193208081033254
28,1.204828499608535168030424457978644
29,1.211938527104604143003716088262703
30,1.218805187701346333896642553049292
31,1.225444624519577443487106110043385
32,1.231871423863440355813809176941822
33,1.238098809344633182185673481554747
34,1.244138806647057414360456982684850
35,1.250002384105619491814501731371798
36,1.255699573239440211634760879538479
37,1.261239572575641861177380762473614
38,1.266630837469464210601787980299675
39,1.271881158128611852957249452857512
40,1.276997727653914596023491851430796
41,1.281987201591632336442876560653495
42,1.286855750237743245222787329565365
43,1.291609104728067748808895816521106
44,1.296252597779986774457658399881004
45,1.300791199813943159665923981088082
46,1.305229551069778842844359741588650
47,1.309571990239483840108710714440185
48,1.313822580060346648830593854364125
49,1.317985130247833174706352252722645
50,1.32206321809339856546044532700348
51,1.32606020700696937183679828649071
52,1.32997926324548824224009086074598
53,1.33382337103646323884967698495795
54,1.33759534627790273157836098913975
55,1.34129784897254133374125927450636
56,1.34493339453418777317890842617319
57,1.34850436408682662746330118565857
58,1.35201301386230866552757610259413
59,1.35546148378971059078755184291034
60,1.35885180535842047312323620654607
61,1.36218590882744092958579492785582
62,1.36546562984510110858364880241902
63,1.36869271553612664328223458706546
64,1.37186883010670426003113741450209
65,1.37499556001264288766051761031879
66,1.37807441873088577443563570983939
67,1.38110685117036582813325863659316
68,1.38409423775444023389587808217806
69,1.38703789820382773379346776470863
70,1.38993909504604368375906904578257
71,1.39279903687472929983371237955653
72,1.39561888137997326327685353925317
73,1.39839973816867084769525961686234
74,1.40114267139214688279085465608667
75,1.40384870219663776822524318961973
76,1.40651881101077819434359685100051
77,1.40915393968293582808267518731527
78,1.41175499348007142420767962990002
79,1.41432284295875500203055103750292
80,1.41685832571803060211797488858446
81,1.41936224804297279602082513480942
82,1.42183538644701667150336349340490
83,1.42427848912045428196089022972597
84,1.42669227729186625699848413590548
85,1.42907744650869799496980286203992
86,1.43143466784267399288566947177372
87,1.43376458902528639830229063234685
88,1.43606783551817049006330690735130
89,1.43834501152279629260839012212909
90,1.44059670093356231183183112324686
91,1.44282346823805592842390816060889
92,1.44502585936795668708867885503216
93,1.44720440250379646497624504477414
94,1.44935960883654757392942756355495
95,1.45149197328878869711578956183038
96,1.45360197519799673849952900200897
97,1.45569007896432832149815279299502
98,1.45775673466508179887414820321598
99,1.45980237863787716372273673960359
100,1.46182743403444491100073952474698
101,1.46383231134678559488709490774515
102,1.46581740890733625254450140381093
103,1.46778311336467195123876608526362
104,1.46972980013616345106204988839098
105,1.47165783383891890174927611293687
106,1.47356756870024672783328360353387
107,1.47545934894879877442886703849902
108,1.47733350918747354638148280303107
109,1.47919037474909077998222525155972
110,1.48103026203578616632562131815485
111,1.48285347884300918418827144259462
112,1.48466032466895756667289088367172
113,1.48645109101022639006821955450635
114,1.48822606164440101561895271235593
115,1.48998551290028266639724057483545
116,1.49172971391638708981911975459133
117,1.49345892688832504334243256222071
118,1.49517340730563230977727245515556
119,1.49687340417858323492364617152167
120,1.49855916025549593801608720041042
121,1.50023091223099907821073262557846
122,1.50188889094571114721757228104887
123,1.50353332157775106524859677375825
124,1.50516442382648117764388025248521
125,1.50678241208885418327458451606979
126,1.50838749562872032852424233765245
127,1.50997987873943062276332832486438
128,1.51155976090004924404223009747962
129,1.51312733692547623048960222152672
130,1.51468279711076317103584523574179
131,1.51622632736988920496336627696996
132,1.51775810936924966258447040291431
133,1.51927832065609789776379775310615
134,1.52078713478216958704334809668436
135,1.52228472142270066178563640918262
136,1.52377124649104635222020823640415
137,1.52524687224909551433508024724831
138,1.52671175741366079856414855224833
139,1.52816605725902311331593402250935
140,1.52960992371579339042080741928440
141,1.53104350546625010208385744724849
142,1.53246694803630290566346770554304
143,1.53388039388422414242644811248729
144,1.53528398248628273679346768711632
145,1.53667785041941085482956987514077
146,1.53806213144102581198351915134443
147,1.53943695656612151711379191142105
148,1.54080245414174478180564975947711
149,1.54215874991895829590946457418094
150,1.54350596712239391015329920133780
151,1.54484422651749214005886941807964
152,1.54617364647551819030553813622813
153,1.54749434303644344921016318292735
154,1.54880642996977635253868030714708
155,1.55011001883342085261557183086020
156,1.55140521903064035906725229601917
157,1.55269213786519819777535471721348
158,1.55397088059474640611347621125115
159,1.5552415504825265372729212194551
160,1.5565042488474488111872206730491
161,1.5577590751126081081465329786709
162,1.5590061268522962661733825996179
163,1.5602454998375655354291391685807
164,1.5614772880803978262163133962841
165,1.5627015838765283507643826560492
166,1.5639184778469741743579638207677
167,1.5651280589783149080968222115448
168,1.5663304146617682321713240775345
169,1.5675256307311053117139196392669
170,1.5687137914994458483124497856624
171,1.5698949797949729616160411475396
172,1.5710692769956057676615642973338
173,1.5722367630626650562213673167406
174,1.5733975165735679106562852259553
175,1.5745516147535852551768750844222
176,1.5756991335066920358356477360187
177,1.5768401474455432957576818452361
178,1.5779747299206052989757195611995
179,1.5791029530484681477854067932390
180,1.5802248877393708399894690118205
181,1.5813406037239614145867614738595
182,1.5824501695793198812613421145553
183,1.5835536527542669829152701366418
184,1.5846511195939830327507960246129
185,1.5857426353639586339949009299189
186,1.5868282642732982508550193837160
187,1.5879080694974004311727395586760
188,1.5889821132000301170592209679440
189,1.5900504565548067745691315319892
190,1.5911131597661239934568426469157
191,1.5921702820895197795323503273247
192,1.5932218818515139217848794054386
193,1.5942680164689307380864914723097
194,1.5953087424677205402220273696424
195,1.5963441155012977505673454183757
196,1.5973741903684093622783371657723
197,1.5983990210305481182738200962203
198,1.5994186606289245709533109325356
199,1.6004331615010108564649828181463
200,1.6014425751966701236846116332051
201,1.6024469524938825942841614913269
202,1.6034463434140816300011394379006
203,1.6044407972371104617905556842523
204,1.6054303625158111957208361022241
205,1.6064150870902560609255108067907
206,1.6073950181016339183074110534424
207,1.6083702020057979006206706894688
208,1.6093406845864884053349634972615
209,1.6103065109682371831093729404122
210,1.6112677256289640174747167827229
211,1.6122243724122733546805443073624
212,1.6131764945394611108286861706235
213,1.6141241346212360341810853317080
214,1.6150673346691705983252321610459
215,1.6160061361068806324216589429254
216,1.6169405797809476429837755560323
217,1.6178707059715877862252693767570
218,1.6187965544030764634176775198609
219,1.6197181642539318121868135974180
220,1.6206355741668696018683906194213
221,1.6215488222585274352051144378456
222,1.6224579461289754537431399909338
223,1.6233629828710071077512399671575
224,1.6242639690792250499531247986461
225,1.6251609408589247096074007047179
226,1.6260539338347790848679573510329
227,1.6269429831593333962631869117761
228,1.6278281235213114114850609617105
229,1.6287093891537405936231962485667
230,1.6295868138419007590720450265335
231,1.6304604309310980343652998002622
232,1.6313302733342745208418974573463
233,1.6321963735394486526314735515262
234,1.6330587636170023940084513955028
235,1.6339174752268084471979557818563
236,1.6347725396252071693846613660909
237,1.6356239876718368190343614664769
238,1.6364718498363188625215887204670
239,1.6373161562048037766251997259540
240,1.6381569364863795002903166150474
241,1.6389942200193468169861308077602
242,1.6398280357773645235902687018419
243,1.6406584123754684165528015967638
244,1.6414853780759657835558156056270
245,1.6423089607942097737586401710447
246,1.6431291881042561651753742400605
247,1.6439460872444039109491277649844
248,1.6447596851226270450557510369937
249,1.6455700083218929159310869832924
250,1.6463770831053771321207689804993
251,1.6471809354215731193578473331824
252,1.6479815909092990869613499160482
253,1.6487790749026074751522436791145
254,1.6495734124355965395369174291591
255,1.6503646282471279521808759207531
256,1.6511527467854505040324058173442
257,1.6519377922127362994338286604371
258,1.6527197884095258867720288088165
259,1.6534987589790891281118175460204
260,1.6542747272517021935096340796375
261,1.6550477162888409930575971304517
262,1.6558177488872957713830166719484
263,1.6565848475832057144829925453502
264,1.6573490346560190190450292359127
265,1.6581103321323769487787930792564
266,1.6588687617899240447890299903421
267,1.6596243451610477025193105828411
268,1.6603771035365471482630052947342
269,1.6611270579692360844382226012081
270,1.6618742292774747270482594924198
271,1.6626186380486405185612639671656
272,1.6633603046425314950504349709034
273,1.6640992491947097499862067809582
274,1.6648354916197822029748049863719
275,1.6655690516146225482994911336285
276,1.6662999486615326608934088601167
277,1.6670282020313509430346588254477
278,1.6677538307864993656875293146623
279,1.6684768537839807069350458737088
280,1.6691972896783180803487143616646
281,1.6699151569244446420989924775153
282,1.6706304737805409730549124726758
283,1.6713432583108233482994594962611
284,1.6720535283882800505761506028381
285,1.6727613016973625349073980861151
286,1.6734665957366274691102092019432
287,1.6741694278213347094804844414401
288,1.6748698150859976134019438623781
289,1.6755677744868903369240161342303
290,1.6762633228045128498160217995786
291,1.6769564766460115090180236290091
292,1.6776472524475580753748085262235
293,1.6783356664766910794077634413755
294,1.6790217348346145730190001597804
295,1.6797054734584563542527463581591
296,1.6803868981234932506538162429221
297,1.6810660244453333929278961494255
298,1.6817428678820647956347907448051
299,1.6824174437363670477498640100321
300,1.6830897671575878636766115143084
301,1.6837598531437849061252599674313
302,1.6844277165437349737675440590772
303,1.6850933720589077267733878666294
304,1.6857568342454075277361296280108
305,1.6864181175158848264897465680349
306,1.6870772361414163520148348890362
307,1.6877342042533512933838734972096
308,1.6883890358451309481711612413319
309,1.6890417447740779275897950868857
310,1.6896923447631552534992107697430
311,1.6903408494026989421828769673773
312,1.6909872721521215880255617386388
313,1.6916316263415883398360921950324
314,1.6922739251736670740859969798018
315,1.6929141817249520847039507691153
316,1.6935524089476626650651010803305
317,1.6941886196712141207771274161941
318,1.6948228266037665645049101499652
319,1.6954550423337486343929109955928
320,1.6960852793313561373401144499822
321,1.6967135499500295360591945768809
322,1.6973398664279063943475655824527
323,1.6979642408892522946063049777071
324,1.6985866853458692047437569746212
325,1.6992072116984830564414489478989
326,1.6998258317381087720058516790029
327,1.7004425571473955605583205457021
328,1.7010573995019496727548432211578
329,1.7016703702716395888905350074637
330,1.7022814808218800720523054923207
331,1.7028907424148965248922187614129
332,1.7034981662109707112423769626112
333,1.7041037632696682211058263039135
334,1.7047075445510458630255740970509
335,1.7053095209168432987429289856920
336,1.7059097031316549781757981032098
337,1.7065081018640852469413735276885
338,1.7071047276878876852538937851116
339,1.7076995910830847426831572242406
340,1.7082927024370737600924921683489
341,1.7088840720457150923124706853953
342,1.7094737101144048286782474405078
343,1.7100616267591317491981968478281
344,1.7106478320075185100393804738196
345,1.7112323357998488776423873794157
346,1.7118151479900784862391081294205
347,1.7123962783468326841100948883977
348,1.7129757365543882802842726870797
349,1.7135535322136427365838153279079
350,1.7141296748430683473331262965425
351,1.7147041738796534943145255877885
352,1.7152770386798306593142380385794
353,1.7158482785203904786156876613353
354,1.7164179025993832538955673813842
355,1.7169859200370082847855437305437
356,1.7175523398764892328675427963494
357,1.7181171710849387561268885823103
358,1.7186804225542116578500467111165
359,1.7192421031017422950919485597899
360,1.7198022214713751846181981492922
361,1.7203607863341805511779400009714
362,1.7209178062892612996939310292147
363,1.7214732898645460069702622079019
364,1.7220272455175729568988018538230
365,1.7225796816362634555193207471418
366,1.7231306065396833035908010842783
367,1.7236800284787953186723328446897
368,1.7242279556371996954314807830511
369,1.7247743961318668367139659396429
370,1.7253193580138583685392534958522
371,1.7258628492690391923203404675988
372,1.7264048778187795307766296571652
373,1.7269454515206469342449718080974
374,1.7274845781690925558582658861051
375,1.7280222654961223871515597464499
376,1.7285585211719649103007662598502
377,1.7290933528057269561951558775848
378,1.7296267679460409357449520255560
379,1.7301587740817052842156345248234
380,1.7306893786423148753442079134545
381,1.7312185889988842806629062013916
382,1.7317464124644609921903424361002
383,1.7322728562947332831417166237125
384,1.7327979276886276703485212880367
385,1.7333216337888995996319624942289
386,1.7338439816827180127719598586246
387,1.7343649784022395453967903563996
388,1.7348846309251762925794050466334
389,1.7354029461753578168136366706186
390,1.7359199310232845874627424242720
391,1.7364355922866731686067022899562
392,1.7369499367309967636508668663683
393,1.7374629710700185901670786230587
394,1.7379747019663166660485180199799
395,1.7384851360318028638352622656540
396,1.7389942798282358840617746322249
397,1.7395021398677277775175133426200
398,1.7400087226132440245388050630555
399,1.7405140344790957371057183944622
400,1.7410180818314282836847663103755
401,1.7415208709887023857196049669859
402,1.7420224082221684309688860827257
403,1.7425226997563368244133041888398
404,1.7430217517694422698040032931997
405,1.7435195703938994472797584028226
406,1.7440161617167561960693892060318
407,1.7445115317801413189818606433126
408,1.7450056865817045118595131797702
409,1.7454986320750512790536876893035
410,1.7459903741701753493826326209335
411,1.7464809187338828525715109852717
412,1.7469702715902118387452982587137
413,1.7474584385208482200159399496233
414,1.7479454252655345579906343506809
415,1.7484312375224759811453713876677
416,1.7489158809487396616783039038786
417,1.7493993611606507003110161911519
418,1.7498816837341815822557392390757
419,1.7503628542053394828413478722785
420,1.7508428780705464047013526672534
421,1.7513217607870160986893911708093
422,1.7517995077731270501053992782927
423,1.7522761244087893663538882690869
424,1.7527516160358091797401007152071
425,1.7532259879582469447444570977002
426,1.7536992454427732365960022874599
427,1.7541713937190195357549221378423
428,1.7546424379799240119713591091407
429,1.7551123833820762202879317184075
430,1.7555812350460535710707823559786
431,1.7560489980567570777019915487165
432,1.7565156774637435314262702577637
433,1.7569812782815494412264678843001
434,1.7574458054900178366431770330548
435,1.7579092640346157571894464073931
436,1.7583716588267503293279078954496
437,1.7588329947440815923558290186806
438,1.7592932766308310552388198962178
439,1.7597525092980866656724577939589
440,1.7602106975241052625604736007934
441,1.7606678460546096717368662668159
442,1.7611239596030840085523458952782
443,1.7615790428510668349940513857050
444,1.7620331004484367906828332175512
445,1.7624861370137000283793407049058
446,1.7629381571342704783204501372671
447,1.7633891653667501105264942210035
448,1.7638391662372024132516666754852
449,1.7642881642414269280534663043771
450,1.7647361638452269938924758069269
451,1.7651831694846782033266064720312
452,1.7656291855663904121173846015447
453,1.7660742164677690452894326053793
454,1.7665182665372720885600158140213
455,1.7669613400946663889795726547948
456,1.7674034414312785617493631381741
457,1.7678445748102451988909924368528
458,1.7682847444667587756306358780795
459,1.7687239546083117683892401476621
460,1.7691622094149386266876293531697
461,1.7695995130394534486566108917956
462,1.7700358696076865731677239740654
463,1.7704712832187186923202435542950
464,1.7709057579451106451542895384924
465,1.7713392978331328612896848347697
466,1.7717719069029915851507172985199
467,1.7722035891490511612560916929916
468,1.7726343485400573961774167344678
469,1.7730641890193544738252456033176
470,1.7734931145051029485654202524805
471,1.7739211288904930832333492808499
472,1.7743482360439578296193721088265
473,1.7747744398093808022877024042532
474,1.7751997440063067496824939407398
475,1.7756241524301434452355069393515
476,1.7760476688523675122394629010977
477,1.7764702970207245154414634548306
478,1.7768920406594279953028946209875
479,1.7773129034693563342662647882512
480,1.7777328891282478495665222483261
481,1.7781520012908926634167129983374
482,1.7785702435893249193094817390369
483,1.7789876196330107243856291341445
484,1.7794041330090346375766035103054
485,1.7798197872822861803496414499799
486,1.7802345859956409547991998573249
487,1.7806485326701432178176310613104
488,1.7810616308051845077798553480230
489,1.7814738838786815517907389239755
490,1.7818852953472513164860293612049
491,1.7822958686463853365339285021272
492,1.7827056071906219088854180939614
493,1.7831145143737161276414760556255
494,1.7835225935688088534339398605224
495,1.7839298481285928096703386447204
496,1.7843362813854790499158443059584
497,1.7847418966517594817823486065938
498,1.7851466972197693924257479755115
499,1.7855506863620474728162649160173
500,1.785953867331495471096188610810
501,1.786356243361533220874505630300
502,1.786757817666256499447554816898
503,1.787158593440589183875818198217
504,1.787558573860437548554649614206
505,1.787957762082839551541068789936
506,1.788356161246114839516095264051
507,1.788753774470013319199042116027
508,1.789150604855861934956558792499
509,1.789546655486707883277889883994
510,1.789941929427464317129746025385
511,1.790336429725051771041819648726
512,1.790730159408539206890654957609
513,1.791123121489283295890627303944
514,1.791515318961066613025443549846
515,1.791906754800235117989207416760
516,1.792297431965833132796910687370
517,1.792687353399736890625329229494
518,1.793076522026788441093670349805
519,1.793464940754926693750233722374
520,1.793852612475318456592675061448
521,1.794239540062486264672985039910
522,1.794625726374437274812471459875
523,1.795011174252789663407266629408
