Eigenstate,Potential Energy
1,0.500000000019925921768105822166761169
2,0.64623093778118058879943635478666642
3,0.73633761008703347346041246253520119
4,0.79966527861002051827001893751203273
5,0.8480465766641401682589569375996060
6,0.8870659990032880603702421487780175
7,0.9197208270652732188019309989528994
8,0.9477838472268550007638451677278673
9,0.9723835584942075307328052075922761
10,0.9942802150158382744648098156060624
11,1.0140093869327433930283750807321868
12,1.0319621695495221702861403111084487
13,1.0484326929319594452112846521063132
14,1.0636476547631817498223764403653458
15,1.0777854361578389418803150732668548
16,1.090988906532547294044811664552494
17,1.103374257067392643221245589639332
18,1.115037251712129145491191570536510
19,1.126057750290156473371212127329350
20,1.136503046132456007304619125232826
21,1.146430372159287862383822323519929
22,1.155888812038930929135613972349813
23,1.164920778124207472167065168829364
24,1.173563168852905255007594674395865
25,1.181848285543703911542063685202682
26,1.189804566203762685609494992882726
27,1.197457178491296261490621875100385
28,1.204828503074614600451827071272919
29,1.211938530834074878079842741979069
30,1.218805191703906048588725310583889
31,1.225444628804928062729353886104670
32,1.231871428441288181589137595601605
33,1.238098814224689024725246528868477
34,1.244138811839036725139539038018107
35,1.250002389619242498080800510168141
36,1.255699579084432052255351036441472
37,1.261239578761732723629732739257595
38,1.266630844006389468965810169243357
39,1.271881165026112206790411583108630
40,1.276997734921736210021395644762396
41,1.281987209239526980804121278668531
42,1.286855758275468436650441910135904
43,1.291609113165386892091945758682679
44,1.296252606626669304584922689917600
45,1.300791209079764684432520492825227
46,1.305229560764521285917110554532942
47,1.309572000372935584522176134505298
48,1.313822590642302680889879126685462
49,1.317985141288095228276589593278099
50,1.32206322960177526662605371949792
51,1.32606021899327638391633662860335
52,1.32997927571954841114485047928913
53,1.33382338400810673877614837443541
54,1.33759535975696721102642774008485
55,1.34129786296887206185145739272718
56,1.34493340905763778638337048478209
57,1.34850437914725687644611780672695
58,1.35201302946958816249129203719902
59,1.35546149995371655702335034806555
60,1.35885182208903848688312134033244
61,1.36218592613456507425573284948883
62,1.36546564773863412115721059835382
63,1.36869273402598006313479141438643
64,1.37186884920279857799511352895921
65,1.37499557972490769540260897701755
66,1.37807443906925991413726619779729
67,1.38110687214479754247585517398850
68,1.38409425937488731635284400364881
69,1.38703792048025767923099063995245
70,1.38993911798843383934812296946217
71,1.39279906049306701627583751461674
72,1.39561890568425604634647123361895
73,1.39839976316890651010146982535630
74,1.40114269709835369636180134854690
75,1.40384872861884461641828993334100
76,1.40651883815902472508468409451502
77,1.40915396756727260693834204554282
78,1.41175502211056008789335241956531
79,1.41432287234546841225879958713716
80,1.41685835587105299979053032971904
81,1.41936227897239995576823973788062
82,1.42183541816295605657627852582952
83,1.42427852163302519947695076077663
84,1.42669231061120001354900914459524
85,1.42907748064493805259039043305079
86,1.43143470280597612539497080919942
87,1.43376462482581884801325674727722
88,1.43606787216611412487125813615352
89,1.43834504902834476346031689119572
90,1.44059673930692221058138709380081
91,1.44282350748944694607659689280769
92,1.44502589950761177244178992172377
93,1.44720444354196198365813508903995
94,1.44935965078348346784278598105901
95,1.45149201615476864428956808680670
96,1.45360201899330831335426066827708
97,1.45569012369927315552941650295975
98,1.45775678034997574175897563203274
99,1.45980242528305044485379485774983
100,1.46182748165024230145316415448230
101,1.46383235994356656982287617643112
102,1.46581745849547515405935895992133
103,1.46778316395455815165649137508902
104,1.46972985173820151668132264766598
105,1.47165788646352875704799096764421
106,1.47356762235786382013546168064644
107,1.47545940364987423903925912537215
108,1.47733356494247437219299692376579
109,1.47919043156849997556135054167019
110,1.48103031993010292648104673293963
111,1.48285353782274905702792709080286
112,1.48466038474465262115467878496106
113,1.48645115219242538404972611209438
114,1.48822612394366956441146824236451
115,1.48998557632720341182943997289764
116,1.49172977848155986981578852640837
117,1.49345899260236706202366338997812
118,1.49517347417917830808357295703384
119,1.49687347222228566177244107982726
120,1.49855922948002512199512707186742
121,1.50023098264704339981395163657500
122,1.50188896256397721162896842847446
123,1.50353339440896387567973790916123
124,1.50516449788138430923067341273900
125,1.50678248737820995753898299139831
126,1.50838757216330998840658390564625
127,1.50997995653005450823104751074617
128,1.51155983995752696828069907376624
129,1.51312741726064685668090856229115
130,1.51468287873448538973133131883912
131,1.51622641029304151205579745070295
132,1.51775819360273053788573164516119
133,1.51927840621082598419404815700359
134,1.52078722166908387043759829157370
135,1.52228480965276065132375366905888
136,1.52377133607523226148636702655641
137,1.52524696319840844301274750421607
138,1.52671184973912291477269516578694
139,1.52816615097167783659501417290238
140,1.52961001882670557536868243718512
141,1.53104360198650622265586684199287
142,1.53246704597701124013689926214622
143,1.53388049325651495903809507288504
144,1.53528408330130848005618107711703
145,1.53667795268834633253416450344334
146,1.53806223517506838289244558265281
147,1.53943706177649127935298660550419
148,1.54080256083968476196104372461070
149,1.54215885811573463883464524014010
150,1.54350607682929606949489206769711
151,1.54484433774583306950621749396978
152,1.54617375923663453557130614905744
153,1.54749445734169574074853702037635
154,1.54880654583054919900786783617035
155,1.55011013626112313509134787990834
156,1.55140533803670542601434207754962
157,1.55269225846108406078348694423323
158,1.55397100279193593640498203431182
159,1.5552416742925276629887768514958
160,1.5565043742817947154585164487208
161,1.5577592021828574279583543392528
162,1.5590062555700332920281433645093
163,1.5602456302144004118164788318598
164,1.5614774201279667528966648956918
165,1.5627017176064937848734073671568
166,1.5639186132710250333390601913730
167,1.5651281961081667734690021364882
168,1.5663305535091635541397475188180
169,1.5675257713078136146304669214223
170,1.5687139338172639369937225093542
171,1.5698951238657251285262855143109
172,1.5710694228311440009679636459389
173,1.5722369106748692487293156239498
174,1.5733976659743460696322126176713
175,1.5745517659548737130662761654279
176,1.5756992865204556618840276560700
177,1.5768403022837757085421702085886
178,1.5779748865953290798551429986487
179,1.5791031115717350552766909634663
180,1.5802250481232620250782676498323
181,1.5813407659805876369802722116297
182,1.5824503337208217265913241712816
183,1.5835538187928150808993254386150
184,1.5846512875417782763200436890114
185,1.5857428052332323993961990093336
186,1.5868284360763126187359803885268
187,1.5879082432464484086578218367774
188,1.5889822889074358608252275689569
189,1.5900506342329258149285238750282
190,1.5911133394273434594573144254017
191,1.5921704637462586250811887560712
192,1.5932220655162231528066755476783
193,1.5942682021540936407228097951752
194,1.5953089301858529100817711602327
195,1.5963443052649481230365241224269
196,1.5973743821901592438980531350651
197,1.5983992149230122191953733538764
198,1.5994188566047510384793193696182
199,1.6004333595728815096855324747623
200,1.6014427753773006892175088113296
201,1.6024471547960229431283579717982
202,1.6034465478505160155125873866687
203,1.6044410038206577587896884858366
204,1.6054305712593251407410099532374
205,1.6064152980066254936118077022668
206,1.6073952312037830239752254940842
207,1.6083704173066864539835964034515
208,1.6093409020991120154116053325863
209,1.6103067307056275393186899733319
210,1.6112679476041891369296580700831
211,1.6122245966384378306897476050685
212,1.6131767210297063626161021268302
213,1.6141243633887405578334996463153
214,1.6150675657271502189776426509625
215,1.6160063694685887576906184007583
216,1.6169408154596755176588702912050
217,1.6178709439806647482289140532532
218,1.6187967947558702010435755857767
219,1.6197184069638486226274531840600
220,1.6206358192473546510420188459953
221,1.6215490697230650188927319034158
222,1.6224581959910892600461267780709
223,1.6233632351442604808803313531629
224,1.6242642237772212553594346345256
225,1.6251611979953072004664235502811
226,1.6260541934232317699274481858399
227,1.6269432452135809090658967994882
228,1.6278283880551193809774898168342
229,1.6287096561809159161615239554016
230,1.6295870833762918718364492849809
231,1.6304607029865951901940892178140
232,1.6313305479248100644968365683035
233,1.6321966506789972985058602358173
234,1.6330590433195815052895370835055
235,1.6339177575064783164953926948222
236,1.6347728244960713008368041092774
237,1.6356242751480422119042602512446
238,1.6364721399320562962946709998373
239,1.6373164489343080976206856960475
240,1.6381572318639299097985383985796
241,1.6389945180592671609439668596323
242,1.6398283364940235838070708067678
243,1.6406587157832802034992688704280
244,1.6414856841893898307282731363719
245,1.6423092696277514336314350133018
246,1.6431294996724669067540841381466
247,1.6439464015618816189374082149984
248,1.6447600022040163206487637952255
249,1.6455703281818853792485429542903
250,1.6463774057587117262926882488629
251,1.6471812608830364162763258985025
252,1.6479819191937255947116331406495
253,1.6487794060248799471365657575506
254,1.6495737464106462853046756873288
255,1.6503649650899351499787757669862
256,1.6511530865110445150883715694029
257,1.6519381348361959839885325585114
258,1.6527201339459799218720438461241
259,1.6534991074437163271785158361464
260,1.6542750786597318276979926635165
261,1.6550480706555531144192930372726
262,1.6558181062280215378482241404118
263,1.6565852079133277166754745068635
264,1.6573493979909716089451474150277
265,1.6581106984876465702492719085240
266,1.6588691311810495659784224617134
267,1.6596247176036207501580948362191
268,1.6603774790462124438675987795705
269,1.6611274365616917824381199494287
270,1.6618746109684727548517025693679
271,1.6626190228539869185750006739910
272,1.6633606925780867686692554254062
273,1.6640996402763892035679476517656
274,1.6648358858635562958168457574402
275,1.6655694490365172426327406275999
276,1.6663003492776297739099463503993
277,1.6670286058577885009653754896860
278,1.6677542378394719599462293845573
279,1.6684772640797398523455590460573
280,1.6691977032331725754717550423269
281,1.6699155737547609316756177447904
282,1.6706308939027435125836238740940
283,1.6713436817413949707640423812721
284,1.6720539551437623353415401396987
285,1.6727617317943561788010396747695
286,1.6734670291917926597064699638910
287,1.6741698646513915006058600855731
288,1.6748702553077263028788652834610
289,1.6755682181171318465713617976231
290,1.6762637698601691077244877522486
291,1.6769569271440458341186472980714
292,1.6776477064049955643191894426505
293,1.6783361239106189957785228717995
294,1.6790221957621827388894163783981
295,1.6797059378968775441144319895942
296,1.6803873660900435877315513127244
297,1.6810664959573527479009449473202
298,1.6817433429569571877841551270009
299,1.6824179223916010485510196077944
300,1.6830902494106970028575895665385
301,1.6837603390123680802099360920349
302,1.6844282060454568571243885409776
303,1.6850938652114991851898362517487
304,1.6857573310666660345391181308376
305,1.6864186180236748812330385768205
306,1.6870777403536699017540100466886
307,1.6877347121880681565598867229044
308,1.6883895475203792411237717014811
309,1.6890422602079944937221702398892
310,1.6896928639739460951152597040376
311,1.6903413724086396550190316419612
312,1.6909877989715577984991639030752
313,1.6916321569929361450321799153752
314,1.6922744596754134845049962399129
315,1.6929147200956554697927694707970
316,1.6935529512059532015543679130805
317,1.6941891658357942438474270953434
318,1.6948233766934114218051255043763
319,1.6954555963673065429340584277674
320,1.6960858373277490432881701043181
321,1.6967141119282534774506150023609
322,1.6973404324070319667514540109510
323,1.6979648108884251197573760207878
324,1.6985872593843104021705432338529
325,1.6992077897954897181141839987424
326,1.6998264139130544400290299108369
327,1.7004431434197307079328134795249
328,1.7010579898912021872347574400619
329,1.7016709647974152599605455479931
330,1.7022820795038630810509504291927
331,1.7028913452728499383071086991173
332,1.7034987732647369772036238745033
333,1.7041043745391696691039834522880
334,1.7047081600562852068806359296054
335,1.7053101406779041428515305068960
336,1.7059103271687023270634895853528
337,1.7065087301973660181475050587268
338,1.7071053603377312255765632164022
339,1.7077002280699033478122883172771
340,1.7082933437813631976590300993654
341,1.7088847177680551283820942024095
342,1.7094743602354597577181963688860
343,1.7100622812996509275461891996956
344,1.7106484909883368929037981791835
345,1.7112329992418875596630291883635
346,1.7118158159143452456383215862532
347,1.7123969507744225304641976539011
348,1.7129764135064840059455261166678
349,1.7135542137115154717834412067936
350,1.7141303609080781189963105437786
351,1.7147048645332497886183153446421
352,1.7152777339435529880197111371426
353,1.7158489784158689492063125871692
354,1.7164186071483391435533883303935
355,1.7169866292612546182376008725652
356,1.7175530537979313641351832892088
357,1.7181178897255749542105476897311
358,1.7186811459361336963829833175874
359,1.7192428312471360459962075667070
360,1.7198029544025212157966465624270
361,1.7203615240734547282764054157195
362,1.7209185488591353919680439417208
363,1.7214740372875882972915596822019
364,1.7220279978164488559352511375549
365,1.7225804388337361201257692856749
366,1.7231313686586142594447415581140
367,1.7236807955421450871915163518379
368,1.7242287276680284250094616609402
369,1.7247751731533349383104488707999
370,1.7253201400492271556623752639650
371,1.7258636363416715254383632427908
372,1.7264056699521404661966430070655
373,1.7269462487383043774970569730434
374,1.7274853804947179196236614889248
375,1.7280230729534912537733447793953
376,1.7285593337849576989168887125461
377,1.7290941705983295945330698248735
378,1.7296275909423455366179617017936
379,1.7301596023059108267615686843830
380,1.7306902121187278910469693224604
381,1.7312194277519195441981999096138
382,1.7317472565186422171372302741026
383,1.7322737056746938226019874422564
384,1.7327987824191112225160498215467
385,1.7333224938947609183552925989418
386,1.7338448471889236231530075443672
387,1.7343658493338684644693661018638
388,1.7348855073074207551117286848243
389,1.7354038280335240062792905579011
390,1.7359208183827933722248808971392
391,1.7364364851730608433611722084570
392,1.7369508351699157961737533408324
393,1.7374638750872383734130444982329
394,1.7379756115877242756468129494381
395,1.7384860512834038210302907624969
396,1.7389952007361549241459908501032
397,1.7395030664582096238049432578158
398,1.7400096549126541679272848873391
399,1.7405149725139212212774722750749
400,1.7410190256282784959945242324677
401,1.7415218205743098538202956190883
402,1.7420233636233896252255573385366
403,1.7425236610001529661562686781423
404,1.7430227188829601454726638599718
405,1.7435205434043522285092846492944
406,1.7440171406515042657727728273023
407,1.7445125166666731034802486927169
408,1.7450066774476373191147440743965
409,1.7454996289481321430569253968374
410,1.7459913770782818807541132722811
411,1.7464819277050240954262307463870
412,1.7469712866525291338807810906949
413,1.7474594597026160744782514780893
414,1.7479464525951615210757609426549
415,1.7484322710285055268931555149753
416,1.7489169206598510779173734002837
417,1.7494004071056599843132247037945
418,1.7498827359420423430592925254492
419,1.7503639127051438503025347923880
420,1.7508439428915259453355585023848
421,1.7513228319585427383620958439216
422,1.7518005853247140036351809993168
423,1.7522772083700920740896548014127
424,1.7527527064366262511755291404325
425,1.7532270848285211092332781299389
426,1.7537003488125923012324082426974
427,1.7541725036186173504838767141150
428,1.7546435544396814419946690487971
429,1.7551135064325221258322135384138
430,1.7555823647178657945841364999576
431,1.7560501343807634385473316411555
432,1.7565168204709228281392733422321
433,1.7569824280030324614076131978132
434,1.7574469619570883745532259714793
435,1.7579104272787116391190975233375
436,1.7583728288794644468127534916204
437,1.7588341716371629433086667169526
438,1.7592944603961857930718834550532
439,1.7597536999677791564830123525341
440,1.7602118951303591504541592328510
441,1.7606690506298089523637426683689
442,1.7611251711797741109312962494541
443,1.7615802614619557117023046050191
444,1.7620343261263960164878149840427
445,1.7624873697917659073912760391073
446,1.7629393970456451597445803932099
447,1.7633904124448027130946822535180
448,1.7638404205154701584143747656229
449,1.7642894257536162820133343478443
450,1.7647374326252148185621532462002
451,1.7651844455665129162940002782334
452,1.7656304689842931557026079011428
453,1.7660755072561348647783093253828
454,1.7665195647306711197004025680054
455,1.7669626457278450548270693399977
456,1.7674047545391607789505798111002
457,1.7678458954279335934927993948871
458,1.7682860726295359085052845328782
459,1.7687252903516413703660540946088
460,1.7691635527744668434826751943718
461,1.7696008640510100956933285610756
462,1.7700372283072864003817946953136
463,1.7704726496425626590435325303789
464,1.7709071321295872051734171181128
465,1.7713406798148192581761119080799
466,1.7717732967186551579597156020102
467,1.7722049868356506606937508785566
468,1.7726357541347443113352443811645
469,1.7730656025594743695837378574742
470,1.7734945360281968137681789762825
471,1.7739225584342986897352909011707
472,1.7743496736464111023129949006249
473,1.7747758855086172002130955319342
474,1.7752011978406626583277028001596
475,1.7756256144381575801347212954843
476,1.7760491390727823339782569183701
477,1.7764717754924876561790710981023
478,1.7768935274216936969230303138707
479,1.7773143985614868982688923785374
480,1.7777343925898150988143955626043
481,1.7781535131616794158520430677728
482,1.7785717639093264737567463432754
483,1.7789891484424363585584234089472
484,1.7794056703483091184072769728574
485,1.7798213331920512867623109310738
486,1.7802361405167570130474780912601
487,1.7806500958436906495101274369350
488,1.7810632026724653907179161611688
489,1.7814754644812211937440259647578
490,1.7818868847267998420333027246648
491,1.7822974668449192870972818482956
492,1.7827072142503458560884045708540
493,1.7831161303370643001222361166723
494,1.7835242184784467772466939743953
495,1.7839314820274189624093545353660
496,1.7843379243166265286981580885999
497,1.7847435486585976852266197399794
498,1.7851483583459057167665755480466
499,1.7855523566513290222943859117334
500,1.785955546828010782766937873141
501,1.786357932109614003978512741589
502,1.786759515710479389489206570824
503,1.787160300825777511556540840123
504,1.787560290631663123710287976635
505,1.787959488285424462233481706715
506,1.788357896925633266431796283403
507,1.788755519672293365508525325849
508,1.789152359626987471790463455611
509,1.789548419873020410977529276499
510,1.789943703475564842431671196510
511,1.790338213481802700357526149191
512,1.790731952921066255844692204561
513,1.791124924804977415282219283728
514,1.791517132127585931380575213463
515,1.791908577865506900872354132866
516,1.792299264978055759052979186873
517,1.792689196407381845725157275664
518,1.793078375078602327757431244420
519,1.793466803899933260026521010837
520,1.793854485762820641571427990443
521,1.794241423542068262014159225300
522,1.794627620095966614273421730779
523,1.795013078266419310554384493578
