Eigenstate,Potential Energy
1,0.500000000071314157929078802740678640
2,0.64623093811661694088227479438683266
3,0.73633761107235400595002497451775600
4,0.79966528066234013833984102057270041
5,0.8480465802191986082978526582918084
6,0.8870660045044642484928808467425763
7,0.9197208349595390557553194398800344
8,0.9477838579630892744657838271922897
9,0.9723835725224131316003018461411906
10,0.9942802327867460465188558854921954
11,1.0140094088975979970319112658610077
12,1.0319621961599606990021542581367001
13,1.0484327246399405348184576537798420
14,1.0636476920209437535226603822707244
15,1.0777854794178756377783137705775534
16,1.090988956247594608829907838058799
17,1.103374313690422543163967907425197
18,1.115037315696348335730595028647159
19,1.126057822089008411165629161118044
20,1.136503126199625254836490533414844
21,1.146430460948706127195629890736097
22,1.155888910004784345923226053234764
23,1.164920885720944814099503135033194
24,1.173563286535246852624283734196793
25,1.181848413766651118600412214354796
26,1.189804705422607773870435798921446
27,1.197457329161632656546966824008903
28,1.204828665652347392319593605165978
29,1.211938705775431556007569146237730
30,1.218805379465447421144552074038597
31,1.225444829843559332888505900615746
32,1.231871643214270153083982776919167
33,1.238099043189649420908576427580888
34,1.244139055453981605454075479618792
35,1.250002648342567760214578644965713
36,1.255699853374935010403846053500151
37,1.261239869078623755135758234010863
38,1.266631150809303723081168866351337
39,1.271881488775121370484353761277402
40,1.276998076077360326714415635010424
41,1.281987568262746318680063618476005
42,1.286856135627735403832925205078848
43,1.291609509308637996491471746074185
44,1.296253022023337156653020530222776
45,1.300791644192790041416607974538486
46,1.305230016057365136508181291658793
47,1.309572476309591273037709524129651
48,1.313823087687308070345526747902553
49,1.317985659906544901878919859328065
50,1.32206377025933276737065252840643
51,1.32606078215618649210557914079701
52,1.32997986185464945975104679039545
53,1.33382399358284296667177103064991
54,1.33759599323940115418626920016861
55,1.34129852082769698270367129543679
56,1.34493409176219014154930766046268
57,1.34850508716752882316390235791484
58,1.35201376327624010406673825580187
59,1.35546226001808972769435173108752
60,1.35885260888316757652175302935636
61,1.36218674013119089336600157387065
62,1.36546648941121630665666234735861
63,1.36869360384870982543523656527526
64,1.37186974765061148992215078339799
65,1.37499650727349652351593913596970
66,1.37807539619508749303382170450785
67,1.38110785932510969267623932894205
68,1.38409527708772580638850726032907
69,1.38703896920447323256535429253241
70,1.38994019820369918677898976830024
71,1.39280017267988999448040033125433
72,1.39562005032399274324240119332669
73,1.39840094074377445770981401024765
74,1.40114390809144511186840280628378
75,1.40384997351413969214125409699778
76,1.40652011744140496806536628064353
77,1.40915528172253422888318412388255
78,1.41175637162542744620322461653593
79,1.41432425770760750289144112458755
80,1.41685977756908500271034520320492
81,1.41936373749591483374632650851889
82,1.42183691400252620811168310821980
83,1.42428005528021916661828503395178
84,1.42669388255859624540343960187298
85,1.42907909138613872531491601865219
86,1.43143635283562101947237405880463
87,1.43376631463959928362301198858374
88,1.43606960226078695617298560278270
89,1.43834681990174643261493373288297
90,1.44059855145798286234254269295182
91,1.44282536141820460379245685976309
92,1.44502779571522657631453749413410
93,1.44720638253073049211605856094502
94,1.44936163305685302288717368275540
95,1.45149404221735180168615399878426
96,1.45360408935089733854620815430163
97,1.45569223885885458615664902041502
98,1.45775894081974501767583861386388
99,1.45980463157242660654489188146840
100,1.46182973426988275775464109435126
101,1.46383465940538193586425221358775
102,1.46581980531264416034863551220018
103,1.46778555864154262523899520989433
104,1.46973229481076143531104534336428
105,1.47166037843873737731761615689332
106,1.47357016375412288051964103175788
107,1.47546199498692923881363974969168
108,1.47733620674142992719989002863092
109,1.47919312435183525180107146653586
110,1.48103306422168715251647149968329
111,1.48285633414785711619812811240114
112,1.48466323362998072460229303347102
113,1.48645405416610682557528404392684
114,1.48822907953529055817665310034913
115,1.48998858606781901394033077170700
116,1.49173284290370998482593138873561
117,1.49346211224009253540621377405667
118,1.49517664956803710573062165733155
119,1.49687670389936913758931948239493
120,1.49856251798397437466689941465878
121,1.50023432851806571983075915829201
122,1.50189236634386261966678827987003
123,1.50353685664110175344284573530743
124,1.50516801911078012387215699546325
125,1.50678606815150208078571772059562
126,1.50839121302878661152542079598143
127,1.50998365803767065398315252303060
128,1.51156360265892160102181632163172
129,1.51313124170916009177569610967204
130,1.51468676548517580346081848757280
131,1.51623035990270355320795651273206
132,1.51776220662991204223051407693904
133,1.51928248321584579305482819007667
134,1.52079136321404955458313536321493
135,1.52228901630158634141586676486139
136,1.52377560839365658633028392958063
137,1.52525130175401257686908897456868
138,1.52671625510134873500201531154539
139,1.52817062371184619291799022234524
140,1.52961455951803467203749667757712
141,1.53104821120413011484458791700700
142,1.53247172429799844587179846279854
143,1.53388524125988718800128069596699
144,1.53528890156805948060934382068616
145,1.53668284180146085832206123605158
146,1.53806719571954128039951347270460
147,1.53944209433934669779990287932929
148,1.54080766600999548694172182125604
149,1.54216403648464155110848690256234
150,1.54351132899002773036254424119773
151,1.54484966429372543421242726650112
152,1.54617916076915079619215540794252
153,1.54749993445844630003550782147097
154,1.54881209913331177667590893817615
155,1.55011576635386300805344268910098
156,1.55141104552559580408058085011618
157,1.55269804395452659935760746230356
158,1.55397686690058138772782964581586
159,1.5552476176292966674936278955516
160,1.5565103974618987348197176918036
161,1.5577653058238198214310528123086
162,1.5590124402917105376936314887790
163,1.5602518966390034743642528673588
164,1.5614837688800825995919062295898
165,1.5627081493131070513758444989802
166,1.5639251285615398410563053650600
167,1.5651347956144287001458140627032
168,1.5663372378654817594028042348943
169,1.5675325411509831222260104842410
170,1.5687207897865880754747258502288
171,1.5699020666030381321641090937360
172,1.5710764529808337726829677815499
173,1.5722440288839002868538397843132
174,1.5734048728922825603394662713252
175,1.5745590622339027903182985745318
176,1.5757066728154108367721675437528
177,1.5768477792521604699139557304859
178,1.5779824548973406681422103378464
179,1.5791107718702884114594783674331
180,1.5802328010840139167446384669777
181,1.5813486122719609634566491315040
182,1.5824582740140300051470258747825
183,1.5835618537618871160469362318837
184,1.5846594178635830142573105353685
185,1.5857510315875039696579878265434
186,1.5868367591456755651473255436995
187,1.5879166637164431117035492825406
188,1.5889908074665441535748185951718
189,1.5900592515725967946794063255032
190,1.5911220562420194972839834190518
191,1.5921792807334015755027557199145
192,1.5932309833763407658107283844843
193,1.5942772215907661784084333786972
194,1.5953180519057599702109976013053
195,1.5963535299778956718101415788178
196,1.5973837106091068602971484721803
197,1.5984086477641005532587833702423
198,1.5994283945873294859124845627056
199,1.6004430034195361052264954777903
200,1.6014525258138822212115695843930
201,1.6024570125516752917934400977271
202,1.6034565136577047174053976268979
203,1.6044510784151988000123282941595
204,1.6054407553804139814580228164236
205,1.6064255923968663264770345870983
206,1.6074056366092182690993390098928
207,1.6083809344768264931044813971376
208,1.6093515317869651679602434416692
209,1.6103174736677302831067341577728
210,1.6112788046006365762160965490036
211,1.6122355684329144144179042764554
212,1.6131878083895168556452579458858
213,1.6141355670848412680236490889345
214,1.6150788865341804830200891207670
215,1.6160178081649026886121293822674
216,1.6169523728273740169627236819940
217,1.6178826208056277856718065495900
218,1.6188085918277893650839160111173
219,1.6197303250762599446180975955405
220,1.6206478591976717062771129485955
221,1.6215612323126123076572688362637
222,1.6224704820251358718550571604619
223,1.6233756454320540451332208733992
224,1.6242767591320221816766434210551
225,1.6251738592344232120133831644091
226,1.6260669813680527330742269906964
227,1.6269561606896139627702885722010
228,1.6278414318920243693237987757762
229,1.6287228292125411275279025946089
230,1.6296003864407100882085607586419
231,1.6304741369261400501863958544839
232,1.6313441135861127436875894466669
233,1.6322103489130235107373730887780
234,1.6330728749816688286313666489339
235,1.6339317234563738476147198622609
236,1.6347869255979696415677902817523
237,1.6356385122706237918567437355623
238,1.6364865139485260353906754759094
239,1.6373309607224344124974559766971
240,1.6381718823060840680672431116851
241,1.6390093080424629873439204568609
242,1.6398432669099575223469947329932
243,1.6406737875283717397313673892813
244,1.6415008981648222783520574942892
245,1.6423246267395130896802426408504
246,1.6431450008313925796720972188039
247,1.6439620476836945339103202659996
248,1.6447757942093704066083192754792
249,1.6455862669964079420291664551282
250,1.6463934923130465124767247606561
251,1.6471974961128870723238741785728
252,1.6479983040398995260312840023518
253,1.6487959414333325818144600670836
254,1.6495904333325257472723613726062
255,1.6503818044816273464621447175601
256,1.6511700793342186432459227471976
257,1.6519552820578504617103372599840
258,1.6527374365384887477786264584866
259,1.6535165663848758749253076853612
260,1.6542926949328080797589504490368
261,1.6550658452493293405937786598680
262,1.6558360401368464238041765175214
263,1.6566033021371639479143186540720
264,1.6573676535354449156463548478358
265,1.6581291163640952385257777346639
266,1.6588877124065744211497471895993
267,1.6596434632011356177232584460913
268,1.6603963900444950939379845891526
269,1.6611465139954353634684805008136
270,1.6618938558783377225874998112754
271,1.6626384362866534662146460854516
272,1.6633802755863077643233541196452
273,1.6641193939190436411801507689370
274,1.6648558112057032657963268943673
275,1.6655895471494504285341454871374
276,1.6663206212389324815855190236322
277,1.6670490527513892267016570643616
278,1.6677748607557005041889963314998
279,1.6684980641153839857087629886082
280,1.6692186814915352638190781469438
281,1.6699367313457181271590221921822
282,1.6706522319428025176191491067055
283,1.6713652013537533820234204272830
284,1.6720756574583675749377116715847
285,1.6727836179479656199477111852603
286,1.6734891003280343542336916351423
287,1.6741921219208255158187284437673
288,1.6748926998679066753535056586852
289,1.6755908511326691605891343316804
290,1.6762865925027937061561801451400
291,1.6769799405926716696819433968281
292,1.6776709118457846992460488788827
293,1.6783595225370467580445742132302
294,1.6790457887751035432752973301978
295,1.6797297265045913864871812293376
296,1.6804113515083632210566997066695
297,1.6810906794096715486185951912257
298,1.6817677256743177213075113862154
299,1.6824425056127643427739138867191
300,1.6831150343822125386863277264044
301,1.6837853269886445082679372347015
302,1.6844533982888334499102722477459
303,1.6851192629923180341074193306435
304,1.6857829356633450013555631053826
305,1.6864444307227813136628002967716
306,1.6871037624499951230090460197060
307,1.6877609449847027388528645657589
308,1.6884159923287890732587833998057
309,1.6890689183480976530591501023360
310,1.6897197367741905343461782403147
311,1.6903684612060817143516110323057
312,1.6910151051119415540017241684386
313,1.6916596818307736040545007907306
314,1.6923022045740656392546597799720
315,1.6929426864274142203141125007750
316,1.6935811403521241595254479657728
317,1.6942175791867804287856437485772
318,1.6948520156487978614464421577129
319,1.6954844623359457897299664711002
320,1.6961149317278476191479033361414
321,1.6967434361874592590399766471285
322,1.6973699879625225238495839770861
323,1.6979945991869970193637473379868
324,1.6986172818824694912508004870246
325,1.6992380479595423980711957932368
326,1.6998569092191999461891763873455
327,1.7004738773541544075422107805558
328,1.7010889639501699096708096555191
329,1.7017021804873686730770872324425
330,1.7023135383415161277922060742158
331,1.7029230487852863479480532870067
332,1.7035307229895088657975238542247
333,1.7041365720243972439488561161674
334,1.7047406068607575900486719369885
335,1.7053428383711813290631235913997
336,1.7059432773312182914300627769408
337,1.7065419344205329895526459552776
338,1.7071388202240451417163604507416
339,1.7077339452330505081708533211145
340,1.7083273198463281309549036510897
341,1.7089189543712296912872942523879
342,1.7095088590247534819194823386297
343,1.7100970439346026324945385941388
344,1.7106835191402275818758189355047
345,1.7112682945938546170457294544016
346,1.7118513801614979536360534852343
347,1.7124327856239589237238105190061
348,1.7130125206778090828968897640414
349,1.7135905949363607817981014652486
350,1.7141670179306227447815327946328
351,1.7147417991102427435804349357984
352,1.7153149478444370486559920203628
353,1.7158864734229059429144404246877
354,1.7164563850567367125861950073230
355,1.7170246918792944808707647333551
356,1.7175914029470990944693372079621
357,1.7181565272406913023822900372279
358,1.7187200736654874713240339624797
359,1.7192820510526185832504097456318
360,1.7198424681597624532812652746072
361,1.7204013336719609132589379393782
362,1.7209586562024284429215476323114
363,1.7215144442933468446916289749289
364,1.7220687064166509864690928647131
365,1.7226214509748038491990255225143
366,1.7231726863015597572950034705876
367,1.7237224206627186843486036809155
368,1.7242706622568684232843730501007
369,1.7248174192161192539422465376841
370,1.7253626996068268217104120679167
371,1.7259065114303060809739270974304
372,1.7264488626235352603244190601667
373,1.7269897610598498167216292946578
374,1.7275292145496306875717443664088
375,1.7280672308409775327865252949449
376,1.7286038176203784235460776818183
377,1.7291389825133677674911875682831
378,1.7296727330851756382811058441476
379,1.7302050768413703498590475248429
380,1.7307360212284910327350646503725
381,1.7312655736346730882843017961768
382,1.7317937413902636398004277278474
383,1.7323205317684316555482240964833
384,1.7328459519857677081114310687806
385,1.7333700092028769918984486756548
386,1.7338927105249662580762126122247
387,1.7344140630024204169001257990325
388,1.7349340736313727448851006445587
389,1.7354527493542693721571140580923
390,1.7359700970604252397648690807284
391,1.7364861235865718445733433757860
392,1.7370008357174003808161976567205
393,1.7375142401860977525048860386232
394,1.7380263436748740385181144685163
395,1.7385371528154842679884348960903
396,1.7390466741897441576091491572939
397,1.7395549143300394415459410523681
398,1.7400618797198288028765194847384
399,1.7405675767941389731591544598093
400,1.7410720119400563009100093549992
401,1.7415751914972108387552470996536
402,1.7420771217582536953320959648121
403,1.7425778089693304735625574305857
404,1.7430772593305486892822640040184
405,1.7435754789964366365972581366165
406,1.7440724740763998099342152104534
407,1.7445682506351720004685382348529
408,1.7450628146932585711044856109206
409,1.7455561722273747720865365397744
410,1.7460483291708816127458586164539
411,1.7465392914142135504459352482830
412,1.7470290648053015803909469991826
413,1.7475176551499928064494785273279
414,1.7480050682124629179607629706170
415,1.7484913097156258576307386902033
416,1.7489763853415371113194797375635
417,1.7494603007317934694086124805482
418,1.7499430614879264242093729060806
419,1.7504246731717934831715886852563
420,1.7509051413059623811032693942342
421,1.7513844713740921448901679758599
422,1.7518626688213102936627070704064
423,1.7523397390545840119184304530573
424,1.7528156874430889107323388145405
425,1.7532905193185717578459116025037
426,1.7537642399757107849474439823690
427,1.7542368546724710582756314803402
428,1.7547083686304549277684972908117
429,1.7551787870352514687243732463380
430,1.7556481150367777796844318775409
431,1.7561163577496196418429187922357
432,1.7565835202533686911831198012729
433,1.7570496075929514429637282253478
434,1.7575146247789612682576829816169
435,1.7579785767879811480266394289089
436,1.7584414685629051075721617345487
437,1.7589033050132564946292510286901
438,1.7593640910155020851057713720547
439,1.7598238314133626997597917256995
440,1.7602825310181214050612700199976
441,1.7607401946089264601767763494232
442,1.7611968269330925758564606763345
443,1.7616524327064001351029023111986
444,1.7621070166133869972335910214698
445,1.7625605833076422182890247086237
446,1.7630131374120927144838639916396
447,1.7634646835192900402773500876595
448,1.7639152261916905017328552955238
449,1.7643647699619364481958768259642
450,1.7648133193331308973253089887862
451,1.7652608787791129992227835254017
452,1.7657074527447271837333442930996
453,1.7661530456460917367772573477613
454,1.7665976618708631975198122622812
455,1.7670413057785002031840603444382
456,1.7674839817005220815129382560176
457,1.7679256939407668896660202877613
458,1.7683664467756452986118426865584
459,1.7688062444543928401791629255677
460,1.7692450911993201624374565962258
461,1.7696829912060591465391084050442
462,1.7701199486438081015734383459799
463,1.7705559676555746447921287619735
464,1.7709910523584144317948409202308
465,1.7714252068436697091877008876748
466,1.7718584351772048242890550138920
467,1.7722907413996379763809510882250
468,1.7727221295265742292242717518582
469,1.7731526035488322657360978866338
470,1.7735821674326724136637881517550
471,1.7740108251200202137876295319882
472,1.7744385805286898327947993852153
473,1.7748654375526026763889676603806
474,1.7752914000620087114063775708951
475,1.7757164719036994246110249828603
476,1.7761406569012249370144773538335
477,1.7765639588551056118997772673530
478,1.7769863815430428378601997737079
479,1.7774079287201278817068824980027
480,1.7778286041190492114388758138963
481,1.7782484114502968459318657625142
482,1.7786673544023673060544792489766
483,1.7790854366419645533137191534331
484,1.7795026618141997420445022268254
485,1.7799190335427912684630266424412
486,1.7803345554302597079955726863269
487,1.7807492310581244964740928656790
488,1.7811630639870969586827400134012
489,1.7815760577572729195489869279411
490,1.7819882158883227684319657719836
491,1.7823995418796811183124489943902
492,1.7828100392107346558245243246645
493,1.7832197113410081651046219738421
494,1.7836285617103498277017345569524
495,1.7840365937391139994785247197109
496,1.7844438108283447176192908206224
497,1.7848502163599556322004504675556
498,1.7852558136969103167793322503663
499,1.7856606061834004648056440554529
500,1.786064597145024112071738590011
501,1.786467789888959641273129538865
502,1.786870187704143034165689234087
503,1.787271793861439850079883879920
504,1.787672611613819785573350814221
505,1.788072644196526673965630268357
506,1.788471894827249666461939242246
507,1.788870366706293454863083629863
508,1.789268063016747188163868152288
509,1.789664986924650326644902605122
510,1.790061141579161499803357570711
511,1.790456530112723612718511083699
512,1.790851155641229114984592992894
513,1.791245021264184062324376791446
514,1.791638130064871662179176479495
515,1.792030485110515692869303235317
516,1.792422089452442022505225613454
517,1.792812946126239318729360463592
518,1.793203058151920751541129151019
519,1.793592428534083488555754454387
520,1.793981060262068857668651689448
521,1.794368956310119990901880142743
522,1.794756119637541244783963987710
523,1.795142553188855854198724606091
