Eigenstate,Potential Energy
1,0.500000000013533553353318378071431868
2,0.64623093773945459363046475499434442
3,0.73633760996446697826172030006059466
4,0.79966527835472921365012311747042436
5,0.8480465762219249531463842017990446
6,0.8870659983190022788548735853963485
7,0.9197208260833266797809792031895856
8,0.9477838458914244121996456524918877
9,0.9723835567493345697013695312533444
10,0.9942802128054795628036346333146183
11,1.0140093842007978324687975995315510
12,1.0319621662398467404487058351706089
13,1.0484326889883787208637670340037928
14,1.0636476501294938036852474817505906
15,1.0777854307778190670215555823573094
16,1.090988900349950356766311277701984
17,1.103374250025954545213378868448853
18,1.115037243755567688754252624541057
19,1.126057741362171813841300910907172
20,1.136503036176730818448195173372869
21,1.146430361119487289910788491471799
22,1.155888799858702392400038314407061
23,1.164920764747180351101405265567560
24,1.173563154222690490256013233995004
25,1.181848269603893537830794120154086
26,1.189804548897929313091565679031774
27,1.197457159762992516056180964069009
28,1.204828482867372531306797011810880
29,1.211938509091405338938594583920566
30,1.218805168369298057383164969296901
31,1.225444603821848143659461732550243
32,1.231871401753179692526770298963814
33,1.238098785774971472362720036412188
34,1.244138781571105069796784606229090
35,1.250002357476466449713608671320925
36,1.255699545010155358916224739035844
37,1.261239542699272453402967917382283
38,1.266630805899035286215441472745881
39,1.271881124817125643412992104230132
40,1.276997692554349932277227461812329
41,1.281987164656944052204479417026655
42,1.286855711420861577299846587243331
43,1.291609063981897734820082332788449
44,1.296252555057407648149595837547846
45,1.300791155067807744030855013586273
46,1.305229504252912941205383111877139
47,1.309571941304685625313814047812236
48,1.313822528960386050675197405790774
49,1.317985076935451265685915649755531
50,1.32206316252130694493928152749279
51,1.32606014912784954870610965381589
52,1.32997920301199101612703727636347
53,1.33382330840120807992966311357916
54,1.33759528119347715903445920081923
55,1.34129778139150029290753161789054
56,1.34493332440905301139821164601221
57,1.34850429137008606868478023324023
58,1.35201293850641578366435942038912
59,1.35546140574708378185108016483251
60,1.35885172458144242614706575107629
61,1.36218582526845799634856599235496
62,1.36546554345642267213812494474748
63,1.36869262627002448529488120689530
64,1.37186873791541192693452999900723
65,1.37499546484835505561893430440279
66,1.37807432054575761312248873787220
67,1.38110674991651236331747870057041
68,1.38409413338393570883300393937191
69,1.38703779066870496941595193402341
70,1.38993898429829343765923551064420
71,1.39279892286629962403177907231379
72,1.39561876406276886076556388137745
73,1.39839961749455242775183540049071
74,1.40114254731293051504626184295566
75,1.40384857466409423548007805124460
76,1.40651867997663234411931228638026
77,1.40915380509886592289628962411249
78,1.41175485529770849055761961018416
79,1.41432270112968217808078717567884
80,1.41685818019378248406720497888731
81,1.41936209877503478314304805918392
82,1.42183523338682430984581386014465
83,1.42427833221939260668497941709711
84,1.42669211650126913334906414375744
85,1.42907728177984745785778047049800
86,1.43143449912679958506871787230184
87,1.43376441627356450714814754450587
88,1.43606765868172368287990063288897
89,1.43834483055269265052481846612000
90,1.44059651578081476221399449838466
91,1.44282327885362157580838457509969
92,1.44502566570273614261825071906158
93,1.44720420450863317432028800428398
94,1.44935940646222714367220256671957
95,1.45149176648603821959550211688223
96,1.45360176391748411508087369991112
97,1.45568986315666158426087557840857
98,1.45775651428080843070004289146225
99,1.45980215362748341676331268800655
100,1.46182720434835512350768640621816
101,1.46383207693536150638750550007527
102,1.46581716972087631734269426673884
103,1.46778286935341065022643274235565
104,1.46972955125027060181828334454010
105,1.47165758002849896691195511363456
106,1.47356730991533812172313771808685
107,1.47545908513937316790743976514739
108,1.47733324030343516992409112428729
109,1.47919010074027572494687761155116
110,1.48102998285196168439877415871817
111,1.48285319443387298498815737251473
112,1.48466003498413711349105423603760
113,1.48645079599927819372978833453867
114,1.48822576125680992644204330501550
115,1.48998520708546116423180247574359
116,1.49172940262367457214539751447561
117,1.49345861006698711140913765610848
118,1.49517308490486005275940899149381
119,1.49687307614749251207986582289752
120,1.49855882654312665882531236390225
121,1.50023057278631448046768747621876
122,1.50188854571759707306674673601858
123,1.50353297051501523513605960504773
124,1.50516406687785246216625784552653
125,1.50678204920298187290438828408982
126,1.50838712675417340119064230848661
127,1.50997950382469700926734835646544
128,1.51155937989353509128521708787028
129,1.51312694977550516249373346111645
130,1.51468240376557554773530979497626
131,1.51622592777764137874474614155976
132,1.51775770347801323255472198634791
133,1.51927790841385896172416612625033
134,1.52078671613682799114735811918915
135,1.52228429632206924785924247188637
136,1.52377081488285020272206924276477
137,1.52524643408097119493477291674871
138,1.52671131263315559831604275113241
139,1.52816560581359428240633461089547
140,1.52960946555280737546581621118698
141,1.53104304053298177895534202096915
142,1.53246647627993480982035446569421
143,1.53387991525184569672844995194463
144,1.53528349692488947677424007043198
145,1.53667735787590365140616312185911
146,1.53806163186221009157886474834075
147,1.53943644989870647916881735320122
148,1.54080194033234261365753914309221
149,1.54215822891408338501238601690085
150,1.54350543886846205361784674709318
151,1.54484369096081975148632418385332
152,1.54617310356232150389288205139835
153,1.54749379271283772110167253440469
154,1.54880587218177505939985205054656
155,1.55010945352693488740488722012005
156,1.55140464615147722398120308802360
157,1.55269155735906119434204867487719
158,1.55397029240723382240994607960229
159,1.5552409545591308322411330886598
160,1.5565036451335557960236850580425
161,1.5577584635534961247402170535936
162,1.5590055073931353625664664358801
163,1.5602448724234166382751092607045
164,1.5614766526562119102096562214144
165,1.5627009403871456050159804596420
166,1.5639178262371231656902137864477
167,1.5651273991926117412323342240259
168,1.5663297466447157067888089658877
169,1.5675249544270920763448931496101
170,1.5687131068527455510520383320414
171,1.5698942867497433976211707667437
172,1.5710685754958880234095504212175
173,1.5722360530523826505018361327634
174,1.5733967979965259322691440593000
175,1.5745508875534694973089333011118
176,1.5756983976270681270882747090778
177,1.5768394028298558277977703659284
178,1.5779739765121769507820264987090
179,1.5791021907904988064621850700800
180,1.5802241165749367181191365684613
181,1.5813398235960141640931609170482
182,1.5824493804306857037550241422253
183,1.5835528545276457364919897602721
184,1.5846503122319473352142951153692
185,1.5857418188089529624747972615659
186,1.5868274384676380377905557513662
187,1.5879072343832711566328516335605
188,1.5889812687194863973692768177573
189,1.5900496026497714472144547039700
190,1.5911122963783871982329944577877
191,1.5921694091607380359119327111226
192,1.5932209993232092024704192488728
193,1.5942671242824895387187914255313
194,1.5953078405643929452131973383151
195,1.5963432038221964950274800113370
196,1.5973732688545088900046380220442
197,1.5983980896226836357707832212487
198,1.5994177192677910974523628366670
199,1.6004322101271622699117413771201
200,1.6014416137505182026617953768766
201,1.6024459809156960558379261073969
202,1.6034453616439851633383823500287
203,1.6044398052150837578145922078519
204,1.6054293601816879723725782039038
205,1.6064140743837230842971125998693
206,1.6073939949622300194950765374485
207,1.6083691683729129882831375825082
208,1.6093396403993624739239617807385
209,1.6103054561659593167380986149325
210,1.6112666601504713893901694213832
211,1.6122232961963502223053475293795
212,1.6131754075247378063377811580218
213,1.6141230367461879505784105924675
214,1.6150662258721171709853644194567
215,1.6160050163259843160610693211107
216,1.6169394489542128840261555695156
217,1.6178695640368599905251348766364
218,1.6187954012980409593062385383229
219,1.6197169999161128088038159418865
220,1.6206343985336291427434078955508
221,1.6215476352670643470515428238041
222,1.6224567477163242904278498614335
223,1.6233617729740370894026530401718
224,1.6242627476346389971701476747817
225,1.6251597078032579727314493144338
226,1.6260526891043984682800570724951
227,1.6269417266904360776677869133741
228,1.6278268552499238561420473528890
229,1.6287081090157174634892575910654
230,1.6295855217729238168122476902466
231,1.6304591268666750421955493407796
232,1.6313289572097381341625924794744
233,1.6321950452899553084124546510929
234,1.6330574231775311938850283253268
235,1.6339161225321600352374846869656
236,1.6347711746100026044829860103607
237,1.6356226102705164419009714385007
238,1.6364704599831411572121951743257
239,1.6373147538338442265800659745151
240,1.6381555215315294388364116831860
241,1.6389927924143122722608473142920
242,1.6398265954556650578442218943112
243,1.6406569592704359597888056558749
244,1.6414839121207434614609348257640
245,1.6423074819217507298858456943591
246,1.6431276962473223773310280229550
247,1.6439445823355650017422320405339
248,1.6447581670942590865645445323398
249,1.6455684771061772284422933421311
250,1.6463755386342990768964300772209
251,1.6471793776269208853843414217623
252,1.6479800197226624716349838620125
253,1.6487774902553766588553091527644
254,1.6495718142589608540578598503654
255,1.6503630164720746429318788203398
256,1.6511511213427634860173533726016
257,1.6519361530329949069191972345713
258,1.6527181354231036166130236389622
259,1.6534970921161523766856653736718
260,1.6542730464422089872075141807342
261,1.6550460214625397122864647079415
262,1.6558160399737238680281166137620
263,1.6565831245116884227815774594119
264,1.6573472973556680598213058565999
265,1.6581085805320892269898749514545
266,1.6588669958183803403312503726725
267,1.6596225647467113542438331613789
268,1.6603753086076627311493703068811
269,1.6611252484538280798739854539093
270,1.6618724051033461861625556573224
271,1.6626167991433717185597557850202
272,1.6633584509334785884986237911342
273,1.6640973806090034069877409291004
274,1.6648336080843262461910348673823
275,1.6655671530560925807560607559307
276,1.6662980350063746865192986821753
277,1.6670262732057799798786402432027
278,1.6677518867164980517566593258764
279,1.6684748943952978985992895940842
280,1.6691953148964674432554382534845
281,1.6699131666747032345406077613130
282,1.6706284679879478217325375915710
283,1.6713412369001780164249862359307
284,1.6720514912841411982547253174434
285,1.6727592488240464717417626829501
286,1.6734645270182066989680868992634
287,1.6741673431816364673655194054987
288,1.6748677144486023943683771283093
289,1.6755656577751304169748499874351
290,1.6762611899414707987237961480674
291,1.6769543275545186950070045346736
292,1.6776450870501931616028728155414
293,1.6783334846957785121857520693997
294,1.6790195365922230617047653025009
295,1.6797032586763973427568222089446
296,1.6803846667233193804929798457211
297,1.6810637763483369577623608164165
298,1.6817406030092761872244602058275
299,1.6824151620085531932643941397620
300,1.6830874684952506542934354633985
301,1.6837575374671596168495467200340
302,1.6844253837727886744071437805470
303,1.6850910221133376840016213987169
304,1.6857544670446395981745073975919
305,1.6864157329790718407422222788603
306,1.6870748341874364895847568546589
307,1.6877317848008064484040846296946
308,1.6883865988123450858772567714177
309,1.6890392900790954314659777916552
310,1.6896898723237392630255519586133
311,1.6903383591363296811123742700427
312,1.6909847639759946831185306594582
313,1.6916291001726131299791158151417
314,1.6922713809284649097219070687044
315,1.6929116193198546174988273514051
316,1.6935498282987101277376103484587
317,1.6941860206941535970148993540445
318,1.6948202092140502488921588143481
319,1.6954524064465320822725962856667
320,1.6960826248614965045338183177650
321,1.6967108768120838083667398015966
322,1.6973371745361296067479966110302
323,1.6979615301575957400813903110111
324,1.6985839556879786326441506885102
325,1.6992044630276968603152556370786
326,1.6998230639674561668085846982117
327,1.7004397701895947491626548806877
328,1.7010545932694060016776587698689
329,1.7016675446764436931545984183528
330,1.7022786357758060090984734597631
331,1.7028878778293998974580032669348
332,1.7034952819971867791218806029625
333,1.7041008593384100017050674081658
334,1.7047046208128022206266646025316
335,1.7053065772817770223901001324230
336,1.7059067395096008480951629085106
337,1.7065051181645480894057468158412
338,1.7071017238200404158032637907590
339,1.7076965669557663976106631726131
340,1.7082896579587875161049360905826
341,1.7088810071246262742736578692431
342,1.7094706246583389053426995274846
343,1.7100585206755723168420183792282
344,1.7106447052036052638941665364627
345,1.7112291881823755710374896606244
346,1.7118119794654908773564370039950
347,1.7123930888212264702551903230085
348,1.7129725259335070195762930085320
349,1.7135503004028757569663538207887
350,1.7141264217474486428070538166011
351,1.7147008994038556082929738889705
352,1.7152737427281685549991262892409
353,1.7158449609968153962944000633815
354,1.7164145634074815550554046319740
355,1.7169825590799992829427127154172
356,1.7175489570572230110066459474638
357,1.7181137663058939706458479856563
358,1.7186769957174933289046211472187
359,1.7192386541090795832330601508737
360,1.7197987502241191536143147109672
361,1.7203572927333019169137940512646
362,1.7209142902353481650360689245750
363,1.7214697512578015824888522520835
364,1.7220236842578132673343034772785
365,1.7225760976229150318813244326448
366,1.7231269996717808607756816226861
367,1.7236763986549794184854757339646
368,1.7242243027557143948983268214854
369,1.7247707200905573215637309969606
370,1.7253156587101685717436833095473
371,1.7258591266000093975690687825153
372,1.7264011316810439607696417063511
373,1.7269416818104313236815462599147
374,1.7274807847822117090008967080777
375,1.7280184483279777198419019415414
376,1.7285546801175419763041889683748
377,1.7290894877595929577487041761869
378,1.7296228788023422181828735718179
379,1.7301548607341648145455194445358
380,1.7306854409842297046452408925759
381,1.7312146269231229901770494954020
382,1.7317424258634611229760069381052
383,1.7322688450604987491581271334930
384,1.7327938917127261548380269812318
385,1.7333175729624599346662114954563
386,1.7338398958964275418268550410818
387,1.7343608675463414688195913503150
388,1.7348804948894669958105590928051
389,1.7353987848491841812243113705719
390,1.7359157442955412836679338467002
391,1.7364313800457999321127345400506
392,1.7369456988649756526943451947978
393,1.7374587074663712256014649924255
394,1.7379704125121014531333013484542
395,1.7384808206136121957808736441868
396,1.7389899383321933271823829042946
397,1.7394977721794852378427839746770
398,1.7400043286179788957336882331773
399,1.7405096140615080295465999948186
400,1.7410136348757377345385115882227
401,1.7415163973786455498708736077787
402,1.7420179078409957526394445892530
403,1.7425181724868096893159357745100
404,1.7430171974938300376720152795018
405,1.7435149889939764646114671540136
406,1.7440115530737987889259811573255
407,1.7445068957749247656747640791105
408,1.7450010230944999953628644581979
409,1.7454939409856228189750622916200
410,1.7459856553577767133244078731189
411,1.7464761720772544467130667224916
412,1.7469654969675775774751950822313
413,1.7474536358099123744413040838310
414,1.7479405943434785831494924853948
415,1.7484263782659553217460826885191
416,1.7489109932338805361885591258786
417,1.7493944448630468632173569409641
418,1.7498767387288910643125770639946
419,1.7503578803668813091270104238869
420,1.7508378752728972902971819929416
421,1.7513167289036071217955276244623
422,1.7517944466768403024058926460886
423,1.7522710339719545804415979664886
424,1.7527464961302003334101368664207
425,1.7532208384550788419631082841287
426,1.7536940662126980649504681416108
427,1.7541661846321234001869183343936
428,1.7546371989057234445962757086570
429,1.7551071141895146660990653367539
430,1.7555759356034978493263482968561
431,1.7560436682319938187906955973378
432,1.7565103171239755890051638919273
433,1.7569758872933922794232057974548
434,1.7574403837194958921123712013378
435,1.7579038113471587758110859073252
436,1.7583661750871896773336015194110
437,1.7588274798166465416671325512275
438,1.7592877303791450427987696599747
439,1.7597469315851635265503972272292
440,1.7602050882123454366076969733096
441,1.7606622050057963835683848076745
442,1.7611182866783794206281483655644
443,1.7615733379110081735708239910898
444,1.7620273633529324444050803780934
445,1.7624803676220256192765644596438
446,1.7629323553050649049746979688902
447,1.7633833309580115631724741687066
448,1.7638332991062843605691606760044
449,1.7642822642450340754094535516097
450,1.7647302308394112127881692658318
451,1.7651772033248344318020704330748
452,1.7656231861072525258641764938173
453,1.7660681835634056992188806625482
454,1.7665122000410825285728617982716
455,1.7669552398593762336794893140476
456,1.7673973073089355538413097465863
457,1.7678384066522149260017309049522
458,1.7682785421237203602868988422824
459,1.7687177179302535268864100777101
460,1.7691559382511536965785400895625
461,1.7695932072385353845883103047442
462,1.7700295290175249107906109678482
463,1.7704649076864944799914533861625
464,1.7708993473172919431548405840954
465,1.7713328519554702082716314930637
466,1.7717654256205134315278253173310
467,1.7721970723060592692489904872125
468,1.7726277959801222062209232380676
469,1.7730576005853104370429720586506
470,1.7734864900390438250135026333261
471,1.7739144682337672056126278241520
472,1.7743415390371633321516677589938
473,1.7747677062923608144494341878795
474,1.7751929738181445544854547825891
475,1.7756173454091576017415739852325
476,1.7760408248361069419927714128312
477,1.7764634158459635524986288443411
478,1.7768851221621613995383577758351
479,1.7773059474847942676268083842423
480,1.7777258954908108149454432696903
481,1.7781449698342064058150685187911
482,1.7785631741462152889483654283893
483,1.7789805120354985014297987975311
484,1.7793969870883303181267489678123
485,1.7798126028687847233566118006896
486,1.7802273629189164895504988129323
487,1.7806412707589437116421326388496
488,1.7810543298874263936141384160231
489,1.7814665437814443152457933298420
490,1.7818779158967720420499664348971
491,1.7822884496680532125423012240649
492,1.7826981485089726908871164542848
493,1.7831070158124265597842538578645
494,1.7835150549506910474898875199909
495,1.7839222692755885813174288468818
496,1.7843286621186542118878285604883
497,1.7847342367912980934954739824076
498,1.7851389965849679656863596698984
499,1.7855429447713091332094814727981
500,1.785946084602324074651458528315
501,1.786348419310527425599895946299
502,1.786749952109103791320254160595
503,1.787150686192059856871888901564
504,1.787550624734378638296984293360
505,1.787949770892168722139740150811
506,1.788348127802814223171242673149
507,1.788745698585123308131343655096
508,1.789142486339474925226484394074
509,1.789538494147961970049579588320
510,1.789933725074536940931364950192
511,1.790328182165153314568712337525
512,1.790721868447906541893710977496
513,1.791114786933173279686596381361
514,1.791506940613749534161462402373
515,1.791898332464988090589080439036
516,1.792288965444933439110759810732
517,1.792678842494455271300244341053
518,1.793067966537382332676844372203
519,1.793456340480633412931667762413
520,1.793843967214348330688483585282
521,1.794230849612015707845796938122
522,1.794616990530601809519239046751
523,1.795002392810676886559881992282
