Eigenstate,Potential Energy
1,0.500000000458216928151384002288730459
2,0.64623094064216208221526365632624113
3,0.73633761849114653966996887537807160
4,0.79966529611542993927600812045027027
5,0.8480466069884193225520630817395421
6,0.8870660459299143185810254319021367
7,0.9197208944093099320280943595896534
8,0.9477839388207634656901534579793961
9,0.9723836781813635724000895956444240
10,0.9942803666473468269583614948282140
11,1.0140095743658058679297436906886332
12,1.0319623966465953472727919640233878
13,1.0484329635603455201130371502157277
14,1.0636479727948667690664790335267225
15,1.0777858054694813428393381910887161
16,1.090989331005560997772219153985028
17,1.103374740588091919333746766570283
18,1.115037798171915173391307197835066
19,1.126058363585732899632008237470099
20,1.136503730166065233968369953683646
21,1.146431130838962551898219310947166
22,1.155889649278756966082320721866468
23,1.164921697844595769025123184503758
24,1.173564174980870556212503741856875
25,1.181849382013149273524699597731827
26,1.189805756955768674371750163976334
27,1.197458467474414166560371037580180
28,1.204829894245163148841335623796548
29,1.211940028156440066508836325815798
30,1.218806799150843811657181089839178
31,1.225446350357869569070971090613646
32,1.231873268090647606287210372429834
33,1.238100775970173689310014199495778
34,1.244140899689959529764595281481852
35,1.250004607594836596473667462769729
36,1.255701931214167740547355475856335
37,1.261242069085636530510871251844508
38,1.266633476575365447752043095052551
39,1.271883943902265440662967106076955
40,1.277000664178698550447875702286200
41,1.281990292962785046395119734316934
42,1.286859000562693905763825758966351
43,1.291612518126769127615248528660655
44,1.296256178385250353695861050540707
45,1.300794951771776699909152933165824
46,1.305233478539726418860931714036183
47,1.309576097394968401261567360884830
48,1.313826871089015159425119393402449
49,1.317989609351904391968414568100075
50,1.32206788949001351496766669216082
51,1.32606507492854458220318231376378
52,1.32998433194007180269774120068899
53,1.33382864476809374510925042476612
54,1.33760082932697118700428932588854
55,1.34130354563615607446441811386292
56,1.34493930912654248730546824562769
57,1.34851050093957154003516253149117
58,1.35201937732492496236051595037805
59,1.35546807822988815576079683218119
60,1.35885863516243901493360052835047
61,1.36219297840055457541243568606430
62,1.36547294361192654354433187623047
63,1.36870027794103487600037778279621
64,1.37187664561421609608256457872300
65,1.37500363310782819413386383057762
66,1.37808275391976662031882117429204
67,1.38111545298032358674038092310765
68,1.38410311073462673507154222497434
69,1.38704704692558055518282457389175
70,1.38994852410330567200508992088693
71,1.39280875088447241417400719226357
72,1.39562888498262683564705465930150
73,1.39841003602855435512167772399160
74,1.40115326819790732956054352710473
75,1.40385960266169177706876361877984
76,1.40653001987375890764761275649127
77,1.40916546170814472197612414807739
78,1.41176683345793514023113052456325
79,1.41433500570628730300940288237268
80,1.41687081607929956081436535507132
81,1.41937507088957332714350544978310
82,1.42184854667854851970424822529080
83,1.42429199166500558054783200652280
84,1.42670612710650277424576877654432
85,1.42909164857995818711327150711975
86,1.43144922718706998514741659973254
87,1.43377951068981101760740386760240
88,1.43608312458081047548300742382058
89,1.43836067309305181199728178318244
90,1.44061274015297291562054234713305
91,1.44283989028073307408628802703450
92,1.44504266944112297042266060192958
93,1.44722160584833169702707049430950
94,1.44937721072754184513923555189115
95,1.45150997903610257311120324822801
96,1.45362039014682873482614126276255
97,1.45570890849578980758700065079846
98,1.45777598419677948457110619426390
99,1.45982205362450332484377113012255
100,1.46184753996837551358143016030784
101,1.46385285375868648108924947057924
102,1.46583839336677755455854135483246
103,1.46780454548075090298517687003227
104,1.46975168555813577105255206740919
105,1.47168017825683892411314264739202
106,1.47359037784561646226056350605473
107,1.47548262859522607962230703899258
108,1.47735726515133960555081462938539
109,1.47921461289022707096325063230474
110,1.48105498825816112305799231920487
111,1.48287869909542475054927729817749
112,1.48468604494575584804173615383325
113,1.48647731735200661248672173209357
114,1.48825280013874700702887958077765
115,1.49001276968250107916934316196613
116,1.49175749517025658865220916816973
117,1.49348723884685668760451994858725
118,1.49520225625184136448947042780213
119,1.49690279644627264985294257369516
120,1.49858910223005173975445207666294
121,1.50026141035019792567344059269979
122,1.50191995170054030670255611140632
123,1.50356495151324106706163001397474
124,1.50519662954255142231822422496994
125,1.50681520024117177160671744271523
126,1.50842087292957239600550457233984
127,1.51001385195861046552518513010813
128,1.51159433686575653015079748558098
129,1.51316252252523159732925026211809
130,1.51471859929233751661968690137906
131,1.51626275314224798830318992353896
132,1.51779516580351253575743314621402
133,1.51931601488651400001803292898875
134,1.52082547400710883922202012118067
135,1.52232371290566140749976566782659
136,1.52381089756167970058609661639856
137,1.52528719030424674772036499010872
138,1.52675274991842821765836947501151
139,1.52820773174783470096646044978788
140,1.52965228779350168506966568281804
141,1.53108656680924568129690133842676
142,1.53251071439364689018957769556211
143,1.53392487307880014145382999392330
144,1.53532918241596866560037534728255
145,1.53672377905827106686424373608673
146,1.53810879684052399856671833505012
147,1.53948436685635483944362183047232
148,1.54085061753269971176915995480361
149,1.54220767470178865438676548886331
150,1.54355566167072160403608913235032
151,1.54489469928873111212972378938129
152,1.54622490601222210942100397698562
153,1.54754639796767768194292689948734
154,1.54885928901251477155077962317566
155,1.55016369079396805158595743372578
156,1.55145971280607985899279994040109
157,1.55274746244486724491137684078589
158,1.55402704506173797775305372522216
159,1.5552985640152191879760697195927
160,1.5565621207210650090044209986019
161,1.5578178147008017278262932377539
162,1.5590657436287699243476206115453
163,1.5603060033777184713239234905066
164,1.5615386880630050505835731533593
165,1.5627638900854518054795579012341
166,1.5639817001729066654975639485607
167,1.5651922074205575963355272278022
168,1.5663954993300424860342706229231
169,1.5675916618473997516018311422154
170,1.5687807793998994323354943037901
171,1.5699629349317949881257173861765
172,1.5711382099390336940009735127650
173,1.5723066845029610586507750072061
174,1.5734684373230551366777683264361
175,1.5746235457487247466136141899897
176,1.5757720858102013290436419736645
177,1.5769141322485577343058327382180
178,1.5780497585448831240474055093780
179,1.5791790369486404624712553424523
180,1.5803020385052375756007823460270
181,1.5814188330828344601481572190713
182,1.5825294893984145714937911996183
183,1.5836340750431431753338226832193
184,1.5847326565070370410194794889824
185,1.5858252992029673224517881522796
186,1.5869120674900166341907739603487
187,1.5879930246962141636692762020398
188,1.5890682331406642976262283655964
189,1.5901377541550925371013565866017
190,1.5912016481048243968429169364993
191,1.5922599744092165580300294042448
192,1.5933127915615567044973734285162
193,1.5943601571484503960161282338717
194,1.5954021278687083708799170076473
195,1.5964387595517522634714273528195
196,1.5974701071755524839468191140116
197,1.5984962248841126926112384697489
198,1.5995171660045150902744529692753
199,1.6005329830635394199416413494232
200,1.6015437278038696837879726165786
201,1.6025494511998996179299469351580
202,1.6035502034731503697134040915420
203,1.6045460341073111033327784757946
204,1.6055369918629142224663496583681
205,1.6065231247916552518111279473637
206,1.6075044802503704757019983839094
207,1.6084811049146782869400780794163
208,1.6094530447922985528618456840217
209,1.6104203452360558304266773357341
210,1.6113830509565780182521984184161
211,1.6123412060346979005013262005851
212,1.6132948539335679093911615203260
213,1.6142440375104925877911931961881
214,1.6151887990284938352071838699194
215,1.6161291801676082552724063623494
216,1.6170652220359306755220704932958
217,1.6179969651804079194597002981146
218,1.6189244495973919291811326379343
219,1.6198477147429556423910398807982
220,1.6207667995429842681438524385880
221,1.6216817424030400053481672170179
222,1.6225925812180175489577373276835
223,1.6234993533815840983402150356155
224,1.6244020957954190871057713123638
225,1.6253008448782563576233422713690
226,1.6261956365747324917937243049682
227,1.6270865063640501218958905514212
228,1.6279734892684582203069752290417
229,1.6288566198615567168841665578976
230,1.6297359322764303353014850963066
231,1.6306114602136136514729345435564
232,1.6314832369488980061178787098974
233,1.6323512953409754898039380550474
234,1.6332156678389363895535494557958
235,1.6340763864896135218415667467616
236,1.6349334829447834156978088123852
237,1.6357869884682282427914600749423
238,1.6366369339426605146579173568269
239,1.6374833498765162847858810014771
240,1.6383262664106193248729713746436
241,1.6391657133247208868059441084138
242,1.6400017200439182517292975861075
243,1.6408343156449564582819409312221
244,1.6416635288624152763188991206076
245,1.6424893880947861949515459236376
246,1.6433119214104423578066389221948
247,1.6441311565535032611497764265756
248,1.6449471209496022499727410125941
249,1.6457598417115522567969692962097
250,1.6465693456449206665339823014347
251,1.6473756592535117301634479705880
252,1.6481788087447598740602245367256
253,1.6489788200350395523769541460573
254,1.6497757187548919030112211076829
255,1.6505695302541727208529159901272
256,1.6513602796071224991172907981816
257,1.6521479916173656290175414231810
258,1.6529326908228359368363269956255
259,1.6537144015006361337266390214707
260,1.6544931476718323760972502723511
261,1.6552689531061851037825452720090
262,1.6560418413268217793206609889230
263,1.6568118356148513239163943910164
264,1.6575789590139266958401672117194
265,1.6583432343347551842728748546315
266,1.6591046841595596902255295124853
267,1.6598633308464953711552520544724
268,1.6606191965340229095402703889106
269,1.6613723031452439689481747064411
270,1.6621226723921959265668274486756
271,1.6628703257801166067125513040235
272,1.6636152846116745159056115923343
273,1.6643575699911736292431687730777
274,1.6650972028287316347948116139458
275,1.6658342038444373062719766659389
276,1.6665685935724871802631888955253
277,1.6673003923653110300013274396024
278,1.6680296203976800155873535606199
279,1.6687562976708112642160488711790
280,1.6694804440164633578228640252074
281,1.6702020791010331440641294740475
282,1.6709212224296540461880340583616
283,1.6716378933503019262240739441566
284,1.6723521110579086739143901501660
285,1.6730638945984935306203480855755
286,1.6737732628733115740404295923566
287,1.6744802346430280374325375234323
288,1.6751848285319187080140548073775
289,1.6758870630321051404949488425341
290,1.6765869565078297690161353384039
291,1.6772845271997733911914651528465
292,1.6779797932294228449455141934047
293,1.6786727726034980451999374752338
294,1.6793634832184390286615935329716
295,1.6800519428649610818306000627497
296,1.6807381692326919312064396379220
297,1.6814221799148877576682596639988
298,1.6821039924132446528528966796642
299,1.6827836241428101294338465543901
300,1.6834610924370047931621963109595
301,1.6841364145527635376182223173514
302,1.6848096076758079442192332140132
303,1.6854806889260573426572491323158
304,1.6861496753631931408951735453078
305,1.6868165839923896967481770193905
306,1.6874814317702237180304092089359
307,1.6881442356107730519541918452841
308,1.6888050123919270577854974318480
309,1.6894637789619204943638521711335
310,1.6901205521461083251889796663722
311,1.6907753487540034372604749239272
312,1.6914281855865946408181970395319
313,1.6920790794439677807032939497130
314,1.6927280471332549300897334084553
315,1.6933751054769360404945108780532
316,1.6940202713215215419040382720675
317,1.6946635615466428081700740639361
318,1.6953049930745876890682154108149
319,1.6959445828803128127087075150693
320,1.6965823480019701979729046206031
321,1.6972183055519929040822268577813
322,1.6978524727287802357577736066872
323,1.6984848668290343807409650460366
324,1.6991155052608001824219500339053
325,1.6997444055572673492449704046929
326,1.7003715853913961950460039983200
327,1.7009970625914384688209251241920
328,1.7016208551574257120216705547323
329,1.7022429812787125855697069150556
330,1.7028634593526620779282662706043
331,1.7034823080045734177576725144653
332,1.7040995461089630477979015306731
333,1.7047151928123193786823906694292
334,1.7053292675574621720176118289053
335,1.7059417901096573075069088401193
336,1.7065527805846448483808922135836
337,1.7071622594787624136725074935151
338,1.7077702477013634518534757045971
339,1.7083767666097468287714221470166
340,1.7089818380468487369122200251363
341,1.7095854843819652705702558621012
342,1.7101877285548121171333776198678
343,1.7107885941232604154062699768090
344,1.7113881053151284076414509780010
345,1.7119862870844560415100625399263
346,1.7125831651727373712230804704239
347,1.7131787661756510658521211024921
348,1.7137731176158904513488389016317
349,1.7143662480227790065623363068621
350,1.7149581870194405180768172216605
351,1.7155489654184004006193811060474
352,1.7161386153266108229232887542503
353,1.7167271702610289593817573418549
354,1.7173146652760387381731883853328
355,1.7179011371041901332299037114916
356,1.7184866243119431983156466116664
357,1.7190711674723607280734423801919
358,1.7196548093569844437928673553010
359,1.7202375951494729800339644690659
360,1.7208195726840022985166387946485
361,1.7214007927118961696541876180304
362,1.7219813092005440833955446211976
363,1.7225611796693372831257270422150
364,1.7231404655681836678730396393569
365,1.7237192327051397195395091256957
366,1.7242975517308848710352809049409
367,1.7248754986892044829282026553454
368,1.7254531556443888020084840568912
369,1.7260306113985980250646699530367
370,1.7266079623148559006254925961963
371,1.7271853132645762896235969874503
372,1.7277627787225368724665057063141
373,1.7283404840372234983317525515209
374,1.7289185669107599029892978140469
375,1.7294971791305657873275991856641
376,1.7300764886050067865498384877324
377,1.7306566817682153803389973173297
378,1.7312379664359646714595325695385
379,1.7318205752161869407941418148570
380,1.7324047696062058765042663926109
381,1.7329908449464627852043306821516
382,1.7335791364509141419140890267375
383,1.7341700266023679475391795297190
384,1.7347639542940176866060464496778
385,1.7353614262270271965738354723019
386,1.7359630312541452414913193488500
387,1.7365694586152652363706435053946
388,1.7371815213801886929889516128525
389,1.7378001869559122716289526183458
390,1.7384266173262621385001873959833
391,1.7390622229287219365546589580059
392,1.7397087360047752264658516798293
393,1.7403683123535333424601059330803
394,1.7410436755165818052571254584268
395,1.7417383261004825996194232231310
396,1.7424568542734776152074050978868
397,1.7432054217347647573025044503629
398,1.7439925342243601527235615807947
399,1.7448303382561108752104316979584
400,1.7457369244655854431157360474980
401,1.7467407199125212245593311307088
402,1.7478896707101014581995986959004
403,1.7492729847390391633798654814454
404,1.7510827477588574382346707420616
405,1.7538468056676844890368481857563
406,1.7599895346603597233363256422080
