Eigenstate,Potential Energy
1,0.500000000075737818472853652349417820
2,0.64623093814549243569112467106557169
3,0.73633761115717409926679032378761567
4,0.79966528083901258324804400157039610
5,0.8480465805252355765561311201967818
6,0.8870660049780370440499050143941662
7,0.9197208356391301945474313026544203
8,0.9477838588873477327014754765102233
9,0.9723835737300873534480530607494234
10,0.9942802343166502350552194026886614
11,1.0140094107885940738082057272020788
12,1.0319621984509482484779934608811653
13,1.0484327273698510961648564038374223
14,1.0636476952287376147251340944578539
15,1.0777854831425401397172076183535850
16,1.090988960528143398246783279791271
17,1.103374318565895443264828175456879
18,1.115037321205811631395785805103521
19,1.126057828271555420172857022055201
20,1.136503133094377101260301131175007
21,1.146430468594812660907878010725112
22,1.155888918441425169822453505845460
23,1.164920894987330392270777518609448
24,1.173563296670619680368710345623724
25,1.181848424810286940552597157669190
26,1.189804717413816840090883219923862
27,1.197457342139761009069206499116898
28,1.204828679656778176492818026147163
29,1.211938720845586352330286320980988
30,1.218805395640787594283975599135731
31,1.225444847163587395326355131507489
32,1.231871661718531141392545119118917
33,1.238099062917732283090534314491302
34,1.244139076445520598110602382106437
35,1.250002670637243854563539771644718
36,1.255699877012477306371728347679531
37,1.261239894098810902906466412493491
38,1.266631177251965351611864622257460
39,1.271881516680139522600460921137561
40,1.276998105484670900478238855827608
41,1.281987599212340514794414635958549
42,1.286856168159661178895922591071545
43,1.291609543463001521963747250157098
44,1.296253057840304283435885050282170
45,1.300791681712587769970775198181849
46,1.305230055320283092468654157846135
47,1.309572517355983188302278368280634
48,1.313823130557593269632839612254771
49,1.317985704641209794767795726582627
50,1.32206381689893234584572034506171
51,1.32606083074134583364587585003401
52,1.32997991242606523600814219091544
53,1.33382404618128495779260209572764
54,1.33759604790571376884342212981095
55,1.34129857760280078390239508284692
56,1.34493415068708337828638602195902
57,1.34850514828328896801860343783130
58,1.35201382662402539680868910667619
59,1.35546232563914072499723935967711
60,1.35885267681880870787545649427984
61,1.36218681042283202328308704510813
62,1.36546656210035430327223221036594
63,1.36869367897693013560189632387353
64,1.37186982525958972090439027778252
65,1.37499658740500003139065899657840
66,1.37807547889097697790589409149693
67,1.38110794462734080082009468483951
68,1.38409536503835073942869873301501
69,1.38703905984564236381086879846203
70,1.38994029157766268482787625287300
71,1.39280026882899945421294234853830
72,1.39562014929070282432272323752783
73,1.39840104257064453071733876066660
74,1.40114401282114091218210788014689
75,1.40385008118943498170120763787209
76,1.40652022810518320513739761857858
77,1.40915539541779024595403099282931
78,1.41175648839526913613486078879753
79,1.41432437759525751346473067894475
80,1.41685990061788243968945034763367
81,1.41936386374931697259674338030760
82,1.42183704350411021450613606161292
83,1.42428018807368382586596095924602
84,1.42669401868776370093953526711347
85,1.42907923089495622638872424379572
86,1.43143649576816267817352772614722
87,1.43376646104006784138684130882202
88,1.43606975217351555990737126995945
89,1.43834697337120042059234840122855
90,1.44059870852876156000235392259151
91,1.44282552213504312960005319125786
92,1.44502796012299765782511981543805
93,1.44720655067444629239245009263180
94,1.44936180498166697742243221387065
95,1.45149421796856046598312458532349
96,1.45360426897394224650779154771972
97,1.45569242239932411944188683687518
98,1.45775912832337628617845989397184
99,1.45980482308510734015257054529107
100,1.46182992983765320954859619474795
101,1.46383485907443679692053863599013
102,1.46582000912933448630397569519959
103,1.46778576665237777478556665206191
104,1.46973250706241102078632220333421
105,1.47166059497803322755698800749973
106,1.47357038462806101614118750519247
107,1.47546222024267186010617449871793
108,1.47733643642630741478699286535296
109,1.47919335851334818025572450420512
110,1.48103330290750831710249354031057
111,1.48285657740583357291659930240651
112,1.48466348150813584372274110638811
113,1.48645430671264235883345133317799
114,1.48822933679858871982245232710978
115,1.48998884809644457582140664265294
116,1.49173310974641238569440403863686
117,1.49346238394580800463774836833900
118,1.49517692618589080164741852209089
119,1.49687698547867730058023630630668
120,1.49856280457424649530013872382376
121,1.50023462016900672215664109385601
122,1.50189266310537505991013531077651
123,1.50353715856328803428675515949013
124,1.50516832624394472453690966881176
125,1.50678638054615380310906883546205
126,1.50839153073564084225239068424233
127,1.50998398110765164347606263921305
128,1.51156393114316475860331997795757
129,1.51313157565901429792002925985110
130,1.51468710495220573905083723889738
131,1.51623070493869204607791596834854
132,1.51776255728686243121704161553008
133,1.51928283954598430978091670049134
134,1.52079172526982772320260166944934
135,1.52228938413568339654823624280105
136,1.52377598205898190941855864190725
137,1.52525168130370815119569139867792
138,1.52671664058879161960062238545164
139,1.52817101519065101562189224933486
140,1.52961495704205614190774591111270
141,1.53104861482746555422409802707940
142,1.53247213407499034231419202546995
143,1.53388565724512576632640390050897
144,1.53528932381638529534011335688412
145,1.53668327036796740676037516639720
146,1.53806763065957763660189417088090
147,1.53944253570852016771666316451381
148,1.54080811386417428498648917715579
149,1.54216449087995749842808981941805
150,1.54351178998287897508052759341110
151,1.54485013194077919392258229265325
152,1.54617963512734612298181789007960
153,1.54750041558499686832177498684660
154,1.54881258708570869414130115662429
155,1.55011626118987764997076611207837
156,1.55141154730328267132064719923765
157,1.55269855273222620037671726852773
158,1.55397738273692314483557569214475
159,1.5552481405832018477054077658602
160,1.5565109275925834056018443949503
161,1.5577658431907978316502888367238
162,1.5590129849547965240867389674645
163,1.5602524486583158938470111979050
164,1.5614843283160467877311108398696
165,1.5627087162264583073517172926604
166,1.5639257030133265394468742046207
167,1.5651353776660154298689753488516
168,1.5663378275785524901558212354315
169,1.5675331385875443987666794789329
170,1.5687213950089722400928134428868
171,1.5699026796739065756956477167168
172,1.5710770739631802144250216716209
173,1.5722446578410540837415280379995
174,1.5734055098879120457516753520235
175,1.5745597073320186428833636527799
176,1.5757073260803694795493522013000
177,1.5768484407486675003314986855636
178,1.5779831246904543190776476999158
179,1.5791114500254230438527215841324
180,1.5802334876669435441395945003867
181,1.5813493073488228088721401752760
182,1.5824589776513280906830286945222
183,1.5835625660264958856374274400375
184,1.5846601388227509899863813209321
185,1.5857517613088574420615615944374
186,1.5868374976972223179278219773181
187,1.5879174111665761812911619816952
188,1.5889915638840456239742543552915
189,1.5900600170266416280469177780974
190,1.5911228308021794006854900188278
191,1.5921800644696489043099968863717
192,1.5932317763590524641978591172985
193,1.5942780238907277574186598107744
194,1.5953188635941695238681077951899
195,1.5963543511263679317567174020204
196,1.5973845412896772894479767223834
197,1.5984094880492294789635929899074
198,1.5994292445499062731302755984023
199,1.6004438631328833702190279675074
200,1.6014533953517600862716925549401
201,1.6024578919882856815300765256411
202,1.6034574030676956971148141390888
203,1.6044519778736689566721881021801
204,1.6054416649629168478879569407583
205,1.6064265121794148492174599230028
206,1.6074065666682893205674974550161
207,1.6083818748893654285941530168395
208,1.6093524826303904280601299500526
209,1.6103184350199380421196463956199
210,1.6112797765400054371702254796829
211,1.6122365510383101512685535339049
212,1.6131888017402972032744772574544
213,1.6141365712608607606539041063495
214,1.6150799016157953416657235105084
215,1.6160188342329757582025062000340
216,1.6169534099632797537788015954485
217,1.6178836690912572957476424329735
218,1.6188096513455554942333560271787
219,1.6197313959091024207565791849701
220,1.6206489414290623347180150791843
221,1.6215623260265602200716175582769
222,1.6224715873061928295939006382150
223,1.6233767623653197976211839724767
224,1.6242778878031498805961822643472
225,1.6251749997296248820086989933505
226,1.6260681337741047997150805932995
227,1.6269573250938628385264262744353
228,1.6278426083823920983112658643769
229,1.6287240178775310898002091516853
230,1.6296015873694127643761033230284
231,1.6304753502082388471595655316385
232,1.6313453393118898823506158693938
233,1.6322115871733659763710459428166
234,1.6330741258680743849159813631326
235,1.6339329870609571150556732303206
236,1.6347882020134682411994014465371
237,1.6356398015904045550920872037121
238,1.6364878162665912808983533393028
239,1.6373322761334282909990494898103
240,1.6381732109052989759627735964743
241,1.6390106499258460500861099188870
242,1.6398446221741171484982738755101
243,1.6406751562705842466522800276787
244,1.6415022804830385904840089267989
245,1.6423260227323655103989545844757
246,1.6431464105982016377044373160738
247,1.6439634713244759053203065294480
248,1.6447772318248419133752727146854
249,1.6455877186879966282548933320961
250,1.6463949581828957992748047131001
251,1.6471989762638639924610064418956
252,1.6479997985756020394056176015484
253,1.6487974504580969728734707858614
254,1.6495919569514341054891770409362
255,1.6503833428005151310067852937403
256,1.6511716324596823330045602536909
257,1.6519568500972552918249395964703
258,1.6527390195999765338961806731211
259,1.6535181645773729263643410108726
260,1.6542943083660332028208529868749
261,1.6550674740338019332641604339621
262,1.6558376843838946631099647449007
263,1.6566049619589330712213535309951
264,1.6573693290449055972028204756392
265,1.6581308076750520625771324286864
266,1.6588894196336744529714029750414
267,1.6596451864598770739389960693275
268,1.6603981294512361135132487378915
269,1.6611482696674028807898095147473
270,1.6618956279336364440615351924225
271,1.6626402248442749518438232585810
272,1.6633820807661396157370765862874
273,1.6641212158418787976251420181029
274,1.6648576499932494096135304207625
275,1.6655914029243395016736178195408
276,1.6663224941247303147362962329425
277,1.6670509428726052826384742725360
278,1.6677767682377977369639510768086
279,1.6684999890847888173419697370634
280,1.6692206240756476801697602237116
281,1.6699386916729218946849932914361
282,1.6706542101424755227610953828407
283,1.6713671975562780949783833577864
284,1.6720776717951416396152687164130
285,1.6727856505514125719313084377657
286,1.6734911513316144685999692090941
287,1.6741941914590467866980891464305
288,1.6748947880763359291458678332121
289,1.6755929581479433047806945876020
290,1.6762887184626311157155438494004
291,1.6769820856358837130462815657787
292,1.6776730761122874059418521950203
293,1.6783617061678726300210929307499
294,1.6790479919124135120644852411999
295,1.6797319492916869183379598875723
296,1.6804135940896985722290223668634
297,1.6810929419308661730581285720944
298,1.6817700082821688329598181627355
299,1.6824448084552596348355735627262
300,1.6831173576085430621290005002592
301,1.6837876707492177120100933982973
302,1.6844557627352863850538350630717
303,1.6851216482775307246958704793517
304,1.6857853419414539841526403641521
305,1.6864468581491933494944370254446
306,1.6871062111814010822535291639707
307,1.6877634151790916637098104450835
308,1.6884184841454624194723514021872
309,1.6890714319476837138174469564567
310,1.6897222723186590491255770594242
311,1.6903710188587586655229997027937
312,1.6910176850375241540650104104253
313,1.6916622841953454764172855970695
314,1.6923048295451121955220652292026
315,1.6929453341738382371084665809567
316,1.6935838110442615579091718843035
317,1.6942202729964162594116527401749
318,1.6948547327491824986186342853892
319,1.6954872029018113376114193960060
320,1.6961176959354245334110467932908
321,1.6967462242144931873129554159672
322,1.6973727999882913683717026074059
323,1.6979974353923282253241849521186
324,1.6986201424497575643472711238308
325,1.6992409330727666548881776250910
326,1.6998598190639425010604877071660
327,1.7004768121176183996278128205428
328,1.7010919238211979740468681216642
329,1.7017051656564616597049263254714
330,1.7023165490008520723042672767097
331,1.7029260851287396982581019460250
332,1.7035337852126699686177978221215
333,1.7041396603245920953699986319776
334,1.7047437214370678544146943972165
335,1.7053459794244646304516853737248
336,1.7059464450641287821276530064018
337,1.7065451290375421999954024022297
338,1.7071420419314631164495142343990
339,1.7077371942390472324640402618684
340,1.7083305963609552527979412191168
341,1.7089222586064425435780517191078
342,1.7095121911944334097455203080033
343,1.7101004042545796305024151015117
344,1.7106869078283032468152054085912
345,1.7112717118698254206711016904098
346,1.7118548262471788412472989292435
347,1.7124362607432072437266388078458
348,1.7130160250565488528649259409574
349,1.7135941288026072966243711658303
350,1.7141705815145075326126432052339
351,1.7147453926440388753342325648311
352,1.7153185715625848070383174714757
353,1.7158901275620388569596856478757
354,1.7164600698557079638644025298415
355,1.7170284075792036876239370615316
356,1.7175951497913194800569959795888
357,1.7181603054748972545443368049654
358,1.7187238835376824988925119083105
359,1.7192858928131636770712125018969
360,1.7198463420614048582402608470375
361,1.7204052399698633184411838256864
362,1.7209625951541985970706211726473
363,1.7215184161590676042764778621729
364,1.7220727114589108038107809087375
365,1.7226254894587277082568327578879
366,1.7231767584948405648625410423007
367,1.7237265268356491245639199256424
368,1.7242748026823732835167302109335
369,1.7248215941697882302785200413022
370,1.7253669093669478124291609605022
371,1.7259107562778989765643933423327
372,1.7264531428423862387790308436728
373,1.7269940769365461530076403572461
374,1.7275335663735960863678163226523
375,1.7280716189045079937556718232695
376,1.7286082422186786486021238420844
377,1.7291434439445881197133543645424
378,1.7296772316504496623249942977892
379,1.7302096128448528639168945995298
380,1.7307405949773968023046269006976
381,1.7312701854393160922161537855307
382,1.7317983915640969393119921326687
383,1.7323252206280878771120310558355
384,1.7328506798511001513569984658365
385,1.7333747763970013738921733119304
386,1.7338975173743031055881952708561
387,1.7344189098367381185065327701399
388,1.7349389607838312750056714697253
389,1.7354576771614646993809698873815
390,1.7359750658624344320802758485597
391,1.7364911337269988843841895655886
392,1.7370058875434227029008348317085
393,1.7375193340485135183572874587185
394,1.7380314799281501607936962634714
395,1.7385423318178051990738690161653
396,1.7390518963030614566366515987644
397,1.7395601799201221344809102584755
398,1.7400671891563145506250216178973
399,1.7405729304505860629625877363980
400,1.7410774101939964766316560312956
401,1.7415806347302029859972118731062
402,1.7420826103559383976751519952871
403,1.7425833433214854565759818347719
404,1.7430828398311451693170832886875
405,1.7435811060436965917527746100574
406,1.7440781480728541909712611095362
407,1.7445739719877198998384758084468
408,1.7450685838132273686640103626384
409,1.7455619895305812764867546998702
410,1.7460541950776942179069194172598
411,1.7465452063496154269650424952013
412,1.7470350291989549221777190663475
413,1.7475236694363041533392539646768
414,1.7480111328306495755306921897641
415,1.7484974251097834359196712680600
416,1.7489825519607082046535971886595
417,1.7494665190300375000355752539003
418,1.7499493319243906729666349727434
419,1.7504309962107853309508828799498
420,1.7509115174170227854163061877782
421,1.7513909010320703764053797227991
422,1.7518691525064399581587755937152
423,1.7523462772525603836928551641077
424,1.7528222806451476041100337575689
425,1.7532971680215687640560653025846
426,1.7537709446822039022778785885135
427,1.7542436158908027440701555372854
428,1.7547151868748366015094419443550
429,1.7551856628258492961310636388040
430,1.7556550488997999684748101571730
431,1.7561233502174052805318617367099
432,1.7565905718644781630436910457136
433,1.7570567188922584480467744234008
434,1.7575217963177464871576553826748
435,1.7579858091240275818948016401094
436,1.7584487622605951297123693223053
437,1.7589106606436706498706759001951
438,1.7593715091565196740304448999802
439,1.7598313126497641857663315400199
440,1.7602900759416926831789804478226
441,1.7607478038185650275034158819141
442,1.7612045010349156444731584375146
443,1.7616601723138547293358078777574
444,1.7621148223473620781679711842278
445,1.7625684557965828795137882126000
446,1.7630210772921164941420636467456
447,1.7634726914343053956306218265889
448,1.7639233027935174936090818581811
449,1.7643729159104296838884813911706
450,1.7648215352963047817373632873434
451,1.7652691654332693453212158489473
452,1.7657158107745852346785561270494
453,1.7661614757449206534288456303039
454,1.7666061647406170664063179757672
455,1.7670498821299556214375314814981
456,1.7674926322534183767308249869338
457,1.7679344194239490341671994624858
458,1.7683752479272095791015877178995
459,1.7688151220218353454279814566621
460,1.7692540459396881532234135217502
461,1.7696920238861053737890886898240
462,1.7701290600401481403800128537339
463,1.7705651585548473137737116610101
464,1.7710003235574453691135527958162
465,1.7714345591496381784366242842717
466,1.7718678694078138254269848498140
467,1.7723002583832877388996991366023
468,1.7727317301025391668250779958512
469,1.7731622885674414739242433900954
470,1.7735919377554937938876026568646
471,1.7740206816200483100195145352648
472,1.7744485240905374688025327490725
473,1.7748754690726964843633948544403
474,1.7753015204487886451073020354692
475,1.7757266820778223527696680861537
476,1.7761509577957724153781001515537
477,1.7765743514157959350484645716741
478,1.7769968667284474747469594181553
479,1.7774185075018924017838647327865
480,1.7778392774821188112425329690760
481,1.7782591803931465890974555263970
482,1.7786782199372371929390165703847
483,1.7790963997950995397004164546922
484,1.7795137236260948298253288263407
485,1.7799301950684417947063613974207
486,1.7803458177394169624515970900479
487,1.7807605952355568013210046232779
488,1.7811745311328563481946745094599
489,1.7815876289869675613774855586455
490,1.7819998923333952723234521628200
491,1.7824113246876928823689620392576
492,1.7828219295456564048242252201798
493,1.7832317103835168399712630261723
494,1.7836406706581319899246449297982
495,1.7840488138071759191694143549109
496,1.7844561432493293189278135693515
497,1.7848626623844664750294028721905
498,1.7852683745938427991316355311611
499,1.7856732832402804356670215247293
500,1.786077391668354090508035940546
501,1.786480703204572843379521300673
502,1.786883221157565415685080220937
503,1.787284948818260378892863921801
504,1.787685889460069164874264647976
505,1.788086046339064743781166938228
506,1.788485422694161718252732551939
507,1.788884021747295701282846328453
508,1.789281846703601637646759702356
509,1.789678900751589320356584864905
510,1.790075187063322176632369307774
511,1.790470708794592576435581894963
512,1.790865469085097586429678743300
513,1.791259471058613808549256184919
514,1.791652717823172003864755211960
515,1.792045212471231901063405230477
516,1.792436958079855425829105357072
517,1.792827957710879452656107550433
518,1.793218214411089892204239297902
519,1.793607731212393924798283067993
520,1.793996511131993266721431479442
521,1.794384557172555295189324599017
522,1.794771872322386339926976148901
523,1.795158459555603611326951229403
