Eigenstate,Potential Energy
1,0.500000000020614029709976717294714615
2,0.64623093778567219528976189576386492
3,0.73633761010022718888311916995004938
4,0.79966527863750147471860690585115188
5,0.8480465767117427063315455916586172
6,0.8870659990769485637469509789398218
7,0.9197208271709758700413323948131306
8,0.9477838473706091401738965662528921
9,0.9723835586820371107208862817553080
10,0.9942802152537764910281966273353613
11,1.0140093872268297543955937832689253
12,1.0319621699058008074834618885096581
13,1.0484326933564780987281767378917937
14,1.0636476552619911453633629062749349
15,1.0777854367369924008358533431931294
16,1.090988907198100491391869976262963
17,1.103374257825403461316049154518534
18,1.115037252568657592160920951377516
19,1.126057751251264644289897754055091
20,1.136503047204208079600274240689462
21,1.146430373347750110741987612471156
22,1.155888813350171758418144379223951
23,1.164920779564297462365173681229468
24,1.173563170427917215551678371508140
25,1.181848287259712942811920075568844
26,1.189804568066846246059131387336604
27,1.197457180507534239205109201781076
28,1.204828505250089388243060721692238
29,1.211938533174871451438739106613981
30,1.218805194216112045966751730308385
31,1.225444631494633867738262010632376
32,1.231871431314587006795314769488145
33,1.238098817287676996781871490826185
34,1.244138815097812971051156579092797
35,1.250002393079909232434897144733890
36,1.255699582753094665286840297251483
37,1.261239582644499870009007766625090
38,1.266630848109373157220721821578666
39,1.271881169355427889288317764315492
40,1.276997739483502873450171820054537
41,1.281987214039867237101364761830808
42,1.286855763320508614338553516633524
43,1.291609118461257127983712194842487
44,1.296252612179503635829955106971913
45,1.300791214895701140879657280781398
46,1.305229566849701982771865801384320
47,1.309572006733506815281629354170674
48,1.313822597284415010540205835308215
49,1.317985148217903586740793237398067
50,1.32206323682543904245145783335731
51,1.32606022651695951819311532821579
52,1.32997928354941949164832266104379
53,1.33382339215033909432682103240467
54,1.33759536821773900606285139057154
55,1.34129787175436639121188037903223
56,1.34493341817404277029299631944899
57,1.34850438860076575570746225715451
58,1.35201303926639939387575314984962
59,1.35546151010003390886263681706506
60,1.35885183259107113485965486318387
61,1.36218593699852769739155061137776
62,1.36546565897074699800126167664481
63,1.36869274563246916814883883599053
64,1.37186886118989567813873936226541
65,1.37499559209885044691807576149736
66,1.37807445183629195953521310607596
67,1.38110688531116860772300722011196
68,1.38409427294685330826309760491537
69,1.38703793446408078306139980970791
70,1.38993913239038261660145460247942
71,1.39279907531941650271150405406743
72,1.39561892094128785020175937442679
73,1.39839977886290891052509796676371
74,1.40114271323562174206194395254991
75,1.40384874520568022452728178391369
76,1.40651885520173678024271700037775
77,1.40915398507217706059853415353272
78,1.41175504008398005785064106404057
79,1.41432289079373428240517535301849
80,1.41685837480050252009918696194751
81,1.41936229838937834250927827446647
82,1.42183543807381609276664228589846
83,1.42427854204412733556733415880604
84,1.42669233152891246835051147039820
85,1.42907750207563691444373900407866
86,1.43143472475604545358517410293826
87,1.43376464730165077443259154030641
88,1.43606789517410895593352708587588
89,1.43834507257491108226934129158119
90,1.44059676339847697935674548180722
91,1.44282353213241560883964332644096
92,1.44502592470842835796501344117530
93,1.44720446930706920868096191676768
94,1.44935967711933284055694125529556
95,1.45149204306782056809715404376376
96,1.45360204649003219090171681699679
97,1.45569015178614749302057384507301
98,1.45775680903348825355042501232108
99,1.45980245456969815833582963222373
100,1.46182751154653166221955860271869
101,1.46383239045601354713281167619948
102,1.46581748963060534659481213519352
103,1.46778319571890689357842618906347
104,1.46972988413831398398806018092689
105,1.47165791950596007423914312239847
106,1.47356765604917916718483554378367
107,1.47545943799664895868016836058828
108,1.47733359995129407751943061117568
109,1.47919046724596065794848003002575
110,1.48103035628281106382856113509969
111,1.48285357485732172232971716055947
112,1.48466042246771759139841080600063
113,1.48645119061062124944986172233320
114,1.48822616306364583797931123453789
115,1.48998561615562063928381422793535
116,1.49172981902508973983797258798032
117,1.49345903386769251686022041434271
118,1.49517351617299365450074526295169
119,1.49687351495129668236579401589809
120,1.49855927295094918685815145194398
121,1.50023102686660957856935846744448
122,1.50188900753892638582642033229975
123,1.50353344014604885156378787689850
124,1.50516454438736993088272009638832
125,1.50678253465987322039703836875327
126,1.50838762022744015316670904120739
127,1.50998000538345321513430364033713
128,1.51155988960700835178950897875904
129,1.51312746771303766054871918953850
130,1.51468292999662508246951707859025
131,1.51622646237178240280175264679497
132,1.51775824650493789267611917115747
133,1.51927845994337814264720692911386
134,1.52078727623887236284912134037929
135,1.52228486506669031617929274980369
136,1.52377139234022136339571878171095
137,1.52524702032138879106931872950725
138,1.52671190772703998134245715100141
139,1.52816620983149087653909039849460
140,1.52961007856538774570372945981080
141,1.53104366261104470265643824801407
142,1.53246710749440735188400535208484
143,1.53388055567378428841819576267216
144,1.53528414662548099821487806693162
145,1.53667801692646651778889037097815
146,1.53806230033419534310843573162462
147,1.53943712786369887478691484609173
148,1.54080262786206172857666187191792
149,1.54215892608038471209483340155379
150,1.54350614574333810863453678404759
151,1.54484440761640118229036970319576
152,1.54617383007087820354309034012331
153,1.54749452914677994497131397347988
154,1.54880661861365454630619342943446
155,1.55011021002944598479527931711548
156,1.55140541279745801721167803377441
157,1.55269233422149464008456015116707
158,1.55397107955924888622466822461579
159,1.5552417520740036303503501036386
160,1.5565044530847107413241087158990
161,1.5577592820145070770907294408858
162,1.5590063364377267833885436223264
163,1.5602457121254647495033483231027
164,1.5614775030897458576300813495640
165,1.5627018016263486260300694071093
166,1.5639186983563337615427328682193
167,1.5651282822663248537413245034284
168,1.5663306407475838996163636254218
169,1.5675258596339267208474658943570
170,1.5687140232385180167494137527305
171,1.5698952143895862473233301058902
172,1.5710695144650962130409903160853
173,1.5722370034264147336630979353732
174,1.5733977598510052695755751505750
175,1.5745518609641854705469287315629
176,1.5756993826699773582295326760833
177,1.5768403995810834029122910541539
178,1.5779749850480176488908894676566
179,1.5791032111874183333713696202013
180,1.5802251489095729452759005048545
181,1.5813408679451783725067888273600
182,1.5824504368713638330239692289768
183,1.5835539231369996389797316447776
184,1.5846513930873160354165066429450
185,1.5857429119878539216206931818726
186,1.5868285440477684237214942230617
187,1.5879083524425091190016525328545
188,1.5889823993358923482038807159193
189,1.5900507459015893468899389123576
190,1.5911134523440458468961576940070
191,1.5921705779188523704029776130519
192,1.5932221809525815987865907745548
193,1.5942683188621111200650329657989
194,1.5953090481734448956852622774195
195,1.5963444245400513789731959683220
196,1.5973745027607319771093245565234
197,1.5983993367970342319131409089609
198,1.5994189797902238813774127746976
199,1.6004334840778286357677720663072
200,1.6014429012097676084485599004927
201,1.6024472819640773778135556832666
202,1.6034466763622480564329806382067
203,1.6044411336841800220986310804689
204,1.6054307024827729256286322015171
205,1.6064154305981569407437271699953
206,1.6073953651715792747119816803662
207,1.6083705526589518103872782922946
208,1.6093410388440741010461556005530
209,1.6103068688515374608505387115878
210,1.6112680871593216465352606334326
211,1.6122247376110914892767102140734
212,1.6131768634282037038646580216651
213,1.6141245072214282530650420725383
214,1.6150677110023992428571964292477
215,1.6160065161947945547701238939647
216,1.6169409636452581697681794660051
217,1.6178710936340691427214870578720
218,1.6187969458855661999039304822359
219,1.6197185595783312324474140879020
220,1.6206359733551441938729476977087
221,1.6215492253327073039808958360690
222,1.6224583531111557564584799847838
223,1.6233633937833484910279817289188
224,1.6242643839439540894261726326606
225,1.6251613596983343517497285875347
226,1.6260543566712290910994323584641
227,1.6269434100152507893617264368684
228,1.6278285544191909243188393145464
229,1.6287098241161451202227344048594
230,1.6295872528914618080611144277731
231,1.6304608740905161847697477086291
232,1.6313307206263198802957076299913
233,1.6321968249869613179993936766835
234,1.6330592192428929144448112714547
235,1.6339179350540582896613014009185
236,1.6347730036768691866281413804593
237,1.6356244559710357200918139534904
238,1.6364723224062516857095413853658
239,1.6373166330687403650810462494384
240,1.6381574176676629800672118649301
241,1.6389947055413940777251926446823
242,1.6398285256636667017909082479788
243,1.6406589066495913814621486505709
244,1.6414858767615506256983440192012
245,1.6423094639149732961272950652698
246,1.6431296956839913771056727510840
247,1.6439465993069805246978365413558
248,1.6447602016919919751059687005633
249,1.6455705294220707810456795812143
250,1.6463776087604707601663215220921
251,1.6471814656557640549214167023380
252,1.6479821257468481017825833484622
253,1.6487796143678550813934928187029
254,1.6495739565529635059142131719842
255,1.6503651770411158229788072230274
256,1.6511533002806421210261705878751
257,1.6519383504337963267417932988826
258,1.6527203513812013386624565538708
259,1.6534993267262098997875841969698
260,1.6542752997991815948948289110617
261,1.6550482936616762856102419829135
262,1.6558183311105687079583168285576
263,1.6565854346820830822716121780086
264,1.6573496266557531856112091905478
265,1.6581109290583064112232865164661
266,1.6588693636674739820620561321749
267,1.6596249520157305309088223114523
268,1.6603777153939630800839778503304
269,1.6611276748550736899487107175754
270,1.6618748512175114996182441050148
271,1.6626192650687434431204890749284
272,1.6633609367686576198417727655397
273,1.6640998864529067616510921080030
274,1.6648361340361890049977559763558
275,1.6655696992154698428386963308977
276,1.6663006014731435340248048010760
277,1.6670288600801414534370307014311
278,1.6677544940989791367964412742116
279,1.6684775223867535225935906865350
280,1.6691979635980824839833756930940
281,1.6699158361879945394490969156671
282,1.6706311584147662384844203907314
283,1.6713439483427104347200766122436
284,1.6720542238449126030109241800471
285,1.6727620026059220077243217018453
286,1.6734673021243937469555315387719
287,1.6741701397156867319417626116664
288,1.6748705325144140034308682042434
289,1.6755684974769500330497099423566
290,1.6762640513838957421794318533825
291,1.6769572108424990792583931802517
292,1.6776479922890340403995387232044
293,1.6783364119911420390771701024502
294,1.6790224860501306617777628470962
295,1.6797062304032318967401930990716
296,1.6803876608258274213253073981861
297,1.6810667929336308797199036160579
298,1.6817436421848364677067003704295
299,1.6824182238822306273356414418185
300,1.6830905531752686020797192341608
301,1.6837606450621162638907347714864
302,1.6844285143916593050652031348643
303,1.6850941758654769680265777240037
304,1.6857576440397838905306281555920
305,1.6864189333273414947977584308103
306,1.6870780579993381837694433161520
307,1.6877350321872355264394131079138
308,1.6883898698845879106853981524950
309,1.6890425849488317528641972090428
310,1.6896931911030445993136809806187
311,1.6903417019376777146619299076563
312,1.6909881309122596700730566896893
313,1.6916324913570723241759649975168
314,1.6922747964748010009467865983873
315,1.6929150593421581841853234588916
316,1.6935532929114821042248867062598
317,1.6941895100123077554776790607057
318,1.6948237233529156960578800649969
319,1.6954559455218557710420371716845
320,1.6960861889894457606219377116759
321,1.6967144661092488720818481466553
322,1.6973407891195261900282181849476
323,1.6979651701446675989083245558281
324,1.6985876211966001549548151086189
325,1.6992081541761756695342285725937
326,1.6998267808745357411235989098368
327,1.7004435129744570566674910785907
328,1.7010583620516741515077144313964
329,1.7016713395761846027410812101971
330,1.7022824569135330876688045235318
331,1.7028917253260757459107666179596
332,1.7034991559742259064055142988040
333,1.7041047599176815578312869312195
334,1.7047085481166327464500585478264
335,1.7053105314329532162868744042341
336,1.7059107206313723496749028677167
337,1.7065091263806302803915161189810
338,1.7071057592546172382162028820314
339,1.7077006297334931893965346570098
340,1.7082937482047938643415264369615
341,1.7088851249645188860986277324361
342,1.7094747702182044967431361074454
343,1.7100626940819805194480754430764
344,1.7106489065836115499201031692140
345,1.7112334176635241965151817001457
346,1.7118162371758178438073202668265
347,1.7123973748892625049478881753125
348,1.7129768404882805745187269273766
349,1.7135546435739160267822359942378
350,1.7141307936647886016479647095672
351,1.7147053001980350659385924099529
352,1.7152781725302372322997275042144
353,1.7158494199383360201106631647524
354,1.7164190516205329728523608812498
355,1.7169870766971795971958398438910
356,1.7175535042116527335794326589617
357,1.7181183431312191972999245696857
358,1.7186816023478889341045871541485
359,1.7192432906792524354095768996892
360,1.7198034168693113510510126679275
361,1.7203619895892940444244055253586
362,1.7209190174384625715999675398674
363,1.7214745089449056800147535697356
364,1.7220284725663228507230346866356
365,1.7225809166907976205607014272969
366,1.7231318496375590618815377018590
367,1.7236812796577343118646750546264
368,1.7242292149350889401112521086144
369,1.7247756635867597870650874266341
370,1.7253206336639759864224322579302
371,1.7258641331527710248295490533468
372,1.7264061699746847953379730033888
373,1.7269467519874556113226942500565
374,1.7274858869857064893338100642669
375,1.7280235827016163924414975478247
376,1.7285598468055878902809843167792
377,1.7290946869069030249985114008569
378,1.7296281105543705505006696096221
379,1.7301601252369663847993914609476
380,1.7306907383844640322082513112299
381,1.7312199573680578508164926004714
382,1.7317477895009762834014056633941
383,1.7322742420390897264312927484222
384,1.7327993221815080008502156298213
385,1.7333230370711710458893097014029
386,1.7338453937954334945476316618345
387,1.7343663993866388800677441954209
388,1.7348860608226874101933115212988
389,1.7354043850275979838823828147117
390,1.7359213788720616395696325265510
391,1.7364370491739867519047474572287
392,1.7369514026990395853303602388250
393,1.7374644461611776779711726110395
394,1.7379761862231746369167361696905
395,1.7384866294971392017552495732007
396,1.7389957825450282272105307243449
397,1.7395036518791532147744822740446
398,1.7400102439626804014532585334282
399,1.7405155652101229714025763207983
400,1.7410196219878296903931814907279
401,1.7415224206144660120098814691105
402,1.7420239673614884007836540019050
403,1.7425242684536146929804736810306
404,1.7430233300692883881193300764428
405,1.7435211583411343366477627595868
406,1.7440177593564119327926373257020
407,1.7445131391574629292890492329143
408,1.7450073037421513771641181442600
409,1.7455002590642985516355945819685
410,1.7459920110341153785862844567811
411,1.7464825655186266216148291175153
412,1.7469719283420904122349326012066
413,1.7474601052864142022648899192866
414,1.7479471020915635622357605082480
415,1.7484329244559681097630513987165
416,1.7489175780369209974974670339125
417,1.7494010684509748091238343739013
418,1.7498834012743310266273922237395
419,1.7503645820432273473210897072873
420,1.7508446162543178325386110852925
421,1.7513235093650498401588975791448
422,1.7518012667940370225472326577834
423,1.7522778939214262260351329503625
424,1.7527533960892619056455453216266
425,1.7532277786018444344054619708909
426,1.7537010467260859140673656059815
427,1.7541732056918609718507871584837
428,1.7546442606923525568726888046410
429,1.7551142168843966486347673018639
430,1.7555830793888187396539046121962
431,1.7560508532907695958699107256343
432,1.7565175436400574443243653695489
433,1.7569831554514719259867917305921
434,1.7574476937051109116440346291422
435,1.7579111633466980045057694595700
436,1.7583735692878986304941001168902
437,1.7588349164066328775648196470170
438,1.7592952095473840661013787721323
439,1.7597544535215037316629006707089
440,1.7602126531075140912759034361720
441,1.7606698130514051530985579062721
442,1.7611259380669300330790417105799
443,1.7615810328358981262786119649500
444,1.7620351020084607522046463937048
445,1.7624881502033986047869195977412
446,1.7629401820084020313194739256693
447,1.7633912019803513095101563783256
448,1.7638412146455901408120912300116
449,1.7642902245002002005136913601570
450,1.7647382360102688970006215902009
451,1.7651852536121578432549256023047
452,1.7656312817127648819110048902730
453,1.7660763246897854069101630670494
454,1.7665203868919693706733495059298
455,1.7669634726393776006335296624596
456,1.7674055862236327220964139401782
457,1.7678467319081693831050252209843
458,1.7682869139284801771731528267012
459,1.7687261364923597777804102577198
460,1.7691644037801469269396324000638
461,1.7696017199449621275284706299504
462,1.7700380891129442524020783855241
463,1.7704735153834846740250313430176
464,1.7709080028294570754934348458112
465,1.7713415554974469116491169530249
466,1.7717741774079776509474224976298
467,1.7722058725557330785601799851130
468,1.7726366449097806763188924818822
469,1.7730664984137885561588902094538
470,1.7734954369862434715693699462132
471,1.7739234645206641741185608750957
472,1.7743505848858144126296354586474
473,1.7747768019259109258712344282804
474,1.7752021194608339327186893678626
475,1.7756265412863290425019500635488
476,1.7760500711742130993068665107612
477,1.7764727128725742931859849726006
478,1.7768944701059712142273670491963
479,1.7773153465756297388243143024413
480,1.7777353459596381426850846845055
481,1.7781544719131389914154970642499
482,1.7785727280685213774175190503370
483,1.7789901180356088830575086777017
484,1.7794066454018460898131556522068
485,1.7798223137324851102305398987469
486,1.7802371265707667274366104262210
487,1.7806510874381029909429331532733
488,1.7810641998342558651777730634864
489,1.7814764672375151587973466728138
490,1.7818878931048735977700409762381
491,1.7822984808722011763826082963055
492,1.7827082339544173742194381145020
493,1.7831171557456612139853155923124
494,1.7835252496194602540713220114210
495,1.7839325189288967082162266939146
496,1.7843389670067739365398082065922
497,1.7847445971657789933206192613005
498,1.7851494126986451766216513816902
499,1.7855534168783120769319800237520
500,1.785956612958085255141054846267
501,1.786359004171791295698584340651
502,1.786760593733935689951377366621
503,1.787161384839855017590402468566
504,1.787561380665871269849224559458
505,1.787960584369441161717877741003
506,1.788358999089306163056086434437
507,1.788756627945641096423764063275
508,1.789153474040200941376040641673
509,1.789549540456464075896603251963
510,1.789944830259778007986301381499
511,1.790339346497500828261082169119
512,1.790733092199142283530173652397
513,1.791126070376503086866841948835
514,1.791518284023813140408288645247
515,1.791909736117869044957354634412
516,1.792300429618169106548880169822
517,1.792690367467046914545600484528
518,1.793079552589805276476492238652
519,1.793467987894847291387073787908
520,1.793855676273807418533051762145
521,1.794242620601679336472325658083
522,1.794628823736944868583754458425
523,1.795014288521700411998046769270
