Eigenstate,Potential Energy
1,0.500000000030424215577671801920492814
2,0.64623093784970797021505967779462383
3,0.73633761028832708348368513355065963
4,0.79966527902929199962421386449140609
5,0.8480465773904038991422988151354963
6,0.8870660001271161020898836905441945
7,0.9197208286779679398029676307146386
8,0.9477838494201038611879088435758480
9,0.9723835613599224049064978341377043
10,0.9942802186460737599151169250836363
11,1.0140093914196523026736137588816236
12,1.0319621749853299725382696900336573
13,1.0484326994089490193236143071835039
14,1.0636476623736840776104775599005701
15,1.0777854449942273806803566848806057
16,1.090988916687234099168462205952531
17,1.103374268632826953623382428831308
18,1.115037264780795950652788913983227
19,1.126057764954576256049971001373930
20,1.136503062485184863020680411786835
21,1.146430390292917962388839456126379
22,1.155888832046091235625523438462527
23,1.164920800097564641964037371320143
24,1.173563192885164686298433070214740
25,1.181848311727610900787495168122578
26,1.189804594632103670444301865008130
27,1.197457209256900131586931750239442
28,1.204828536270354062733390746303167
29,1.211938566552867865889318551294579
30,1.218805230038717166780437932158698
31,1.225444669848770062429444936889788
32,1.231871472287223459700696913465476
33,1.238098860965831144274808523898482
34,1.244138861568551953345994822882201
35,1.250002442430351359637603860814330
36,1.255699635070410895794882396201121
37,1.261239638015915299716338143615862
38,1.266630906622168518264620539515122
39,1.271881231096941057299999188376762
40,1.276997804541130382452779423297995
41,1.281987282501065801346495099737307
42,1.286855835272796656492976747514593
43,1.291609193992216313176957349874010
44,1.296252691376780411155177420560746
45,1.300791297847008280008067089700271
46,1.305229653642820135397613159755057
47,1.309572097456286061161455484865970
48,1.313822692024776417932110404020869
49,1.317985247063840775079696729193495
50,1.32206333986501974912848326887350
51,1.32606033383832716932951501760121
52,1.32997939524079477677594907455150
53,1.33382350830002154490493641726973
54,1.33759548891410857777653015885744
55,1.34129799708588505001057140891793
56,1.34493354822925608213940005212973
57,1.34850452346830448001691592756962
58,1.35201317903498108063514931149884
59,1.35546165485846449942554125637903
60,1.35885198242824656642108275481936
61,1.36218609200343551115179501836368
62,1.36546581923246795103344205654627
63,1.36869291124017884898949357809826
64,1.37186903223286612612490960380225
65,1.37499576866645177529807009771022
66,1.37807463401799398238349755813602
67,1.38110707319654247069266308361497
68,1.38409446662557312321192526109863
69,1.38703813402592526659019920524092
70,1.38993933792523673254511345742314
71,1.39279928691727310862559806187900
72,1.39561913869224934788907619601245
73,1.39840000285718890064820929332778
74,1.40114294356354668288941731599238
75,1.40384898195769109486254152413028
76,1.40651909846839074658580557814982
77,1.40915423494414914859223327960955
78,1.41175529665206482806350970773064
79,1.41432315414884751050509098034258
80,1.41685864503368288147189909803868
81,1.41936257559178910137743560002269
82,1.42183572233674679586556165610064
83,1.42427883345899551043458549787091
84,1.42669263018726532628716174090406
85,1.42907780806915305820581229952687
86,1.43143503817653658986456261749478
87,1.43376496824106343118732386184747
88,1.43606822372452620462792766100783
89,1.43834540882855426508521373536652
90,1.44059710744770744143730577648782
91,1.44282388406973643562850905100399
92,1.44502628462648611770307938066062
93,1.44720483729865570012455989524380
94,1.44936005327738684598118362978184
95,1.45149242748542961164890180490516
96,1.45360243926043430236707643251451
97,1.45569055300273297707237096314482
98,1.45775721878980146454154083665338
99,1.45980287295943928070482535466502
100,1.46182793866355849657543000836757
101,1.46383282639434330208623014317338
102,1.46581793448441643640366625368994
103,1.46778364958254074167591566292074
104,1.46973034710627683246211661729338
105,1.47165839167292479933235191980132
106,1.47356813750998710088451938679100
107,1.47545992884631171646877175576933
108,1.47733410028499539235574127472654
109,1.47919097715905822055076983316413
110,1.48103087587083836933111097089078
111,1.48285410421598992338469617556828
112,1.48466096169291735779552105626198
113,1.48645173979842463432662994558531
114,1.48822672231030815069538103707648
115,1.48998618555758232503304233387616
116,1.49173039867897826607262707741673
117,1.49345962387032426660201871047861
118,1.49517411662137582661398854965930
119,1.49687412594262919886828172401771
120,1.49855989458262660734608713692245
121,1.50023165923622302183291612001720
122,1.50188965074426545873314724929521
123,1.50353409428510358528750111764643
124,1.50516520955833272455603979752135
125,1.50678321096114079226623237334300
126,1.50838830775761549932801654417090
127,1.50998070424134757593138598124088
128,1.51156059989164318595223284480356
129,1.51312818952364662715399534663873
130,1.51468366343265603080538824592201
131,1.51622720753289937021649026118500
132,1.51775900349102311049470149203508
133,1.51927922885453405023788453654791
134,1.52078805717542362992354097731246
135,1.52228565812918587341010549696318
136,1.52377219762943644143608495997643
137,1.52524783793832696805940672870716
138,1.52671273777293523898852801239196
139,1.52816705240780966485136893414479
140,1.52961093377383105647980072553366
141,1.53104453055355015179749565596739
142,1.53246798827315127063194685803619
143,1.53388144939118382360199479102115
144,1.53528505338419622159547926626864
145,1.53667893682940254459228651738206
146,1.53806323348450445983731422578017
147,1.53943807436478267640185402736810
148,1.54080358781757326513845017676386
149,1.54215989959423064496021563767343
150,1.54350713291968087629817158247690
151,1.54484540855966117596663408574271
152,1.54617484488573595258184417334745
153,1.54749555793817831220250613268090
154,1.54880766148680093340880151636931
155,1.55011126708981454778677491407252
156,1.55140648415079189215495370354497
157,1.55269341997380817910982099992100
158,1.55397217981682990396453001622051
159,1.5552428669434156608872178707624
160,1.5565055826727953057494230866837
161,1.5577604264283859617765272207737
162,1.5590074957848043290725033143288
163,1.5602468865134301512890933661039
164,1.5614786926265754760054441754187
165,1.5627030064203083090066816871816
166,1.5639199185159811780210015274940
167,1.5651295179005118382057477114434
168,1.5663318919654588082668825871908
169,1.5675271265449367992732044752934
170,1.5687153059524117792522236522693
171,1.5698965130164158679990273248463
172,1.5710708291152199287272837040852
173,1.5722383342104992588638133562103
174,1.5733991068800282234717158924225
175,1.5745532243494378162059554844083
176,1.5757007625230658541250002922121
177,1.5768417960139330668669533717719
178,1.5779763981728742345571502217215
179,1.5791046411168508193638833992627
180,1.5802265957564760370720305798190
181,1.5813423318227750172314443516079
182,1.5824519178932077472363210007517
183,1.5835554214169778495801750986419
184,1.5846529087396514337931629583635
185,1.5857444451271078311557658285158
186,1.5868300947888431807785336717809
187,1.5879099209006506675159699214481
188,1.5889839856266928479991414770072
189,1.5900523501409897958450227388624
190,1.5911150746483387170873195383511
191,1.5921722184046842583473657079585
192,1.5932238397369558899141660531833
193,1.5942699960623906675469354595293
194,1.5953107439073547137477514091243
195,1.5963461389256813508272403944038
196,1.5973762359165395776270246459428
197,1.5984010888418472651832342670562
198,1.5994207508432432332731231104145
199,1.6004352742586310416614576302954
200,1.6014447106383084362085613618491
201,1.6024491107606934262198525465996
202,1.6034485246476603691493988774119
203,1.6044430015794967173403570030457
204,1.6054325901094920416650877107194
205,1.6064173380781692973778322988766
206,1.6073972926271713508781834960865
207,1.6083725002128086380117727613409
208,1.6093430066192821753139671786766
209,1.6103088569715876670253362929223
210,1.6112700957481122034789827491716
211,1.6122267667929309098173583071699
212,1.6131789133278137721616891145635
213,1.6141265779639470191233536641637
214,1.6150698027133840343416310062390
215,1.6160086290002250062739566779392
216,1.6169430976715392696902284287631
217,1.6178732490080342979078384493262
218,1.6187991227344803182115485022569
219,1.6197207580298938233883454562756
220,1.6206381935374924874990408825883
221,1.6215514673744193881705044000390
222,1.6224606171412537327678218850303
223,1.6233656799313016492713526018274
224,1.6242666923396821011506009531375
225,1.6251636904722104827710473840279
226,1.6260567099540834332682127627690
227,1.6269457859383735117290003178447
228,1.6278309531143355438730021936672
229,1.6287122457155317923704725998290
230,1.6295896975277806370267824891533
231,1.6304633418969305540891071586677
232,1.6313332117364698035814575605557
233,1.6321993395349668101575395350675
234,1.6330617573633573835224894898313
235,1.6339204968820719495081676212518
236,1.6347755893480124905551682278512
237,1.6356270656213828157129588651897
238,1.6364749561723738911532743553898
239,1.6373192910877096667605469125436
240,1.6381601000770555521996132149228
241,1.6389974124792938237920361070152
242,1.6398312572686688181335536454901
243,1.6406616630608059432078224976578
244,1.6414886581186061952141208893646
245,1.6423122703580205542010678211175
246,1.6431325273537067770551274220080
247,1.6439494563445699696100501030581
248,1.6447630842391945184122536849250
249,1.6455734376211623506380102300035
250,1.6463805427542679062637320158122
251,1.6471844255876277218964888355401
252,1.6479851117606874241601923840978
253,1.6487826266081312042357390649664
254,1.6495769951646934298076549347253
255,1.6503682421698762738418515085741
256,1.6511563920725734449568108177328
257,1.6519414690356064101275227097326
258,1.6527234969401695537765383875096
259,1.6535024993901910760977073133767
260,1.6542784997166100163123604128985
261,1.6550515209815697139106636999126
262,1.6558215859825324326050245901733
263,1.6565887172563139968779114318397
264,1.6573529370830438912773151875924
265,1.6581142674900493469873599371917
266,1.6588727302556655827065454931270
267,1.6596283469129754123657011004076
268,1.6603811387534782526847625778360
269,1.6611311268306927997672882691520
270,1.6618783319636890981570534730126
271,1.6626227747405592855930281761641
272,1.6633644755218209923065640311243
273,1.6641034544437608372547930068391
274,1.6648397314217152295875913228930
275,1.6655733261532923502066765444262
276,1.6663042581215335910490838146953
277,1.6670325465980219353876830199434
278,1.6677582106459290330760835884599
279,1.6684812691230124731855777691125
280,1.6692017406845553468828631370149
281,1.6699196437862559893551613958545
282,1.6706349966870653970337435037069
283,1.6713478174519755325458687650324
284,1.6720581239547556739128911524755
285,1.6727659338806436152390233680824
286,1.6734712647289877436185267650614
287,1.6741741338158450515360443924596
288,1.6748745582765314865194415361616
289,1.6755725550681292860921574927967
290,1.6762681409719520305358856386216
291,1.6769613325959652543871725714754
292,1.6776521463771655015576336417740
293,1.6783405985839217298356868699878
294,1.6790267053182741016679253163948
295,1.6797104825181922483478750483648
296,1.6803919459598005931559110198239
297,1.6810711112595606651584100771592
298,1.6817479938764197204005112796855
299,1.6824226091139224733315314095597
300,1.6830949721222876890493854319066
301,1.6837650979004500477826794012299
302,1.6844330012980693745240723758793
303,1.6850986970175044069245244475237
304,1.6857621996157546789585544554434
305,1.6864235235063719488681374705853
306,1.6870826829613404345854833682469
307,1.6877396921129230385891461147699
308,1.6883945649554810406228097472441
309,1.6890473153472633475433750030649
310,1.6896979570121656354451548755333
311,1.6903465035414629789644701504706
312,1.6909929683955134808980620823038
313,1.6916373649054342948851535842226
314,1.6922797062747518454276682552960
315,1.6929200055810255648932960136712
316,1.6935582757774465231442012688698
317,1.6941945296944084883979354774279
318,1.6948287800410567705666460351721
319,1.6954610394068119886380890825359
320,1.6960913202628687633580667492845
321,1.6967196349636732541500412819737
322,1.6973459957483756547047759725781
323,1.6979704147422611612800020699207
324,1.6985929039581583908521626766932
325,1.6992134752978270111023630014819
326,1.6998321405533228194649515935352
327,1.7004489114083430919959477657025
328,1.7010637994395493912576993751728
329,1.7016768161178728080802969352548
330,1.7022879728097980688672228522420
331,1.7028972807786279470239502386383
332,1.7035047511857290397347516291687
333,1.7041103950917592886277534158833
334,1.7047142234578754283354743016165
335,1.7053162471469246778677480568911
336,1.7059164769246167328325972113632
337,1.7065149234606789307353986142781
338,1.7071115973299956481925836016619
339,1.7077065090137279945505509245199
340,1.7082996689004198932351033439208
341,1.7088910872870862643928472575616
342,1.7094807743802858059584204201085
343,1.7100687402971780109211281996340
344,1.7106549950665644144825258961394
345,1.7112395486299158904235478074573
346,1.7118224108423834714606674191361
347,1.7124035914737962589342527164266
348,1.7129831002096432335378898710115
349,1.7135609466520425119976747759004
350,1.7141371403206955920276255579789
351,1.7147116906538286731493006515952
352,1.7152846070091207357263527857848
353,1.7158558986646176625776387281974
354,1.7164255748196338176311042871785
355,1.7169936445956414468877874425299
356,1.7175601170371461114713854949235
357,1.7181250011125513917941050803941
358,1.7186883057150121068328861992663
359,1.7192500396632717936481282859456
360,1.7198102117024933850574807741323
361,1.7203688305050748303275911671129
362,1.7209259046714561404780249683760
363,1.7214814427309124538055310874476
364,1.7220354531423381456165800582050
365,1.7225879442950202185318868263089
366,1.7231389245093998510272782768900
367,1.7236884020378249962177201442334
368,1.7242363850652908196103259369565
369,1.7247828817101726083683886041583
370,1.7253279000249468652588299326080
371,1.7258714479969034405902149447208
372,1.7264135335488476586180521003815
373,1.7269541645397924051315699015462
374,1.7274933487656444846996032093074
375,1.7280310939598759391442167382321
376,1.7285674077941917834562624713520
377,1.7291022978791859483631256810786
378,1.7296357717649885969582517259350
379,1.7301678369419066551945695615807
380,1.7306985008410543130047952850239
381,1.7312277708349763714850029373434
382,1.7317556542382615543100234677940
383,1.7322821583081504580420830356225
384,1.7328072902451331050334316808979
385,1.7333310571935397201765455372348
386,1.7338534662421253901539725590376
387,1.7343745244246443545229416215744
388,1.7348942387204178654315688435558
389,1.7354126160548962906494344667652
390,1.7359296633002126490163699288308
391,1.7364453872757278952460285663201
392,1.7369597947485715624579807021829
393,1.7374728924341752359201404881690
394,1.7379846869967974390943639795125
395,1.7384951850500427888527886516750
396,1.7390043931573750707282705246628
397,1.7395123178326238641011716727750
398,1.7400189655404847254523333914015
399,1.7405243426970114954682533004020
400,1.7410284556701050299510991579158
401,1.7415313107799944034475146174117
402,1.7420329142997113308083511544666
403,1.7425332724555606274134478708597
404,1.7430323914275846011464026649451
405,1.7435302773500188415594330368989
406,1.7440269363117455152584455503717
407,1.7445223743567412842225459089071
408,1.7450165974845173502483729384821
409,1.7455096116505544865909476172551
410,1.7460014227667355712750761189318
411,1.7464920367017698820909086147627
412,1.7469814592816127358584636176216
413,1.7474696962898815510168088109536
414,1.7479567534682647573790792357513
415,1.7484426365169278370124153394372
416,1.7489273510949129258719247086054
417,1.7494109028205348246717018028972
418,1.7498932972717705822265241738133
419,1.7503745399866469297722518888341
420,1.7508546364636205481839857714264
421,1.7513335921619551202728016650469
422,1.7518114125020944497613542794129
423,1.7522881028660294830748539128041
424,1.7527636685976628476707448206383
425,1.7532381150031672862635526241712
426,1.7537114473513415937827699350062
427,1.7541836708739615416911119448926
428,1.7546547907661258033478713573363
429,1.7551248121866007928024319970065
430,1.7555937402581572791202716448718
431,1.7560615800679062798930317116519
432,1.7565283366676313834434073664243
433,1.7569940150741128376188611224977
434,1.7574586202694545031073708929918
435,1.7579221572014014949462122114176
436,1.7583846307836564132099649272861
437,1.7588460458961923242434324518873
438,1.7593064073855614744997572243109
439,1.7597657200652004182836382386463
440,1.7602239887157326306086421805501
441,1.7606812180852657650167615098294
442,1.7611374128896871200018386525431
443,1.7615925778129569617275522615275
444,1.7620467175073943224048815537330
445,1.7624998365939646049840851014221
446,1.7629519396625600185031315028733
447,1.7634030312722800132572521036255
448,1.7638531159517049339839778354629
449,1.7643021981991707315635310033578
450,1.7647502824830368856687714606058
451,1.7651973732419550414533446344928
452,1.7656434748851312016199048462392
453,1.7660885917925872169336720316169
454,1.7665327283154179641237211820193
455,1.7669758887760478350383633760873
456,1.7674180774684818340459023338688
457,1.7678592986585559793821985673781
458,1.7682995565841834043337718241692
459,1.7687388554555986721752685261689
460,1.7691771994555999471967089408661
461,1.7696145927397868715388029127293
462,1.7700510394367973608796894744320
463,1.7704865436485419227372475316004
464,1.7709211094504336582857784253351
465,1.7713547408916179164156191340320
466,1.7717874419951987307260179504782
467,1.7722192167584613199599904390088
468,1.7726500691530956675158004239919
469,1.7730800031254136567253555619978
470,1.7735090225965672864318403969681
471,1.7739371314627622339686493462432
472,1.7743643335954710631432520616494
473,1.7747906328416414281223949500122
474,1.7752160330239067772053528994383
475,1.7756405379407884792329589588776
476,1.7760641513669018864317246621810
477,1.7764868770531566666819645001392
478,1.7769087187269560811913639698612
479,1.7773296800923940969509044290510
480,1.7777497648304507285463987772676
481,1.7781689765991841601934213269346
482,1.7785873190339232167741933838450
483,1.7790047957474555638652812180223
484,1.7794214103302144565029695138054
485,1.7798371663504655135526627981271
486,1.7802520673544881024672130851388
487,1.7806661168667581832064377195227
488,1.7810793183901272077945087403728
489,1.7814916754060003036051783208035
490,1.7819031913745116034082945312940
491,1.7823138697346988563674031970801
492,1.7827237139046759080799659372451
493,1.7831327272818030245733851251620
494,1.7835409132428561541977819362018
495,1.7839482751441933198120908099348
496,1.7843548163219213855821664095109
497,1.7847605400920588838092292649126
498,1.7851654497506988469363006948977
499,1.7855695485741691419470085033448
500,1.785972839819192437519266860173
501,1.786375326723041549834537043973
502,1.786777012503697622081887029064
503,1.787177900360002605639038532848
504,1.787577993471813886620267704820
505,1.787977295000153905106433867511
506,1.788375808087360496991603472691
507,1.788773535857235806316156955727
508,1.789170481415193407886047934089
509,1.789566647848401870906693717016
510,1.789962038225930816700552483547
511,1.790356655598892701419884039297
512,1.790750503000584223781609240903
513,1.791143583446625973391050050751
514,1.791535899935100995953153124881
515,1.791927455446692649498951191430
516,1.792318252944819961852133774965
517,1.792708295375771563960988813630
518,1.793097585668839984370022981662
519,1.793486126736453086663370253730
520,1.793873921474305506776137631025
521,1.794260972761486885292297478243
522,1.794647283460611170824762030108
523,1.795032856417943431528355479635
