Eigenstate,Potential Energy
1,0.500000000032318790876312265042730897
2,0.64623093786207477840339943666130047
3,0.73633761032465362102236641375771074
4,0.79966527910495613318215146015678349
5,0.8480465775214698911963717005745413
6,0.8870660003299295038417277949749128
7,0.9197208289690063252032468934944940
8,0.9477838498159145741351173304679400
9,0.9723835618770936091359947656898466
10,0.9942802193012197432356367805675537
11,1.0140093922294054915060930756955064
12,1.0319621759663363659294203247953857
13,1.0484327005778654845410350165290335
14,1.0636476637471767170878493120479450
15,1.0777854465889705452953892082926535
16,1.090988918519909807523562978972412
17,1.103374270720124575435163078169971
18,1.115037267139412067269675660779095
19,1.126057767601214642996476881173512
20,1.136503065436556558635026944919986
21,1.146430393565741398509881420401935
22,1.155888835657092413866683700958043
23,1.164920804063477344068495659751042
24,1.173563197222730710383502162894763
25,1.181848316453580317546859775658588
26,1.189804599763235094947858853717402
27,1.197457214809961007428274729921430
28,1.204828542262120956071846777854155
29,1.211938573000126767513506456855726
30,1.218805236958263800748119634076918
31,1.225444677257410200157775544258992
32,1.231871480201773238622036203390066
33,1.238098869403117390357126490078954
34,1.244138870545412506918520722440726
35,1.250002451963635404072433850492534
36,1.255699645176979288681535580782292
37,1.261239648712640906234410693712017
38,1.266630917925936546513952401216376
39,1.271881243024649395391260407994530
40,1.276997817109689937196488603978912
41,1.281987295727400838406986212307134
42,1.286855849173845141897116567461872
43,1.291609208584930256086553087452663
44,1.296252706678126207827807028822526
45,1.300791313873967058884192765319715
46,1.305229670412388103262780177872054
47,1.309572114985474850341550278098985
48,1.313822710330613434487381846576507
49,1.317985266163369547969770414861285
50,1.32206335977530028032614806832439
51,1.32606035457643628486578432108561
52,1.32997941682382647870295083184198
53,1.33382353074508736416665617830190
54,1.33759551223833792798042951717718
55,1.34129802130642558209570009617751
56,1.34493357336327403993886441683561
57,1.34850454953298505671453085205654
58,1.35201320604752877611781689923345
59,1.35546168283610347853439973455997
60,1.35885201138822101810579350236836
61,1.36218612196301000853350297131297
62,1.36546585020892781238298220594630
63,1.36869294325083049962833136846040
64,1.37186906529503746125713662492113
65,1.37499580279749252378247224666796
66,1.37807466923527607145543224348134
67,1.38110710951746039164601352504097
68,1.38409450406754429805197674172838
69,1.38703817260639041566875495890079
70,1.38993937766166024318959982725256
71,1.39279932782714340477433817782516
72,1.39561918079307926074524887824945
73,1.39840004616651604036538284015640
74,1.40114298809893381130183400177232
75,1.40384902773672649927364791251551
76,1.40651914550868861462876945790652
77,1.40915428326334994417645153575031
78,1.41175534626783566842135866923868
79,1.41432320507888254435338201507027
80,1.41685869729570366830271038762892
81,1.41936262920354499189319998623032
82,1.42183577731601531357348096987526
83,1.42427888982358273441561613985584
84,1.42669268795500627515498824980510
85,1.42907786725791207527141570797555
86,1.43143509880420772952210492108617
87,1.43376503032557084653728702706748
88,1.43606828728382453635353495665803
89,1.43834547388062903159836363750826
90,1.44059717401057543031034832873719
91,1.44282395216144609632836007309335
92,1.44502635426511795564430197729641
93,1.44720490850232267205817023280884
94,1.44936012606423475673608654002725
95,1.45149250187363751224296641745580
96,1.45360251526821488950502516434548
97,1.45569063064833299404777170192197
98,1.45775729809150210356030413584405
99,1.45980295393555658664775566051689
100,1.46182802133244377221751118871536
101,1.46383291077438351479042927712580
102,1.46581802059403462630719215360328
103,1.46778373744019643138696918814357
104,1.46973043673046643828532561333055
105,1.47165848308218204404117536283754
106,1.47356823072288342805907602047516
107,1.47546002388145670641762434833510
108,1.47733419716103717964034966662919
109,1.47919107589468391313140329062616
110,1.48103097648477446935317804208486
111,1.48285420672700274962456411622433
112,1.48466106611981346978502647369580
113,1.48645184616005125817561423631110
114,1.48822683062555360663172299115290
115,1.48998629584537645667979587527601
116,1.49173051095829287148198618992878
117,1.49345973816017353106598967222939
118,1.49517423294081675727178500912522
119,1.49687424431076206113057942024617
120,1.49856001501859536315642670861733
121,1.50023178175921576978669297342902
122,1.50188977537351487607474118945095
123,1.50353422103988737180626263929270
124,1.50516533845797404840200485403134
125,1.50678334202500873770655817031987
126,1.50838844100512551646525958194077
127,1.50998083969196193240496972068871
128,1.51156073756487142064455051500949
129,1.51312832943904600592273335009995
130,1.51468380560983200426382646165680
131,1.51622735199150603358369332774454
132,1.51775915025076366553769434804848
133,1.51927937793516126932800478018045
134,1.52078820859674032222939169908255
135,1.52228581191104535324963397489007
136,1.52377235379174299881051694753416
137,1.52524799650103634139193516033385
138,1.52671289875605509009076354299786
139,1.52816721583140005614081291807746
140,1.52961109965800493047171990288172
141,1.53104469891847381289475238618126
142,1.53246815913904486923653241348507
143,1.53388162277832184257219902528741
144,1.53528522931290796507279270659215
145,1.53667911532007262922227033186011
146,1.53806341455757330840896416910143
147,1.53943825804074701393007376253813
148,1.54080377411698661741447086660467
149,1.54216008853770383959498128655185
150,1.54350732452788254628394509008660
151,1.54484560285331826578219167647135
152,1.54617504188563422686689089408935
153,1.54749575766516286702713075686132
154,1.54880786396177671016394394091729
155,1.55011147233374684972196299204721
156,1.55140669218470690358968473674626
157,1.55269363081879348734522727442144
158,1.55397239349403502392220140582564
159,1.5552430834740525625021537293456
160,1.5565058020781389441444583651118
161,1.5577606487297748102456621481677
162,1.5590077210036409149008512289612
163,1.5602471146711815944373696437223
164,1.5614789237447740306871298324513
165,1.5627032405205519081862759485016
166,1.5639201556199339808619464183347
167,1.5651297580299047804968441034652
168,1.5663321351420901558563152888163
169,1.5675273727906727045394593103779
170,1.5687155552891868406414323499428
171,1.5698967654662336926586065995330
172,1.5710710847001536982658472422492
173,1.5722385929526922982676571962151
174,1.5733993688016945732084521850495
175,1.5745534894728628075460778329138
176,1.5757010308706066877124421611011
177,1.5768420676080193945699473706644
178,1.5779766730360087446309787315680
179,1.5791049192716098249573850637021
180,1.5802268772255100681099395275741
181,1.5813426166288094157050159977436
182,1.5824522060590432659348448686630
183,1.5835557129654912542963785224719
184,1.5846532036937961090357110353631
185,1.5857447435099143894023788793555
186,1.5868303966234200753034961657409
187,1.5879102262101848088261907196282
188,1.5889842944344502239130784679367
189,1.5900526624703160952492310938164
190,1.5911153905226599574055875734113
191,1.5921725378475074167577442524729
192,1.5932241627718695383494637255533
193,1.5942703227130656115146811799953
194,1.5953110741975446350057615523916
195,1.5963464728792234539514137832603
196,1.5973765735573552405082388479035
197,1.5984014301939426934905338993491
198,1.5994210959307101189207513571296
199,1.6004356231056472253176083475919
200,1.6014450632691385738840347433871
201,1.6024494671996896599751945441250
202,1.6034488849192630019594330034445
203,1.6044433657082348921553360336715
204,1.6054329581199844247081072773279
205,1.6064177099951247657184400143879
206,1.6073976684753896843225066306472
207,1.6083728800171812153498855640984
208,1.6093433904047926749655584206717
209,1.6103092447633127721250944663819
210,1.6112704875712223114435623635120
211,1.6122271626726908464360492398220
212,1.6131793132895835102534968760374
213,1.6141269820331824018033685594577
214,1.6150702109156375029401810691856
215,1.6160090413611463329521934686630
216,1.6169435142168762947964590497066
217,1.6178736697636336721191248947909
218,1.6187995477262882495056426765908
219,1.6197211872839568288913723797874
220,1.6206386270799581502548178115814
221,1.6215519052315371188777614270282
222,1.6224610593393755365321113638351
223,1.6233661264968828974187358188021
224,1.6242671432992823081507951054850
225,1.6251641458524940883180833548854
226,1.6260571697818205895671379690258
227,1.6269462502404408760375880921146
228,1.6278314219177170763479279836606
229,1.6287127190473195592679396971131
230,1.6295901754151756193078867417000
231,1.6304638243672434614809373532551
232,1.6313336988171218941452441513897
233,1.6321998312534907154157588402961
234,1.6330622537473979391972368083615
235,1.6339209979593870319237624936443
236,1.6347760951464738587583016294254
237,1.6356275761689769593643282902353
238,1.6364754714972028842451461353169
239,1.6373198112179920272151410637760
240,1.6381606250411271074039266079755
241,1.6389979423056085821250372767585
242,1.6398317919857998465424050025628
243,1.6406622026974462508902464087623
244,1.6414892027035696234645577983886
245,1.6423128199202426724790378270569
246,1.6431330819222457853345872618750
247,1.6439500159486076070691264414783
248,1.6447636489080369785234715302024
249,1.6455740073842412027195526640737
250,1.6463811176411410235529839295288
251,1.6471850056279802162077397160987
252,1.6479856969843325871889009739371
253,1.6487832170450114555723892109111
254,1.6495775908448812717250684752762
255,1.6503688431235752529201310271094
256,1.6511569983301191206110609443381
257,1.6519420806274673301039060323065
258,1.6527241138969482366829333102417
259,1.6535031217426250010361082963721
260,1.6542791274955726196805768128687
261,1.6550521542180713934416956011562
262,1.6558222247077215587130543741973
263,1.6565893615014779313809642010957
264,1.6573535868796100135666830827213
265,1.6581149228695860877152129308929
266,1.6588733912498834650635686260220
267,1.6596290135537281010213396322588
268,1.6603818110727636104636183841811
269,1.6611318048606539521357258599156
270,1.6618790157366155055949316273220
271,1.6626234642888878239262437691328
272,1.6633651708781370410769501835300
273,1.6641041556407993762046020376831
274,1.6648404384923619433365957761881
275,1.6655740391305847412008318074043
276,1.6663049770386621008603753876298
277,1.6670332714883310744458183494803
278,1.6677589415429185189133393906196
279,1.6684820060603383772770103063592
280,1.6692024836960312501650480193632
281,1.6699203929058541465073391459841
282,1.6706357519489179096064155632225
283,1.6713485788903755310223066127583
284,1.6720588916041585087904221164984
285,1.6727667077756680572176397305617
286,1.6734720449044171929853017236514
287,1.6741749203066287568348365559742
288,1.6748753511177857725961234902215
289,1.6755733542951387916069453788123
290,1.6762689466201709550349675545948
291,1.6769621447010186150270053752630
292,1.6776529649748503995761555417947
293,1.6783414237102086268659290494257
294,1.6790275370093081059901819751328
295,1.6797113208102944111780104153785
296,1.6803927908894692150681214670474
297,1.6810719628634726127420183516978
298,1.6817488521914317532513574172086
299,1.6824234741770725814796000880841
300,1.6830958439707964409254884334104
301,1.6837659765717219488280529950052
302,1.6844338868296942365479763073011
303,1.6850995894472587283159332297630
304,1.6857630989816030358593802806304
305,1.6864244298464683974163617655666
306,1.6870835963140299243379534274743
307,1.6877406125167428372349632294572
308,1.6883954924491621700994144400557
309,1.6890482499697320316686692044756
310,1.6896988988025447591801898061276
311,1.6903474525390735594227944132198
312,1.6909939246398761502186433982915
313,1.6916383284362707950874251136465
314,1.6922806771319865353685483421800
315,1.6929209838047869394471428527164
316,1.6935592614080687447282398297735
317,1.6941955227724329309668673922316
318,1.6948297806072335762018617235434
319,1.6954620475021016368578580951180
320,1.6960923359284436532768349309813
321,1.6967206582409192996163253763831
322,1.6973470266788938925484009888806
323,1.6979714533678693728013198107234
324,1.6985939503208927366869886377619
325,1.6992145294399436795979869494384
326,1.6998332025172996887043782072936
327,1.7004499812368814056085798488896
328,1.7010648771755754481567277821097
329,1.7016779018045396662682388723636
330,1.7022890664904872634531883076772
331,1.7028983824969512225972173726077
332,1.7035058609855300972414850515336
333,1.7041115130171155468988274455647
334,1.7047153495530998004156044276753
335,1.7053173814565673622973627561603
336,1.7059176194934670200360699964597
337,1.7065160743337670246707360253049
338,1.7071127565525945034193931315014
339,1.7077076766313551688752912965334
340,1.7083008449588394160940915030139
341,1.7088922718323105211356210729659
342,1.7094819674585774381956492140627
343,1.7100699419550518331036567337288
344,1.7106562053507893468793704551132
345,1.7112407675875169086694981149290
346,1.7118236385206435728452222759674
347,1.7124048279202584456064131010150
348,1.7129843454721125128028299615938
349,1.7135622007785879138838534483828
350,1.7141384033596522043044770956057
351,1.7147129626537996939782295318437
352,1.7152858880189795441296296676494
353,1.7158571887335099069121345109317
354,1.7164268739969795222559101927475
355,1.7169949529311371372170908640561
356,1.7175614345807669576062118336129
357,1.7181263279145533709287976886842
358,1.7186896418259341846345330411635
359,1.7192513851339381248097865233846
360,1.7198115665840155332279461439028
361,1.7203701948488540076233063887738
362,1.7209272785291854667851708989323
363,1.7214828261545792360822651028383
364,1.7220368461842261774089915598432
365,1.7225893470077120999186644700994
366,1.7231403369457793292115126628096
367,1.7236898242510793269865065713342
368,1.7242378171089131498857436628554
369,1.7247843236379643800756969546835
370,1.7253293518910202407411949057016
371,1.7258729098556837498012147248875
372,1.7264150054550758683269447802196
373,1.7269556465485276103783569692984
374,1.7274948409322664227403765726392
375,1.7280325963400875261298379842473
376,1.7285689204440216740908422526344
377,1.7291038208549911187913843926017
378,1.7296373051234569511342104273255
379,1.7301693807400596549867163003284
380,1.7307000551362496322968744037436
381,1.7312293356849105745336736141078
382,1.7317572297009727986246469890204
383,1.7322837444420212220552522406196
384,1.7328088871088929408333350249868
385,1.7333326648462680315767231103572
386,1.7338550847432542363789703348723
387,1.7343761538339612797914451194641
388,1.7348958790980687547228376562974
389,1.7354142674613882519422212044987
390,1.7359313257964169222927075970505
391,1.7364470609228827885567244091585
392,1.7369614796082854153495985085152
393,1.7374745885684294105278101863652
394,1.7379863944679493392077291900640
395,1.7384969039208289072673005542723
396,1.7390061234909140651971500075708
397,1.7395140596924196622077839773110
398,1.7400207189904296587268892059419
399,1.7405261078013894630765260136072
400,1.7410302324935946922871965901967
401,1.7415330993876724059670673414990
402,1.7420347147570555584430402962406
403,1.7425350848284534899113312340069
404,1.7430342157823163496879925754077
405,1.7435321137532909170033548315906
406,1.7440287848306739283747475704041
407,1.7445242350588600282776283684339
408,1.7450184704377818463087145646808
409,1.7455114969233450619187074821244
410,1.7460033204278609711928878232867
411,1.7464939468204708156982548242550
412,1.7469833819275654559869784726411
413,1.7474716315332014688171313703430
414,1.7479587013795100919368036751544
415,1.7484445971671033003959798279247
416,1.7489293245554734440202773575093
417,1.7494128891633892945356399670458
418,1.7498952965692856655822876352527
419,1.7503765523116508841319604471557
420,1.7508566618894070952331034435749
421,1.7513356307622873522703337018265
422,1.7518134643512087743439813794292
423,1.7522901680386396069132018468137
424,1.7527657471689637994302356458895
425,1.7532402070488394793301449423323
426,1.7537135529475549292185240056191
427,1.7541857900973795518918461263447
428,1.7546569236939098368807082468715
429,1.7551269588964142409080472440529
430,1.7555959008281698443707886721697
431,1.7560637545767982875032928072597
432,1.7565305251945981357403285430892
433,1.7569962176988690121796606398491
434,1.7574608370722385950851659491867
435,1.7579243882629803041082309692167
436,1.7583868761853295762207084240494
437,1.7588483057197968927323990312738
438,1.7593086817134765394606505972255
439,1.7597680089803517813598063235913
440,1.7602262923015975228264660583092
441,1.7606835364258776135370793337909
442,1.7611397460696403634671064737566
443,1.7615949259174119147898807659656
444,1.7620490806220820900293465370828
445,1.7625022148051920471283336481017
446,1.7629543330572147657844451571337
447,1.7634054399378355342247987381299
448,1.7638555399762256546244523275251
449,1.7643046376713172076754944849978
450,1.7647527374920710287509954626178
451,1.7651998438777453987610381233843
452,1.7656459612381582910514850605780
453,1.7660910939539489174212062412436
454,1.7665352463768349622083888556849
455,1.7669784228298691283221239405395
456,1.7674206276076902922212807543470
457,1.7678618649767739635505539465869
458,1.7683021391756784453336896553671
459,1.7687414544152892086521612211015
460,1.7691798148790611241554609775131
461,1.7696172247232564001322011531472
462,1.7700536880771814401952565035517
463,1.7704892090434212243562634945969
464,1.7709237916980693744002312215141
465,1.7713574400909578722988261471226
466,1.7717901582458835623650303220898
467,1.7722219501608307176692109257284
468,1.7726528198081946863624145023648
469,1.7730827711349990946106861883438
470,1.7735118080631141306831223015875
471,1.7739399344894701773100153808532
472,1.7743671542862710899257955199860
473,1.7747934713012024717066427707002
474,1.7752188893576424494021661164589
475,1.7756434122548638727237849778088
476,1.7760670437682404510991555067645
477,1.7764897876494471607988094996960
478,1.7769116476266595984284756687517
479,1.7773326274047511701782512642970
480,1.7777527306654885114172039328706
481,1.7781719610677236875140494436883
482,1.7785903222475867446794751245019
483,1.7790078178186739908328254196568
484,1.7794244513722348262552029227008
485,1.7798402264773586009117548207792
486,1.7802551466811560832431367343007
487,1.7806692155089423892157773067065
488,1.7810824364644159681223667637397
489,1.7814948130298368732408722782917
490,1.7819063486662021804016361962816
491,1.7823170468134206886693648239566
492,1.7827269108904854912505651333989
493,1.7831359442956443915555834566293
494,1.7835441504065692583761576554764
495,1.7839515325805225125918341524190
496,1.7843580941545239897445523644096
497,1.7847638384455138639175810648886
498,1.7851687687505155780865781903321
499,1.7855728883467962781761324377368
500,1.785976200492026881205759156597
501,1.786378708424437523445729616748
502,1.786780415362975843642626355870
503,1.787181324507459569318643791585
504,1.787581439038731249856016966268
505,1.787980762118807983702830294755
506,1.788379296891031869659215424107
507,1.788777046480219030133885335494
508,1.789174013992806846196047896377
509,1.789570202516997635173382569956
510,1.789965615122904823889967130790
511,1.790360254862694848479791378708
512,1.790754124770728680826926914846
513,1.791147227863701597225842745361
514,1.791539567140781865584958029600
515,1.791931145583748725327380381428
516,1.792321966157127870242394348523
517,1.792712031808325508936716783899
518,1.793101345467762788190004603884
519,1.793489910049007361074765807650
520,1.793877728448904956763903587576
521,1.794264803547707747175009139638
522,1.794651138209203786576470313895
523,1.795036735280843961235976286847
