Eigenstate,Potential Energy
1,0.500000000021562513904027842288570076
2,0.64623093779186340162039883791053897
3,0.73633761011841333876764662788541884
4,0.79966527867538109374025476511609713
5,0.8480465767773578374912255926701185
6,0.8870659991784819188258566181821204
7,0.9197208273166760630625412878168240
8,0.9477838475687594823704746214469346
9,0.9723835589409410778483866951329064
10,0.9942802155817503268215007752214652
11,1.0140093876321984333835111747309156
12,1.0319621703968957096685210845955512
13,1.0484326939416356161999763014335478
14,1.0636476559495518252290701364313229
15,1.0777854375353004116888230049044553
16,1.090988908115503292999420409362483
17,1.103374258870251606487512281053409
18,1.115037253749304617248225538043559
19,1.126057752576067020732638886058042
20,1.136503048681525208523331772427999
21,1.146430374985944348565848192728139
22,1.155888815157608465237709909402741
23,1.164920781549345067334208125232425
24,1.173563172598947295168955482126039
25,1.181848289625100309136916123605934
26,1.189804570634969042671609299276047
27,1.197457183286774043278781356184132
28,1.204828508248831317502436115109794
29,1.211938536401504275058649159973409
30,1.218805197679028298688203369633913
31,1.225444635202229966634128202201930
32,1.231871435275263370240041011300998
33,1.238098821509838165271415949621119
34,1.244138819589867729590272722838469
35,1.250002397850270734263956775862295
36,1.255699587810180556763576799403352
37,1.261239587996732416494675060127357
38,1.266630853765179369847318062665541
39,1.271881175323239652505287770836812
40,1.276997745771757073266566422231114
41,1.281987220657005889953695096925657
42,1.286855770274978996526225160193081
43,1.291609125761511905623493030332724
44,1.296252619834000995288828931379231
45,1.300791222912904919651973056387222
46,1.305229575238081800772160228497275
47,1.309572015501538206529082594004792
48,1.313822606440579555214543149230041
49,1.317985157770689043592705492721342
50,1.32206324678333948155337638125451
51,1.32606023688847545401853067170183
52,1.32997929434305801646985188521879
53,1.33382340337461401192494788291566
54,1.33759537988117096573876199305924
55,1.34129788386548302209909045943478
56,1.34493343074137881596358382656720
57,1.34850440163286320906968504208056
58,1.35201305277180763236067966136248
59,1.35546152408730982989814702410915
60,1.35885184706877929163082574265644
61,1.36218595197524043488700228762780
62,1.36546567445504458934554546351747
63,1.36869276163293995122139774095544
64,1.37186887771513619248035161347859
65,1.37499560915746557092606430359804
66,1.37807446943689504794899337706904
67,1.38110690346238162940184554383742
68,1.38409429165730698425818679535503
69,1.38703795374241472498459720678664
70,1.38993915224524546529322241210413
71,1.39279909575946606721077910514943
72,1.39561894197519124702064623451351
73,1.39839980049934270323143070319289
74,1.40114273548327208117289634559637
75,1.40384876807324298771733912294097
76,1.40651887869791771286943445244092
77,1.40915400920569191654960754188633
78,1.41175506486355474071592338289586
79,1.41432291622810498697736027564481
80,1.41685840089841587420695882260545
81,1.41936232515959154918681272028841
82,1.42183546552509707276341912673536
83,1.42427857018525487020227236455680
84,1.42669236036867634271452738811572
85,1.42907753162283806095487170104308
86,1.43143475501949609590048152168232
87,1.43376467829017457172107896353486
88,1.43606792689654114751441637197510
89,1.43834510504009863262004850509510
90,1.44059679661527872349496350600741
91,1.44282356610970239808398739915305
92,1.44502595945508320607872795080003
93,1.44720450483198743840321834811491
94,1.44935971343142223052630482724315
95,1.45149208017600150017184477736632
96,1.45360208440323779788130656424623
97,1.45569019051332380677382069563798
98,1.45775684858359435355396482753640
99,1.45980249495170632062849358183765
100,1.46182755276942750877711234459539
101,1.46383243252879619566794196392541
102,1.46581753256228756078723400072508
103,1.46778323951851523374000397581631
104,1.46972992881488895816787797587556
105,1.47165796506855628977348231884160
106,1.47356770250686548269705371093799
107,1.47545948535850863653551572550037
108,1.47733364822642493673985356522003
109,1.47919051644347522759250475376967
110,1.48103040641183673684137888661372
111,1.48285362592700090986862845418750
112,1.48466047448720787763880240856192
113,1.48645124358909554687694225437314
114,1.48822621701029254317084582728138
115,1.48998567107964378918913838423287
116,1.49172987493570916855859413878474
117,1.49345909077414401293734433999395
118,1.49517357408452911871510494811987
119,1.49687357387718428605518020602727
120,1.49855933290047353075808250655294
121,1.50023108784907185218235034283982
122,1.50188906956364452732536609612772
123,1.50353350322235770823496959146538
124,1.50516460852462142011401656535004
125,1.50678259986743649121692982881914
126,1.50838768651470174833970381516897
127,1.50998007275981723381844836122213
128,1.51155995808189661276167841571091
129,1.51312753729588986600341694749445
130,1.51468300069689898239694110994918
131,1.51622653419895395995092727315244
132,1.51775831946850144810892703753240
133,1.51927853405284658188917625345055
134,1.52078735150377728264288240200636
135,1.52228494149658219184662417492881
136,1.52377146994466971681416215380772
137,1.52524709910998235926936221169525
138,1.52671198770938688573134058045952
139,1.52816629101721879275729252431329
140,1.52961016096414407412027238845123
141,1.53104374623249673950914830218344
142,1.53246719234824246107092765544377
143,1.53388064176971007394635993104657
144,1.53528423397322547731275214681966
145,1.53667810553577829468874397363599
146,1.53806239021484378350500506505980
147,1.53943721902547428097874801764701
148,1.54080272031477551529653380045164
149,1.54215901983386958303573995934261
150,1.54350624080744823367772741348657
151,1.54484450400101237544198560616978
152,1.54617392778588810158597905758476
153,1.54749462820210818683866244070826
154,1.54880671901924295318362412118819
155,1.55011031179525874095813102257863
156,1.55140551593348185160423255097408
157,1.55269243873773900864799815200231
158,1.55397118546574615498057961262887
159,1.5552418593808092592467268907185
160,1.5565045618019034688506996591154
161,1.5577593921521891056707495321877
162,1.5590064480060239655537768314253
163,1.5602458251345267748596651955841
164,1.5614776175497464406205059507497
165,1.5627019175474856945025708099100
166,1.5639188157488296461299015498912
167,1.5651284011404264780592195636852
168,1.5663307611135629712898254368920
169,1.5675259815020799233692331576833
170,1.5687141466191672021804519335482
171,1.5698953392930786298418061583528
172,1.5710696409018045633474196644092
173,1.5722371314067375742491787481336
174,1.5733978893853670708643223880113
175,1.5745519920630368479117821920659
176,1.5756995153437952699001002764905
177,1.5768405338403713487745082238632
178,1.5779751209033058701894144993024
179,1.5791033486492640133220503693956
180,1.5802252879885604105962619955543
181,1.5813410086519192958724844670627
182,1.5824505792164974364592270809147
183,1.5835540671311928981899298616016
184,1.5846515387412638850709384359306
185,1.5857430593122794615937703701880
186,1.5868286930534231263006375444027
187,1.5879085031401730370701661157628
188,1.5889825517363743244072090792885
189,1.5900509000157272237937141701991
190,1.5911136081827066781445460443730
191,1.5921707354929326328858599443663
192,1.5932223402730074058242064086861
193,1.5942684799398384356187651427804
194,1.5953092110194597496032858457758
195,1.5963445891653700832797992487386
196,1.5973746691764013433467701100840
197,1.5983995050141317895449811227478
198,1.5994191498198580972622852285577
199,1.6004336559311391347127208233091
200,1.6014430748979253948509613140434
201,1.6024474574982850584009235918840
202,1.6034468537537400641098559799615
203,1.6044413129442228409099154625702
204,1.6054308836226653168487295946999
205,1.6064156136292301701010023595788
206,1.6073955501051973407580368842673
207,1.6083707395065116740206572840700
208,1.6093412276170059162002164952518
209,1.6103070595613048063551649432734
210,1.6112682798174217591622876462477
211,1.6122249322290554979789643642304
212,1.6131770600175968652185568857465
213,1.6141247057938501879268573641902
214,1.6150679115694841742430441072083
215,1.6160067187682115469699401418205
216,1.6169411682367113687039174103678
217,1.6178713002552980175599438885273
218,1.6187971545483457859346035916635
219,1.6197187702944723752359382161677
220,1.6206361861364937947006593688508
221,1.6215494401911485665813031031173
222,1.6224585700586084350612919124429
223,1.6233636128317691397216243187449
224,1.6242646051053363128497074017589
225,1.6251615829847090571251655083862
226,1.6260545820946647416155681556468
227,1.6269436375878536589206791993738
228,1.6278287841531053536565831790003
229,1.6287100560235537744149709364828
230,1.6295874869845859354259395206954
231,1.6304611103816158771787081734036
232,1.6313309591276943349048014853356
233,1.6321970657109491004118306694040
234,1.6330594622018722233172816217469
235,1.6339181802604472227657188171985
236,1.6347732511431260083808605199966
237,1.6356247057096591305624206958354
238,1.6364725744297810911214063826293
239,1.6373168873897561498159966535737
240,1.6381576742987867801866525513562
241,1.6389949644952890560202342940418
242,1.6398287869530378243740678323587
243,1.6406591702871856959133409855046
244,1.6414861427601575407779687217419
245,1.6423097322874248630693380152861
246,1.6431299664431625725038118488282
247,1.6439468724657895349976916457600
248,1.6447604772634004827167281282198
249,1.6455708074190842520844341305183
250,1.6463778891961387338485165489539
251,1.6471817485431804346110455945539
252,1.6479824110991514477157408241357
253,1.6487799021982289050890619386936
254,1.6495742468746365662856186929361
255,1.6503654698673624241608169647167
256,1.6511535956247824119308606005083
257,1.6519386483091966023579655378838
258,1.6527206518012743431128067256125
259,1.6534996297044151311581193655588
260,1.6542756053490256118511608536073
261,1.6550486017967130158154762442475
262,1.6558186418443997583073324764350
263,1.6565857480283580509567565715155
264,1.6573499426281699760344972436997
265,1.6581112476706115477702991677416
266,1.6588696849334629277529006071576
267,1.6596252759492480069416649170340
268,1.6603780420089033872867342728254
269,1.6611280041653810321546126259253
270,1.6618751832371803089812254769807
271,1.6626195998118187073863628575075
272,1.6633612742492352115913552855063
273,1.6641002266851337695315487288108
274,1.6648364770342640669586223014073
275,1.6655700449936434813891280018160
276,1.6663009500457184935287922363264
277,1.6670292114614730394633844292442
278,1.6677548483034755575405971021033
279,1.6684778794288762323883426644594
280,1.6691983234923465289158311173447
281,1.6699161989489689051012818842273
282,1.6706315240570741998152615283037
283,1.6713443168810299081063371846444
284,1.6720545952939765004650639912706
285,1.6727623769805185933073278517818
286,1.6734676794393669954030153252460
287,1.6741705199859366895215264604903
288,1.6748709157548971510506571393201
289,1.6755688837026796516337508455290
290,1.6762644406099422803326349839717
291,1.6769576030839905232372428449578
292,1.6776483875611562864089121796864
293,1.6783368103091392679123366048046
294,1.6790228874293057158313064197849
295,1.6797066348589466593932958779843
296,1.6803880683735031987434981479175
297,1.6810672035887487850732964159975
298,1.6817440559629378078348451378886
299,1.6824186407989172918774932365851
300,1.6830909732462034550893778860140
301,1.6837610683030235379596102246606
302,1.6844289408183249979717224263167
303,1.6850946054937492419344595784953
304,1.6857580768855734737571566795846
305,1.6864193694066220861736086406248
306,1.6870784973281468596117182486964
307,1.6877354747816731501599127906942
308,1.6883903157608195450561548072216
309,1.6890430341230870749627320488528
310,1.6896936435916183181704582385669
311,1.6903421577569299916326389154478
312,1.6909885900786165419588309371767
313,1.6916329538870261291145666443563
314,1.6922752623849108070982756061114
315,1.6929155286490502212355960034130
316,1.6935537656318501977310437362284
317,1.6941899861629137640790695872091
318,1.6948242029505899515772133844242
319,1.6954564285834975215009167876906
320,1.6960866755320236161955535305643
321,1.6967149561498012540177109060284
322,1.6973412826751617825539983965113
323,1.6979656672325658041543516907394
324,1.6985881218340115509166134145187
325,1.6992086583804224711011014203629
326,1.6998272886630122641992801718436
327,1.7004440243646301854090850832887
328,1.7010588770610838087097153274022
329,1.7016718582224442233911768798992
330,1.7022829792143300957024442917119
331,1.7028922512991720341918342264360
332,1.7034996856374583199609189514339
333,1.7041052932889623803669475391431
334,1.7047090852139501901766052490432
335,1.7053110722743719150834369139934
336,1.7059112652350338556194310958777
337,1.7065096747647535636866972237990
338,1.7071063114374991905401302942698
339,1.7077011857335091307074697903889
340,1.7082943080403980531665326363600
341,1.7088856886542450333362026325667
342,1.7094753377806662830099112808606
343,1.7100632655358721160002270583787
344,1.7106494819477081431806075688244
345,1.7112339969566825162376181139358
346,1.7118168204169766949080733630391
347,1.7123979620974433030383497868985
348,1.7129774316825878851695596223164
349,1.7135552387735381085520765795392
350,1.7141313928889979529093570924102
351,1.7147059034661889755340739076653
352,1.7152787798617783340612627092516
353,1.7158500313527928512763817876909
354,1.7164196671375205364141919423723
355,1.7169876963363999282126552653582
356,1.7175541279928954694901918700199
357,1.7181189710743621522717386223055
358,1.7186822344728986774510041652353
359,1.7192439270061848741149688738256
360,1.7198040574183123164367398757361
361,1.7203626343805998829932632985034
362,1.7209196664924007400957002485286
363,1.7214751622818953447334522357651
364,1.7220291302068754911141121369381
365,1.7225815786555176371550300438163
366,1.7231325159471443885850586474334
367,1.7236819503329770326559606283781
368,1.7242298899968759101818193757571
369,1.7247763430560732584420722930980
370,1.7253213175618942381130309020545
371,1.7258648215004689975274399246151
372,1.7264068627934347307321021331908
373,1.7269474492986276960494921114437
374,1.7274865888107695036138916508435
375,1.7280242890621383634428732793295
376,1.7285605577232367502505250951338
377,1.7290954024034472742045011928297
378,1.7296288306516799250291974542324
379,1.7301608499570125292481275571601
380,1.7306914677493211773214663762536
381,1.7312206913999034961053691198083
382,1.7317485282220918847946180348829
383,1.7322749854718613890008431798743
384,1.7328000703484271766582462598774
385,1.7333237899948352370019047854092
386,1.7338461514985469612621993635585
387,1.7343671618920133544009832957845
388,1.7348868281532428146773298788035
389,1.7354051572063631557168010778205
390,1.7359221559221750601782594642996
391,1.7364378311186972819457728852386
392,1.7369521895617072052094265663064
393,1.7374652379652742339074176264790
394,1.7379769829922845926122378901036
395,1.7384874312549603957189122252287
396,1.7389965893153726357878051640913
397,1.7395044636859477209350172756214
398,1.7400110608299675693892124640100
399,1.7405163871620618269905536089046
400,1.7410204490486965075733957545088
401,1.7415232528086551051369329490067
402,1.7420248047135129230037463971951
403,1.7425251109881074406902766627211
404,1.7430241778110026115623685975639
405,1.7435220113149445567050422981929
406,1.7440186175873147640245682151921
407,1.7445140026705779092861456885539
408,1.7450081725627218022651083709983
409,1.7455011332176923190714966668760
410,1.7459928905458258351101979701213
411,1.7464834504142734186775945311934
412,1.7469728186474203677672143806276
413,1.7474610010273021691273665769503
414,1.7479480032940133033992978342869
415,1.7484338311461131802816405303878
416,1.7489184902410256333373263343840
417,1.7494019861954348229126967576101
418,1.7498843245856747103886806699804
419,1.7503655109481163822584121463527
420,1.7508455507795482059366311577562
421,1.7513244495375527694675740154202
422,1.7518022126408798867167092194135
423,1.7522788454698135041695151971601
424,1.7527543533665361230448495213987
425,1.7532287416354871160650179485073
426,1.7537020155437185457054576249056
427,1.7541741803212459685355606450854
428,1.7546452411613942393203246646302
429,1.7551152032211422272517586637189
430,1.7555840716214593063967838310148
431,1.7560518514476411239969599801102
432,1.7565185477496417961142116320818
433,1.7569841655423978685000041925950
434,1.7574487098061551406043782824180
435,1.7579121854867861763788342032162
436,1.7583745974961064028415285378188
437,1.7588359507121869577535935188288
438,1.7592962499796632684481643750212
439,1.7597555001100400430947320389891
440,1.7602137058819937455888992410705
441,1.7606708720416697138974949377266
442,1.7611270033029774854815083772848
443,1.7615821043478839774684426448921
444,1.7620361798266991409202571160856
445,1.7624892343583634198306992843703
446,1.7629412725307280391761619688653
447,1.7633922989008352911622910604103
448,1.7638423179951920378421131071749
449,1.7642913343100442705829755524436
450,1.7647393523116448787968307986882
451,1.7651863764365221310003603607370
452,1.7656324110917417095247709235654
453,1.7660774606551680419194347896632
454,1.7665215294757213179684727735015
455,1.7669646218736338161642883986007
456,1.7674067421407008366064771411150
457,1.7678478945405309360038344761176
458,1.7682880833087918606447187081807
459,1.7687273126534546912304982668196
460,1.7691655867550358418830877548575
461,1.7696029097668347630199847937642
462,1.7700392858151705611152504829823
463,1.7704747189996161390846947271206
464,1.7709092133932280181687601219095
465,1.7713427730427758100149317163700
466,1.7717754019689684696236051021516
467,1.7722071041666766096390407883848
468,1.7726378836051558915928017048399
469,1.7730677442282639707608914988723
470,1.7734966899546785191412337105027
471,1.7739247246781105936219540082879
472,1.7743518522675176469171579355241
473,1.7747780765673115321359048399733
474,1.7752034013975690049413508345009
475,1.7756278305542336460178339201438
476,1.7760513678093217176134697049467
477,1.7764740169111222871163716574832
478,1.7768957815843962936140275709810
479,1.7773166655305734467802900255556
480,1.7777366724279473526308207964075
481,1.7781558059318674169807815176601
482,1.7785740696749310953499592819272
483,1.7789914672671718692699868757630
484,1.7794080022962457687049287189384
485,1.7798236783276179174173717049035
486,1.7802384989047436860278415775669
487,1.7806524675492513015042048140360
488,1.7810655877611205095201656476653
489,1.7814778630188605177353660994054
490,1.7818892967796850829922614167869
491,1.7822998924796868765807867693657
492,1.7827096535340097156236296576886
493,1.7831185833370186354539848266331
494,1.7835266852624688968874541156930
495,1.7839339626636721207422290683528
496,1.7843404188736627938855807381648
497,1.7847460572053608321813274099560
498,1.7851508809517341454433441537775
499,1.7855548933859587015653346810954
500,1.785958097761578220144985019657
501,1.786360497312659241458250771278
502,1.786762095253949025775861481031
503,1.787162894781027750958637119819
504,1.787562899070462851973689841666
505,1.787962111279958349598258547717
506,1.788360534548504898197062162903
507,1.788758171996528400393062349653
508,1.789155026726036828381048434575
509,1.789551101820763482560025133672
510,1.789946400346312740503685623066
511,1.790340925350301527124897164046
512,1.790734679862500406007828661047
513,1.791127666894972907422009099258
514,1.791519889442213769257308940937
515,1.791911350481286464954753971710
516,1.792302052971958228598581036889
517,1.792691999856833651736795895572
518,1.793081194061488637145314267631
519,1.793469638494601491308225569721
520,1.793857336048084012447299146075
521,1.794244289597209369159077194570
522,1.794630502000741045690548316053
523,1.795015976101059290839990562990
