Eigenstate,Potential Energy
1,0.500000000047923424651244699082027307
2,0.64623093796393386347158875359832511
3,0.73633761062385723036008613401939541
4,0.79966527972816527295786649919335925
5,0.8480465786010004774337597149485933
6,0.8870660020004161957648031023682459
7,0.9197208313661735895149411811494544
8,0.9477838530760644321529873394784819
9,0.9723835661368676813810139948275434
10,0.9942802246974787001469448094613153
11,1.0140093988991637738979555884785742
12,1.0319621840467250703651759586310902
13,1.0484327102061105820888418199486236
14,1.0636476750605860967607010160108818
15,1.0777854597249263815612745383551173
16,1.090988933615864272448024434644357
17,1.103374287913597726787986546855258
18,1.115037286567991196220052711378870
19,1.126057789402554627595225770536866
20,1.136503089748380927161232437502056
21,1.146430420525843904685651145522503
22,1.155888865403338988391200341288987
23,1.164920836733808327747366463929227
24,1.173563232955163301422906251760519
25,1.181848355386211184202848932150131
26,1.189804642034243117661454675408518
27,1.197457260557610123722258191219177
28,1.204828591624763088048699691288791
29,1.211938626116204816571865677602987
30,1.218805293966314697658850266103919
31,1.225444738296068001271178017821602
32,1.231871545409772260963331771009656
33,1.238098938919295379882015788009860
34,1.244138944508713835367186055690951
35,1.250002530513114290767133654108516
36,1.255699728451803044323669477815495
37,1.261239736852093196318589790431757
38,1.266631011069420672423687051116411
39,1.271881341311691591599333089062340
40,1.276997920679942683282412239052352
41,1.281987404720646184838909565080868
42,1.286855963729998048717565348084902
43,1.291609328844041943799178163332434
44,1.296252832780387519912677193698990
45,1.300791445959711835477432244719211
46,1.305229808622096565626759202033628
47,1.309572259459776995827581091785134
48,1.313822861210292441756769605388232
49,1.317985423589365192293078471382823
50,1.32206352388871235882644073455596
51,1.32606052551852805161084321420826
52,1.32997959473602808958500194874643
53,1.33382371576899933153703473409330
54,1.33759570451573458503156391289653
55,1.34129822097925855700442095184421
56,1.34493378057367573980384639439837
57,1.34850476442327216133711464429197
58,1.35201342876020574168989245588419
59,1.35546191351386605130967206697625
60,1.35885225017395975814196534690041
61,1.36218636899981382360283546540794
62,1.36546610564008750215755832483046
63,1.36869320721984231025420183077247
64,1.37186933794560665043860286955640
65,1.37499608427353693650418877775217
66,1.37807495968092972647571162095469
67,1.38110740907707707889997728930511
68,1.38409481288570118710794095741645
69,1.38703849082789167538566217432054
70,1.38993970543154067272719448709863
71,1.39279966529067207611162016685798
72,1.39561952809576317286605851762166
73,1.39840040345410378527322792154109
74,1.40114335551741925202901353473170
75,1.40384940543235246005256730545805
76,1.40651953362795058339591547853209
77,1.40915468195299978758206160718590
78,1.41175575567488535952016219763838
79,1.41432362535060790315405940083540
80,1.41685912857964811535587924531112
81,1.41936307164752331509984301730191
82,1.42183623106811744839774204127902
83,1.42427935503217755768782558896649
84,1.42669316476874541265269187149883
85,1.42907835582573372326802774973193
86,1.43143559927534049049459577454386
87,1.43376554284953757922611109877636
88,1.43606881201044622036974816135574
89,1.43834601096002864677455913958284
90,1.44059772359318185099376701702261
91,1.44282451439799800081621031014300
92,1.44502692930666775096296344033344
93,1.44720549650024043428963345446408
94,1.44936072717021218709660178047603
95,1.45149311623969190912055406561344
96,1.45360314304669313666406766959794
97,1.45569127199191556521063674461042
98,1.45775795315320708357748719811271
99,1.45980362286874370946975487866988
100,1.46182870429081847588322441463164
101,1.46383360791200101364856865841430
102,1.46581873206530400068883349143815
103,1.46778446339988473494899957578021
104,1.46973117733370282324632546419793
105,1.47165923848446190453284409978200
106,1.47356900108007256181806772444358
107,1.47546080934979549504438716791726
108,1.47733499789714478765322089544846
109,1.47919189205556250604605001794806
110,1.48103180822781345101914997505542
111,1.48285505420998301905251891047452
112,1.48466192950091169770001966714804
113,1.48645272559784418353358358648373
114,1.48822772627902235333820179578094
115,1.48998720787391087075164339345176
116,1.49173143952169587889486811001791
117,1.49346068341866551653224581552693
118,1.49517519505503996419503106168607
119,1.49687522344178501298559952643660
120,1.49856101132791730654470231467574
121,1.50023279540877113941988068640711
122,1.50189080652567778194040591999837
123,1.50353526985747610877229092921252
124,1.50516640510425562851801072323628
125,1.50678442666370344546276440258798
126,1.50838954380041148727140698065163
127,1.50998196080847975455389241401521
128,1.51156187716772876102722237886821
129,1.51312948769382225976370259952561
130,1.51468498268258296914824856075449
131,1.51622854804876860804925454461103
132,1.51776036545956057250711747163680
133,1.51928061246300580465993359212842
134,1.52078946261164112866785271796103
135,1.52228708558151122005466048113788
136,1.52377364728678768735465417377868
137,1.52524930999018343700998719035847
138,1.52671423240934288047242105917205
139,1.52816856981938643655818544864938
140,1.52961247415177233613647579610446
141,1.53104609408963417874184385231932
142,1.53246957515974461743420559041488
143,1.53388305982124689806039152206784
144,1.53528668755128879943477745918881
145,1.53668059492768933319693297539171
146,1.53806491570876069335376607997710
147,1.53943978091039974254754652451795
148,1.54080531888056436405768353770795
149,1.54216165537123648047034484827132
150,1.54350891360797537987221549354681
151,1.54484721435715726380190037351326
152,1.54617667599099131610670534150280
153,1.54749741455040124237697058187421
154,1.54880954380585617917741287516046
155,1.55011317531622920904565825177069
156,1.55140841848576134759817094078094
157,1.55269538061920204932314395187896
158,1.55397416697519805013836915487065
159,1.5552448808179942195235643753111
160,1.5565076234675127597411179935578
161,1.5577624943478692482406994375237
162,1.5590095910343849843232791525035
163,1.5602490092991504933383119316093
164,1.5614808431551948249836977547467
165,1.5627051848993092459005986712139
166,1.5639221251535758421261907533852
167,1.5651317529056482636986228484349
168,1.5663341555478273003024305793385
169,1.5675294189149763500192372555763
170,1.5687176273213165242747958811611
171,1.5698988635961415834174096509078
172,1.5710732091184905695608616057376
173,1.5722407438508135389971312682212
174,1.5734015463716662376681477646654
175,1.5745556939074677046042573207940
176,1.5757032623633505096574844648190
177,1.5768443263531368860417910649732
178,1.5779789592284699120518698414642
179,1.5791072331071261868811795351085
180,1.5802292189005409469135054998165
181,1.5813449863405682710491833588957
182,1.5824546040055040704266100449183
183,1.5835581393453949117883067856969
184,1.5846556587066569160027007782897
185,1.5857472273560265398403566269197
186,1.5868329095038642095988164326284
187,1.5879127683268346070491041570859
188,1.5889868659899790439931349966671
189,1.5900552636682036564947948940688
190,1.5911180215671990698346575808920
191,1.5921751989438107567113926438601
192,1.5932268541258764708645130817561
193,1.5942730445315490599364564802715
194,1.5953138266881179983270784607808
195,1.5963492562503475723684523701703
196,1.5973793880183454096891709959174
197,1.5984042759549757280577970311418
198,1.5994239732028314656527098986060
199,1.6004385321007781265808092826106
200,1.6014480042000832818122710501783
201,1.6024524402801427019168142729024
202,1.6034518903638164977200443752421
203,1.6044464037323859235679699238482
204,1.6054360289401424580687780576601
205,1.6064208138286191276304096306023
206,1.6074008055404770914982758038100
207,1.6083760505330533589255160467044
208,1.6093465945915838598878162710472
209,1.6103124828421076121777278088382
210,1.6112737597640634804848823064023
211,1.6122304692025868864260417977310
212,1.6131826543805166966546581921494
213,1.6141303579101166669457946403835
214,1.6150736218045264179473687748680
215,1.6160124874889411488307572245168
216,1.6169469958115340432989355697919
217,1.6178771870541253269955842658404
218,1.6188031009426069487665630391076
219,1.6197247766571261587108765514216
220,1.6206422528420404911497039116608
221,1.6215555676156420548050877072905
222,1.6224647585796683275545956575355
223,1.6233698628285930165943912950279
224,1.6242709169587120433103087694444
225,1.6251679570770272094004982601686
226,1.6260610188099310821918051986440
227,1.6269501373117017419974402756725
228,1.6278353472728092017170471748279
229,1.6287166829280406508234073521041
230,1.6295941780644492099739087616260
231,1.6304678660291279855108547056384
232,1.6313377797368198327647537018874
233,1.6322039516773578136588723580088
234,1.6330664139229524946743934904662
235,1.6339251981353192562696567407216
236,1.6347803355726553125153219119752
237,1.6356318570964700610657406418917
238,1.6364797931782704944709427794276
239,1.6373241739061071084014473766959
240,1.6381650289909824601964571095218
241,1.6390023877731266590750990800938
242,1.6398362792281426439529926449515
243,1.6406667319730252796296386820535
244,1.6414937742720559595727298450902
245,1.6423174340425770884024276028222
246,1.6431377388606489626339122806745
247,1.6439547159665904314543977763242
248,1.6447683922704109180799221427685
249,1.6455787943571287701983966224714
250,1.6463859484919863236103056278809
251,1.6471898806255595784854535127446
252,1.6479906163987652861412807472330
253,1.6487881811477705179525314974212
254,1.6495825999088043726557597027883
255,1.6503738974228757014844910544722
256,1.6511620981403969359087369338283
257,1.6519472262257204087297340858630
258,1.6527293055615836125960331473415
259,1.6535083597534701987983283063135
260,1.6542844121338871020547951485246
261,1.6550574857665581043517564431732
262,1.6558276034505385625790506715621
263,1.6565947877242501498549257537475
264,1.6573590608694410607060977698566
265,1.6581204449150702046439785442414
266,1.6588789616411175551816604429331
267,1.6596346325823238668376588325551
268,1.6603874790318597931387151700314
269,1.6611375220449286748338180393721
270,1.6618847824422987217580464175979
271,1.6626292808137738715958208877084
272,1.6633710375215973044022495116803
273,1.6641100727037950552900583563978
274,1.6648464062774569335946814552919
275,1.6655800579419586233903810057701
276,1.6663110471821232430044202525713
277,1.6670393932713298468376892175286
278,1.6677651152745606234336347263711
279,1.6684882320513982922591047223180
280,1.6692087622589657920615176390663
281,1.6699267243548161496251227383664
282,1.6706421365997700251930137711321
283,1.6713550170607041470017209452077
284,1.6720653836132877914627625036795
285,1.6727732539446741162521436372518
286,1.6734786455561423710530282636208
287,1.6741815757656960452434789040533
288,1.6748820617106133543061887158137
289,1.6755801203499547130248806799564
290,1.6762757684670279279965876165450
291,1.6769690226718089504012478197527
292,1.6776598994033210739374790484862
293,1.6783484149319764837004499927388
294,1.6790345853618751929200800730396
295,1.6797184266330634547055918140678
296,1.6803999545237592343607151226087
297,1.6810791846525346739969861250781
298,1.6817561324804648661998490147732
299,1.6824308133132397396073014474367
300,1.6831032423032408070077170408956
301,1.6837734344515831873970631305280
302,1.6844414046101249949303124090651
303,1.6851071674834412678979311807360
304,1.6857707376307660152605387966492
305,1.6864321294679038092702517565134
306,1.6870913572691101874029341466997
307,1.6877484351689380455777016605425
308,1.6884033771640575011171772550435
309,1.6890561971150453147376879206702
310,1.6897069087481442067410811668255
311,1.6903555256569956623362599547687
312,1.6910020613043437392486542100597
313,1.6916465290237112703920326756829
314,1.6922889420210502659033711886870
315,1.6929293133763658342102901989986
316,1.6935676560453149978005784853751
317,1.6942039828607779423262205850302
318,1.6948383065344070503156615632315
319,1.6954706396581508610843906063358
320,1.6961009947057529581314863371581
321,1.6967293840342297029857890107556
322,1.6973558198853229299630100969077
323,1.6979803143869311159028048604156
324,1.6986028795545180020569774554938
325,1.6992235272925004301409135952908
326,1.6998422693956136298065904904959
327,1.7004591175502567783251765022518
328,1.7010740833358160217068085891093
329,1.7016871782259699321492751536563
330,1.7022984135899738335155759464894
331,1.7029078006939244334508419687616
332,1.7035153507020058233980090137229
333,1.7041210746777172250846004639631
334,1.7047249835850806675222498134261
335,1.7053270882898329094708526482547
336,1.7059273995605976654369470593576
337,1.7065259280700410074732762804373
338,1.7071226843960110016509120927794
339,1.7077176790226576437318242386721
340,1.7083109223415391854041826505866
341,1.7089024246527105646794520496271
342,1.7094921961657964376239033953908
343,1.7100802470010484492363396822626
344,1.7106665871903867372036540081806
345,1.7112512266784274878925721030321
346,1.7118341753234940193980168794417
347,1.7124154428986149570323138466014
348,1.7129950390925063130061591613148
349,1.7135729735105410152529032983020
350,1.7141492556757034277658562368706
351,1.7147238950295309500800193124038
352,1.7152969009330423782940161373948
353,1.7158682826676523120412785474509
354,1.7164380494360730219185282213877
355,1.7170062103632041426873129123169
356,1.7175727744970084020721591516526
357,1.7181377508093766242338632741735
358,1.7187011481969812519607997841840
359,1.7192629754821141327605607463541
360,1.7198232414135175068147602175559
361,1.7203819546671999417109354332888
362,1.7209391238472436955985515098131
363,1.7214947574865981044294788072909
364,1.7220488640478640173248088230825
365,1.7226014519240675164867832583703
366,1.7231525294394217993754726682904
367,1.7237021048500801152125449711485
368,1.7242501863448765445971216489155
369,1.7247967820460592548317018951585
370,1.7253419000100119441914515180857
371,1.7258855482279663285029698452181
372,1.7264277346267046265707858302150
373,1.7269684670692520112279737434618
374,1.7275077533555633345506916212388
375,1.7280456012231948188701361285909
376,1.7285820183479721698607215367383
377,1.7291170123446469009815116956987
378,1.7296505907675440367464560727903
379,1.7301827611112030346947847980571
380,1.7307135308110086828940941431545
381,1.7312429072438148484822069016995
382,1.7317708977285581954885317678169
383,1.7322975095268665466697379483499
384,1.7328227498436568531330436157882
385,1.7333466258277263930778781287888
386,1.7338691445723378583830343766902
387,1.7343903131157940784527370219700
388,1.7349101384420063181978287472532
389,1.7354286274810568249147387969711
390,1.7359457871097528132481607039387
391,1.7364616241521722052567851122956
392,1.7369761453802047340405351659466
393,1.7374893575140858844972255740277
394,1.7380012672229222523878574456737
395,1.7385118811252111786683935849210
396,1.7390212057893543100401739327464
397,1.7395292477341647157140297323909
398,1.7400360134293675686110868509728
399,1.7405415092960929568806131467500
400,1.7410457417073651257851163778157
401,1.7415487169885841989638106474842
402,1.7420504414180011243874830806892
403,1.7425509212271886658397605407214
404,1.7430501626015063331125165026772
405,1.7435481716805567164622881492144
406,1.7440449545586393344632928983359
407,1.7445405172851991120796710049072
408,1.7450348658652669922599499724420
409,1.7455280062598955422356438788560
410,1.7460199443865920691138318610301
411,1.7465106861197435048933241861326
412,1.7470002372910366436078809353477
413,1.7474886036898748097723543491138
414,1.7479757910637873820961286873432
415,1.7484618051188364565471183284287
416,1.7489466515200170785227189498442
417,1.7494303358916538927400340116638
418,1.7499128638177913742099263135149
419,1.7503942408425819189377314689215
420,1.7508744724706667764048307903690
421,1.7513535641675537761510122262689
422,1.7518315213599911301984190240371
423,1.7523083494363351475981467931472
424,1.7527840537469154749679919191569
425,1.7532586396043942425265501712554
426,1.7537321122841227226137237551365
427,1.7542044770244929854775958155990
428,1.7546757390272845661715473412000
429,1.7551459034580100551036273402668
430,1.7556149754462524745052448384066
431,1.7560829600860019446352861977190
432,1.7565498624359887893989658523278
433,1.7570156875200084194471631022999
434,1.7574804403272490908651425274677
435,1.7579441258126103632959562417199
436,1.7584067488970201586716040997681
437,1.7588683144677485820966163395938
438,1.7593288273787174871364417292036
439,1.7597882924508064669982761658604
440,1.7602467144721563430107231152841
441,1.7607040981984673104484599639904
442,1.7611604483532953055447677043104
443,1.7616157696283462415890888764294
444,1.7620700666837627336843024600802
445,1.7625233441484126430330096316427
446,1.7629756066201704653105762278536
447,1.7634268586661987325131240103407
448,1.7638771048232226467006292471724
449,1.7643263495978057863641782971248
450,1.7647745974666190380859384979749
451,1.7652218528767102568214067290210
452,1.7656681202457674963869133148163
453,1.7661134039623815534671496907223
454,1.7665577083863042143379368364759
455,1.7670010378487058284272149987868
456,1.7674433966524275059697149758007
457,1.7678847890722326357220412170559
458,1.7683252193550541189030924363007
459,1.7687646917202398335529642821630
460,1.7692032103597959719317121959939
461,1.7696407794386261009651707966616
462,1.7700774030947691590731086176991
463,1.7705130854396349934475209917667
464,1.7709478305582355989833797960820
465,1.7713816425094160279039936624488
466,1.7718145253260821010885719532452
467,1.7722464830154242019361342828615
468,1.7726775195591421687305842447774
469,1.7731076389136637625338935659750
470,1.7735368450103642354856424133626
471,1.7739651417557812669602223879887
472,1.7743925330318295655439791036161
473,1.7748190226960104880935958755023
474,1.7752446145816241802340645489072
475,1.7756693124979731614251670240922
476,1.7760931202305698687806966865024
477,1.7765160415413384930273933506342
478,1.7769380801688157829862509018116
479,1.7773592398283497083642912834831
480,1.7777795242122963758513534761324
481,1.7781989369902137498154689706725
482,1.7786174818090557468135755477208
483,1.7790351622933620843540218222820
484,1.7794519820454467041080748337384
485,1.7798679446455862469049905332163
486,1.7802830536522031647679940832317
487,1.7806973126020503192467146310958
488,1.7811107250103916630171175096614
489,1.7815232943711822333418499072918
490,1.7819350241572453209393493109913
491,1.7823459178204489489755318025850
492,1.7827559787918802508074897971587
493,1.7831652104820177219378642329094
494,1.7835736162809024406803082264413
495,1.7839811995583064505013921810591
496,1.7843879636639015489434698807632
497,1.7847939119274241691394693726767
498,1.7851990476588402996726751758075
499,1.7856033741485079406220770444524
500,1.786006894667339226781947660418
501,1.786409612466957964610757971121
502,1.786811530779860038603973849921
503,1.787212652819568155750773326350
504,1.787612981780788772454874078921
505,1.788012520839564051936391095693
506,1.788411273153424582774135866843
507,1.788809241861540707187437682544
508,1.789206430084872099614911203372
509,1.789602840926313827081838213070
510,1.789998477470844945214139133274
511,1.790393342785672861608883143099
512,1.790787439920377367409656600397
513,1.791180771907052953491757577361
514,1.791573341760450088410694774867
515,1.791965152478115833119315642761
516,1.792356207040532003571556664459
517,1.792746508411251956753210395057
518,1.793136059537037786348211001259
519,1.793524863347994710832384341541
520,1.793912922757705511863849341350
521,1.794300240663361819092701986927
522,1.794686819945896518505717255970
523,1.795072663470113722402152280812
