Eigenstate,Potential Energy
1,0.500000000149396712512247606794433648
2,0.64623093862630326722903348708817347
3,0.73633761256953517065238500342875020
4,0.79966528378085093524854563563120584
5,0.8480465856212153063882989923113353
6,0.8870660128638267003349685081896755
7,0.9197208469556169983840473114889381
8,0.9477838742782347916434534673998953
9,0.9723835938407856673661245022540252
10,0.9942802597937249168204005004773092
11,1.0140094422794714819629248608471384
12,1.0319622366037560896643349001617358
13,1.0484327728333309298764213380281277
14,1.0636477486521990389685211419738712
15,1.0777855451758401354227364732009262
16,1.090989031821681490802615580986891
17,1.103374399770619166707825038278296
18,1.115037412973228915808160780668113
19,1.126057931253751762306030459169842
20,1.136503247944036123675533016425427
21,1.146430595965239127191212646659046
22,1.155889058986569818224199399265714
23,1.164921049361816142843863127424211
24,1.173563465529768899530488918095106
25,1.181848608810149534905994188673733
26,1.189804917211199012437205666907781
27,1.197457558392254552727048601400777
28,1.204828913022790215032981474486244
29,1.211938971984369454403030435070481
30,1.218805665212470209861351406940870
31,1.225445135829204572112038775557705
32,1.231871970140055489537913973818781
33,1.238099391758105163518966225849936
34,1.244139426368683515272737548935454
35,1.250003042308170038740649798616239
36,1.255700271097203474014018491427108
37,1.261240311264469186159236891435609
38,1.266631618166815390308254714377127
39,1.271881982013600713707395961558534
40,1.276998595907354801364068085383520
41,1.281988115396083397812639096140336
42,1.286856710777556735702887262366883
43,1.291610113189433716750624206175169
44,1.296253655350980354888620733737427
45,1.300792307684571382301420154359280
46,1.305230710432027636307165524792784
47,1.309573202287365232615041360066860
48,1.313823845989946166155800461003458
49,1.317986451257357436717627777476595
50,1.32206459538322308291026499384398
51,1.32606164177968654546184742857011
52,1.32998075670595556651466045953479
53,1.33382492439185171300815470648698
54,1.33759696073774548075496019470859
55,1.34129952574878244328114023870856
56,1.34493513484123133935814316632412
57,1.34850616914158602801886101728083
58,1.35201488488425605354660697790240
59,1.35546342200092661563834378505668
60,1.35885381198364423223263705509895
61,1.36218798509412015497968411202486
62,1.36546777698344259221079367552922
63,1.36869493477914690523793173278614
64,1.37187112269028046388708849560361
65,1.37499792717556400719271808285121
66,1.37807686171490401612213564341638
67,1.38110937122024831387051136888741
68,1.38409683611802094845588343147091
69,1.38704057613205974161515334502551
70,1.38994185379305161973520744433690
71,1.39280187769786213882249206030627
72,1.39562180553985737313146027352828
73,1.39840274692926333066978577451184
74,1.40114576602078921024322135219665
75,1.40385188396410971360075077995736
76,1.40652208119135206948390743032324
77,1.40915729955443102796679788071488
78,1.41175844432390928529259936168634
79,1.41432638606001397942052988869320
80,1.41686196236550177085194787827825
81,1.41936597952921568182951680580906
82,1.42183921406841541644861102205094
83,1.42428241417727415043196505336361
84,1.42669630108831048760226557072065
85,1.42908157035296500391473893294721
86,1.43143889304701493452255013082038
87,1.43376891690606308854928640975539
88,1.43607226739591369850724889342944
89,1.43834954872226440913970380434321
90,1.44060134478380039373677849816322
91,1.44282822007245513392550778484929
92,1.44503072052431410139479614103121
93,1.44720937432437532496313746646723
94,1.44936469266813789765853989689188
95,1.45149717048276832445280457383705
96,1.45360728711039278917633614089673
97,1.45569550695587907703233981090953
98,1.45776228010129901483367029371649
99,1.45980804288910881890008202105054
100,1.46183321847593840013652577645980
101,1.46383821735875137166157639894484
102,1.46582343787501192963401241655610
103,1.46778926667838686431462042164250
104,1.46973607919140369369171291011768
105,1.47166424003639283824167918761566
106,1.47357410344595099115525144700015
107,1.47546601365408475640537464624309
108,1.47734030526911438747940235873479
109,1.47919730362934886606645817138050
110,1.48103732514248113986627382387004
111,1.48286067760958647748961338724183
112,1.48466766053455746478811375654737
113,1.48645856541975363115891012895448
114,1.48823367604859493661468055114789
115,1.48999326875578790190901276184541
116,1.49173761268582483236032495811187
117,1.49346697004036487301238889629091
118,1.49518159631506460166606334097294
119,1.49688174052639215260176174823673
120,1.49856764542893302157983975051311
121,1.50023954772365743546292600458984
122,1.50189767825760025667357977712662
123,1.50354226221537219977095314523526
124,1.50517351930290345762256886449322
125,1.50679166392379126838747222717010
126,1.50839690534860775723029958864807
127,1.50998944787750380880189765929116
128,1.51156949099642213933493694788434
129,1.51313722952722066396589358669046
130,1.51469285377198887303053661555661
131,1.51623654965182452696390983974418
132,1.51776849884032300223783703466226
133,1.51928887889201983918544821317058
134,1.52079786336601576660863146067259
135,1.52229562194499536972219222945897
136,1.52378232054984688046010505179304
137,1.52525812145007726123074065650926
138,1.52672318337020314121704306944491
139,1.52817766159229605841639564621992
140,1.52962170805484501464872884803489
141,1.53105547144809479327356118112453
142,1.53247909730601041609366665079665
143,1.53389272809500946575537071000195
144,1.53529650329959682032192986169134
145,1.53669055950503215893946379737029
146,1.53807503047715272876858388745672
147,1.53945004723946566039021337566976
148,1.54081573814762516086383222519881
149,1.54217222896139638554739507820844
150,1.54351964291420962971084860735817
151,1.54485810078040075435745220465509
152,1.54618772094022814558448833635916
153,1.54750861944275515734158302990340
154,1.54882091006668193699660920788130
155,1.55012470437920486987298682194079
156,1.55142011179298150929579004459508
157,1.55270723962127203892658677250508
158,1.55398619313132908567007947920512
159,1.5552570755960995561691829942974
160,1.5565199883443048346156164186790
161,1.5577750308089578381864317967955
162,1.5590223005743763914021342858833
163,1.5602618934217477729039177245049
164,1.5614939033732990714476772563536
165,1.5627184227351219515391884752108
166,1.5639355421387023445099632521812
167,1.5651453505812022975682096138715
168,1.5663479354645366699598365718740
169,1.5675433826332897385530490108021
170,1.5687317764115114561927565776328
171,1.5699131996384335575191014869181
172,1.5710877337031433791468192792649
173,1.5722554585782507967802586394943
174,1.5734164528525841230280299227295
175,1.5745707937629489511030060243707
176,1.5757185572249796510212291561666
177,1.5768598178631167791015133277026
178,1.5779946490397395554327052536481
179,1.5791231228834798545301288317155
180,1.5802453103167486558630990044658
181,1.5813612810824976031258657564912
182,1.5824711037702433679318184486608
183,1.5835748458413778675050345123579
184,1.5846725736537885782103163551101
185,1.5857643524858107533589409988488
186,1.5868502465595325142258823731669
187,1.5879303190634766151038979524023
188,1.5890046321746743190389592461140
189,1.5900732470801551156749229302389
190,1.5911362239978679326271253441652
191,1.5921936221970530632876965359778
192,1.5932455000180811936205134832781
193,1.5942919148917778321593017900818
194,1.5953329233582464843598481719713
195,1.5963685810852085040454406860025
196,1.5973989428858733142291056181332
197,1.5984240627363533730282355039038
198,1.5994439937926380470508648832875
199,1.6004587884071392265194228414769
200,1.6014684981448226227474807811287
201,1.6024731737989357248148712231344
202,1.6034728654063457920297774750694
203,1.6044676222624985373408778000060
204,1.6054574929360091170582033826790
205,1.6064425252828953926969069379001
206,1.6074227664604664841561351625860
207,1.6083982629408724853822636817375
208,1.6093690605243295644560183720554
209,1.6103352043520261914770966999104
210,1.6112967389187219904020036454829
211,1.6122537080850465743581587715132
212,1.6132061550895085921372706466969
213,1.6141541225602193643468425847886
214,1.6150976525263460855052621580910
215,1.6160367864292937989219929070396
216,1.6169715651336300994408828440276
217,1.6179020289377565237225755977886
218,1.6188282175843356011629696561317
219,1.6197501702704768390455422112013
220,1.6206679256576941507270796878576
221,1.6215815218816326298366453097227
222,1.6224909965615818685548957114920
223,1.6233963868097693815221095400260
224,1.6242977292404491954052219232895
225,1.6251950599787881614142519058298
226,1.6260884146695535294718888870135
227,1.6269778284856104276611706945903
228,1.6278633361362310579484801831851
229,1.6287449718752227611360320356208
230,1.6296227695088796381113428254334
231,1.6304967624037595175037632409143
232,1.6313669834942966795275958635840
233,1.6322334652902453223908533981531
234,1.6330962398839699182343152794134
235,1.6339553389575756306126330528854
236,1.6348107937898884932218925446022
237,1.6356626352632889709565429417794
238,1.6365108938704006352811925467052
239,1.6373555997206393904942677273382
240,1.6381967825466254053209286455866
241,1.6390344717104620322211693215880
242,1.6398686962098845714289690776474
243,1.6406994846842829115825260931982
244,1.6415268654205997362900755303177
245,1.6423508663591086708790279014842
246,1.6431715150990748890574373961153
247,1.6439888389042995624569416481312
248,1.6448028647085557348268752740588
249,1.6456136191209105906341810088373
250,1.6464211284309445034592317143283
251,1.6472254186138647649125178190005
252,1.6480265153355167933113229045402
253,1.6488244439572978950954385245467
254,1.6496192295409732366409287174191
255,1.6504108968533979073362824879867
256,1.6511994703711451601577875540631
257,1.6519849742850472219887629942172
258,1.6527674325046451192788549244501
259,1.6535468686625543234653138813561
260,1.6543233061187466034685773273934
261,1.6550967679647483999652497712703
262,1.6558672770277604478539580761660
263,1.6566348558746974985228193824625
264,1.6573995268161535938410366205951
265,1.6581613119102914182094153782538
266,1.6589202329666578975557011628593
267,1.6596763115499292596995576700912
268,1.6604295689835855910280995196066
269,1.6611800263535191606652631595985
270,1.6619277045115722375920020382450
271,1.6626726240790136860343056823975
272,1.6634148054499483200949004676965
273,1.6641542687946664622022321208313
274,1.6648910340629309159097691306396
275,1.6656251209872052301910378614255
276,1.6663565490858215352060495458108
277,1.6670853376660954352312334911616
278,1.6678115058273797151391124573661
279,1.6685350724640683653925476691260
280,1.6692560562685430209827512268593
281,1.6699744757340697057608673901600
282,1.6706903491576433811213218572582
283,1.6714036946427835142409785811158
284,1.6721145301022778252374265619350
285,1.6728228732608810234061209399240
286,1.6735287416579645602450941393643
287,1.6742321526501224616120295227420
288,1.6749331234137296439044176999013
289,1.6756316709474573655298763930273
290,1.6763278120747465494772206893366
291,1.6770215634462368212914045627684
292,1.6777129415421541508115438719775
293,1.6784019626746610069872031888568
294,1.6790886429901640663169221273757
295,1.6797729984715815657773807318590
296,1.6804550449405778896262175389216
297,1.6811347980597553257233267031901
298,1.6818122733348123121392078030332
299,1.6824874861166649810389830504815
300,1.6831604516035337546761769909120
301,1.6838311848429954092786155347846
302,1.6844997007340027042180184726921
303,1.6851660140288687541671224094074
304,1.6858301393352197264747369838913
305,1.6864920911179172971042739407004
306,1.6871518837009501333117950138255
307,1.6878095312692915901172773988324
308,1.6884650478707311042431240479487
309,1.6891184474176753801661823351767
310,1.6897697436889197089581600300084
311,1.6904189503313930204957487503345
312,1.6910660808618741880048455282681
313,1.6917111486686809836772681896589
314,1.6923541670133334957931502356619
315,1.6929951490321913333098084965789
316,1.6936341077380660000672271552197
317,1.6942710560218059838846717971709
318,1.6949060066538599186648979131836
319,1.6955389722858149681182088939644
320,1.6961699654519104396208906344411
321,1.6967989985705305545974530500528
322,1.6974260839456724975250917941457
323,1.6980512337683932654822144648075
324,1.6986744601182343034862039391443
325,1.6992957749646256959448344073524
326,1.6999151901682681600173543497869
327,1.7005327174824956704667565860441
328,1.7011483685546159142752372630056
329,1.7017621549272335592202706199233
330,1.7023740880395527776821426375137
331,1.7029841792286604741565497983998
332,1.7035924397307912878711176673709
333,1.7041988806825747595185692994118
334,1.7048035131222628569066651339948
335,1.7054063479909421855328265224668
336,1.7060073961337269535625962145942
337,1.7066066683009355752119958615737
338,1.7072041751492519834928023482198
339,1.7077999272428677293061713865696
340,1.7083939350546109710689430809947
341,1.7089862089670580817018572305142
342,1.7095767592736303837579714581863
343,1.7101655961796756645524168570263
344,1.7107527298035344794832450328675
345,1.7113381701775930778170769682442
346,1.7119219272493204411330105958511
347,1.7125040108822930156614902177409
348,1.7130844308572039666091061976260
349,1.7136631968728605162793220299532
350,1.7142403185471669257453649991704
351,1.7148158054180952256353660751501
352,1.7153896669446433969331574310302
353,1.7159619125077803052882035052021
354,1.7165325514113788230466033990926
355,1.7171015928831375246468688479920
356,1.7176690460754891861909247159595
357,1.7182349200664993499323045479069
358,1.7187992238607542200941255982296
359,1.7193619663902336582957080656780
360,1.7199231565151782403967538633429
361,1.7204828030249421443227378002273
362,1.7210409146388383759602715806258
363,1.7215975000069709550769371959643
364,1.7221525677110591124882516391825
365,1.7227061262652517629562395827272
366,1.7232581841169311605740918683071
367,1.7238087496475086586925347509006
368,1.7243578311732093941981951268657
369,1.7249054369458505608126211290215
370,1.7254515751536090178190722229465
371,1.7259962539217811218904646337878
372,1.7265394813135337740540808791244
373,1.7270812653306466852907831310265
374,1.7276216139142502073141826454581
375,1.7281605349455494594885859415676
376,1.7286980362465462488793743811683
377,1.7292341255807506148628088539088
378,1.7297688106538852094135034713306
379,1.7303020991145843981347797621448
380,1.7308339985550848856740641083503
381,1.7313645165119107895408848234300
382,1.7318936604665503307970642092849
383,1.7324214378461288684342497466802
384,1.7329478560240732951798441172989
385,1.7334729223207714720036126542565
386,1.7339966440042274180578537565231
387,1.7345190282907080656100847279298
388,1.7350400823453855792353781265540
389,1.7355598132829759787300815959426
390,1.7360782281683713220840280399495
391,1.7365953340172658351999914585479
392,1.7371111377967796691210977273472
393,1.7376256464260778334154105787933
394,1.7381388667769829648112383221664
395,1.7386508056745848689933120973116
396,1.7391614698978465705624304785735
397,1.7396708661802065884870814161877
398,1.7401790012101775360010634324999
399,1.7406858816319397051240487452553
400,1.7411915140459340338754162330546
401,1.7416959050094506070935191911616
402,1.7421990610372135421331164137582
403,1.7427009886019651904821168746875
404,1.7432016941350476631414804691963
405,1.7437011840269792645938393031176
406,1.7441994646280320686345253047479
407,1.7446965422488078821228845706730
408,1.7451924231608102344788808013921
409,1.7456871135970153942153913011513
410,1.7461806197524450730186855115167
411,1.7466729477847352295366656241073
412,1.7471641038147047139913874228561
413,1.7476540939269249979068971329944
414,1.7481429241702875850514323761699
415,1.7486306005585735671624699430983
416,1.7491171290710219414098830411491
417,1.7496025156528997335144486959080
418,1.7500867662160712936579159541961
419,1.7505698866395712565315435687660
420,1.7510518827701763696093485622130
421,1.7515327604229803738370247081879
422,1.7520125253819714606584379856244
423,1.7524911834006103946543321512112
424,1.7529687402024131800871740078250
425,1.7534452014815349271937774945062
426,1.7539205729033588141963032419784
427,1.7543948601050879319822194881072
428,1.7548680686963403414287440275601
429,1.7553402042597515866810628341452
430,1.7558112723515778728682177037872
431,1.7562812785023077745188599565101
432,1.7567502282172800039496787044297
433,1.7572181269773029752917780597903
434,1.7576849802392876789123859204429
435,1.7581507934368821267346433391344
436,1.7586155719811157274866973690707
437,1.7590793212610522335353758705990
438,1.7595420466444507452729349033645
439,1.7600037534784359830930852223849
440,1.7604644470901794531957095558988
441,1.7609241327875892498366135299050
442,1.7613828158600126697756052154984
443,1.7618405015789519297399594496346
444,1.7622971951987882821989261477536
445,1.7627529019575245707621383458963
446,1.7632076270775379969193840789312
447,1.7636613757663510535966824169323
448,1.7641141532174146712414865747411
449,1.7645659646109122881183677040247
450,1.7650168151145779147652825889514
451,1.7654667098845366622982107981560
452,1.7659156540661615946184561624295
453,1.7663636527949537216189263828172
454,1.7668107111974426550718037479260
455,1.7672568343921127461994414481495
456,1.7677020274903512633902886847091
457,1.7681462955974246376676266626295
458,1.7685896438134805787693881825656
459,1.7690320772345800624928624289527
460,1.7694736009537604033484979537727
461,1.7699142200621289244546773541239
462,1.7703539396499921964138867539686
463,1.7707927648080213104192262974954
464,1.7712307006284533176698767834806
465,1.7716677522063348921316285097578
466,1.7721039246408075605557366012603
467,1.7725392230364361270474044211245
468,1.7729736525045877973784294487669
469,1.7734072181648571218499811021004
470,1.7738399251465470867061776690209
471,1.7742717785902036015004388831998
472,1.7747027836492108475751719150054
473,1.7751329454914462067835529068000
474,1.7755622693010058579712889555586
475,1.7759907602799937782936974977817
476,1.7764184236503907255049171770407
477,1.7768452646559978628174857291756
478,1.7772712885644643171507720157360
479,1.7776965006694024828956266584188
480,1.7781209062925967197662035514912
481,1.7785445107863096065134228359119
482,1.7789673195356953145641924905008
483,1.7793893379613218915502839595570
484,1.7798105715218121317073551133135
485,1.7802310257166118503606274174302
486,1.7806507060888880095432735240077
487,1.7810696182285719700752996005565
488,1.7814877677755515038760602177779
489,1.7819051604230244931228552252774
490,1.7823218019210225944120034161831
491,1.7827376980801181943851037495799
492,1.7831528547753252806733512698517
493,1.7835672779502071549882715361175
494,1.7839809736212060302578362008153
495,1.7843939478822077357398583573631
496,1.7848062069093609859600674420339
497,1.7852177569661643963835307924087
498,1.7856286044088440912283359749543
499,1.7860387556920398323688672379852
500,1.786448217374823905038418416758
501,1.786856996127072442160949511215
502,1.787265098736222582438070350834
503,1.787672532114435066784740005402
504,1.788079303306200662866800711803
505,1.788485419496416457064554270929
506,1.788890888018973844514240192783
507,1.789295716365895366536462152479
508,1.789699912197062862784728270196
509,1.790103483350581885374666202031
510,1.790506437853839438305968914901
511,1.790908783935304029951934881967
512,1.791310530037132948621719206300
513,1.791711684828652207972058719589
514,1.792112257220783128179469852760
515,1.792512256381496391713208188507
516,1.792911691752380229959788548566
517,1.793310573066421151999313338443
518,1.793708910367106254350378489048
519,1.794106714028962224911092842340
520,1.794503994779664621788964854334
521,1.794900763723858829928199075622
522,1.795297032368857158849902574724
523,1.795692812652386214778442072999
