Eigenstate,Potential Energy
1,0.500000000027135075904755610721676797
2,0.64623093782823817351240931474234732
3,0.73633761022526125608790952351649241
4,0.79966527889793299099398581709037551
5,0.8480465771628630138230878764470372
6,0.8870659997750164319047998196671496
7,0.9197208281727035347158992499318333
8,0.9477838487329478381175627898770531
9,0.9723835604620772403405494936650024
10,0.9942802175086968358244616147289162
11,1.0140093900138698028138670893456279
12,1.0319621732822448422883774405769537
13,1.0484326973796456936944006346109412
14,1.0636476599892313493319656311914301
15,1.0777854422256801462350017088926224
16,1.090988913505634400005168490090453
17,1.103374265009204558894011080707349
18,1.115037260686168632479176129833065
19,1.126057760359949852984462418466945
20,1.136503057361553194085773619694593
21,1.146430384611262633440819953034512
22,1.155888825777381366624457770757884
23,1.164920793212756535127556500215437
24,1.173563185355201449363920247609697
25,1.181848303523422035682473459110025
26,1.189804585724604634937339824861206
27,1.197457199616991879563816682553345
28,1.204828525868922567359910305224153
29,1.211938555360783628914964087305571
30,1.218805218026834716494661712454635
31,1.225444656987927442227715917138256
32,1.231871458548241708799118654575137
33,1.238098846319513771792859521533307
34,1.244138845985684406731099740647203
35,1.250002425881700488214174033017974
36,1.255699617526724410070696273956065
37,1.261239619447921226960800439211315
38,1.266630887000574654779253229827145
39,1.271881210392434417726013523174232
40,1.276997782724376646399640703514323
41,1.281987259542708757575926046943207
42,1.286855811143457644852418786547885
43,1.291609168662493664443307217767887
44,1.296252664817248884922194384651915
45,1.300791270028218500728081809217858
46,1.305229624535298026669176299681408
47,1.309572067030532278338651111806925
48,1.313822660251265779117858520661968
49,1.317985213913021690554045175277554
50,1.32206330530731364925327277149620
51,1.32606029784412793096260596994807
52,1.32997935778046814822118552627611
53,1.33382346934390456941800977172181
54,1.33759544843250901564170484973440
55,1.34129795504908079919876055627060
56,1.34493350460749459755417380733647
57,1.34850447823180219133164716303457
58,1.35201313215392280872152422275803
59,1.35546160630300287137108232177454
60,1.35885193216850142913104183755619
61,1.36218604000949334352876115189255
62,1.36546576547438127472623065558806
63,1.36869285568796563770129828746597
64,1.37186897485650921346930303911409
65,1.37499570943589826119016785822428
66,1.37807457290315463795247999434925
67,1.38110701016729114170083815601512
68,1.38409440165174613196460803509583
69,1.38703806707732081231984154335258
70,1.38993926897161429025238579160112
71,1.39279921592835282635942976915566
72,1.39561906563771144244704592629716
73,1.39839992770667305167809814768438
74,1.40114286628665142537221187369628
75,1.40384890252397320995668933919110
76,1.40651901684736465081207740455706
77,1.40915415110528628133812206308670
78,1.41175521056479303738570843458007
79,1.41432306578255043720822565564224
80,1.41685855435769934144134511249020
81,1.41936248257541246614372082309308
82,1.42183562694922437137755839756217
83,1.42427873566952791401839551485888
84,1.42669252996500586176731780660676
85,1.42907770538320708916516177269672
86,1.43143493299596091101892941258377
87,1.43376486053486563785081354735799
88,1.43606811346166406024448511768053
89,1.43834529597793506680183801584813
90,1.44059699197818738369406818666008
91,1.44282376595011997174032853705901
92,1.44502616382552531940799374179577
93,1.44720471378504961507300613708313
94,1.44935992701978085314061543255113
95,1.45149229845241477459785298674374
96,1.45360230742054672045259477755689
97,1.45569041832445313440454321928155
98,1.45775708124155357679863734228769
99,1.45980273250959063972238714668087
100,1.46182779528041881269246670067758
101,1.46383268004616404422145656741300
102,1.46581778513939016983455160086012
103,1.46778349720880046349312655805522
104,1.46973019167189530467172948656889
105,1.47165823314591387957803309524893
106,1.47356797585829707076169651789362
107,1.47545976403783060740259279287994
108,1.47733393228754830901448192012287
109,1.47919080594040666176610383409467
110,1.48103070139867954649650682316449
111,1.48285392645795607630300422497098
112,1.48466078061657506794661264589511
113,1.48645155537127413552576630800152
114,1.48822653449978263711278714486933
115,1.48998599433104725654498496235624
116,1.49173020400373067091406449272624
117,1.49345942571359204129073053254793
118,1.49517391495031703311586550863958
119,1.49687392072433135897326563871898
120,1.49855968578410599422405419077064
121,1.50023144682442394873857446598280
122,1.50188943468605956482882464251560
123,1.50353387454728911855249293312188
124,1.50516498610763382175096916869684
125,1.50678298376420675592067966048513
126,1.50838807678102007171941320415612
127,1.50998046945158821002302864727617
128,1.51156036125514031325798786395971
129,1.51312794700674292249705726145694
130,1.51468341700161567393827031229716
131,1.51622695715390730426916983284769
132,1.51775874913018429721757838776221
133,1.51927897047787272200607238630377
134,1.52078779474888253846870058487919
135,1.52228539161862553524582535809466
136,1.52377192700063437994256958813219
137,1.52524756315697695219301918947775
138,1.52671245880464651858145272378483
139,1.52816676921810620246641815781729
140,1.52961064632815075578518981144678
141,1.53104423881724408242609752596821
142,1.53246769221148288948933406540911
143,1.53388114896932819258728950675234
144,1.53528474856723922169879538848303
145,1.53667862758234008633225836789062
146,1.53806291977224169000199105152538
147,1.53943775615213318105591156369475
148,1.54080326506925826885945464899950
149,1.54215957227487820626634123658654
150,1.54350680099382507922961170497435
151,1.54484507199174131778250734992429
152,1.54617450364009572753424353402295
153,1.54749521197906499134900850941824
154,1.54880731077836454042444629820227
155,1.55011091159610703073628042214587
156,1.55140612383576629118558320017010
157,1.55269305480131779002505160484275
158,1.55397180975062743763840613225075
159,1.5552424919471523984788839690529
160,1.5565052027100202496770705080818
161,1.5577600414625449824097248976508
162,1.5590071057792393071014598172342
163,1.5602464914313781157291774243619
164,1.5614782924311677377949086365825
165,1.5627026010745695901552431509576
166,1.5639195079828287362665999821679
167,1.5651291021427545871364362735939
168,1.5663314709457964328645031107642
169,1.5675267002259588668351804272383
170,1.5687148742965968456473759616709
171,1.5698960759861305792130895870746
172,1.5710703866727181176533225407295
173,1.5722378863179210372924783751962
174,1.5733986534993990692358941631147
175,1.5745527654426676554339567481936
176,1.5757002980519481385561398014863
177,1.5768413259401438461829474697088
178,1.5779759224579712236824089195079
179,1.5791041597222724606873888836671
180,1.5802261086435405575430781985186
181,1.5813418389526794802812127208045
182,1.5824514192270270994767550049805
183,1.5835549169156639622313227779646
184,1.5846523983640321387897126156143
185,1.5857439288378859518830731358629
186,1.5868295725465955573880528405199
187,1.5879093926658271767696127109121
188,1.5889834513596154175916229153205
189,1.5900518098018514131528343652586
190,1.5911145281972024322925867722830
191,1.5921716658014821818843525431960
192,1.5932232809414881841857795909710
193,1.5942694310343245328581743972489
194,1.5953101726062233684025133102109
195,1.5963455613108830053345122991169
196,1.5973756519473364029620448529277
197,1.5984004984773643550486413442292
198,1.5994201540424675603047944319126
199,1.6004346709804104075231165850511
200,1.6014441008413504155188454338467
201,1.6024484944035643042550266407011
202,1.6034479016887840732644035913453
203,1.6044423719771537420504134389473
204,1.6054319538218183673294954552881
205,1.6064166950631553024272319278041
206,1.6073966428426607175259174822733
207,1.6083718436164972513895046913757
208,1.6093423431687170159712344924918
209,1.6103081866241656967321237821768
210,1.6112694184610792442698895454498
211,1.6122260825233805162153817941671
212,1.6131782220326860965192005292600
213,1.6141258796000276700170623498271
214,1.6150690972373029279580726491472
215,1.6160079163684552107211624624885
216,1.6169423778403958421709326532602
217,1.6178725219336731146888398518009
218,1.6187983883728968973232859512863
219,1.6197200163369221399882389927482
220,1.6206374444688037818314298415040
221,1.6215507108855209660554829716640
222,1.6224598531874877585506681028225
223,1.6233649084678439311635753617779
224,1.6242659133215408688930474264831
225,1.6251629038542251575488938924664
226,1.6260559156909233898069786583016
227,1.6269449839845368325001009993427
228,1.6278301434241477653367076536611
229,1.6287114282431446431834690037531
230,1.6295888722271707681408764433927
231,1.6304625087218982606669292886553
232,1.6313323706406377386543199927605
233,1.6321984904717786899499581262611
234,1.6330609002860766843671386950067
235,1.6339196317437805962743475129893
236,1.6347747161016095365131437076229
237,1.6356261842195831137558176774103
238,1.6364740665677067562972002229452
239,1.6373183932325175298436903492288
240,1.6381591939234926046989982037685
241,1.6389964979793246536771009237249
242,1.6398303343740670366742950790686
243,1.6406607317231528026546805849514
244,1.6414877182892891972658500223174
245,1.6423113219882320491762620447662
246,1.6431315703944425536821047309620
247,1.6439484907466278353490124318407
248,1.6447621099531728702228894579197
249,1.6455724545974587361048720553783
250,1.6463795509430775749907395229212
251,1.6471834249389421670812938713554
252,1.6479841022242929142580422108613
253,1.6487816081336073046217997394209
254,1.6495759677014115143458621187335
255,1.6503672056669980262673604473354
256,1.6511553464790493499781802545648
257,1.6519404143001742341541354062161
258,1.6527224330113528151755793287299
259,1.6535014262162975048841208081242
260,1.6542774172457300031744714807338
261,1.6550504291615747484729285853782
262,1.6558204847610735308285456129148
263,1.6565876065808201174985569002693
264,1.6573518169007203411798386583509
265,1.6581131377478761754133879627101
266,1.6588715909003959641930822010308
267,1.6596271978911340183098186223881
268,1.6603799800113596114290512306585
269,1.6611299583143596450996962757021
270,1.6618771536189707061176791921914
271,1.6626215865130497994792553865721
272,1.6633632773568777357670419531538
273,1.6641022462865026153615037742324
274,1.6648385132170206177741398328754
275,1.6655720978457979709600467522536
276,1.6663030196556323782406078149762
277,1.6670312979178613861282196513849
278,1.6677569516954094469790863597050
279,1.6684799998457851789202525889793
280,1.6692004610240209158990550726466
281,1.6699183536855624366598647307682
282,1.6706336960891063688982559545676
283,1.6713465062993884810211493678606
284,1.6720568021899200180296522860232
285,1.6727646014456788887676015420172
286,1.6734699215657517292625548726011
287,1.6741727798659319014325993139382
288,1.6748731934812698289167763547521
289,1.6755711793685803180751556636042
290,1.6762667543089075966679475625760
291,1.6769599349099459111358061170374
292,1.6776507376084185673697584908532
293,1.6783391786724193207270952297389
294,1.6790252742037111521902671138769
295,1.6797090401399845177948434908927
296,1.6803904922570826568690151512127
297,1.6810696461711838907912382473681
298,1.6817465173409502289989075071604
299,1.6824211210696390850855806823498
300,1.6830934725071798535718016309326
301,1.6837635866522157587664825504918
302,1.6844314783541130686308010861433
303,1.6850971623149348467531388157624
304,1.6857606530913828199430899157477
305,1.6864219650967087899508180254878
306,1.6870811126025948525103741372259
307,1.6877381097409996056598689421140
308,1.6883929705059778257660744681210
309,1.6890457087554697005183088724508
310,1.6896963382130599540371121248275
311,1.6903448724697104589999001965813
312,1.6909913249854638489154238509289
313,1.6916357090911195232950427287059
314,1.6922780379898838499938539257169
315,1.6929183247589938843640698287334
316,1.6935565823513159808620766574406
317,1.6941928235969168357134465453253
318,1.6948270612046123118806896713091
319,1.6954593077634911878948384339717
320,1.6960895757444138318089284784052
321,1.6967178775014897192069687312987
322,1.6973442252735299096994131735470
323,1.6979686311854779959431750478707
324,1.6985911072498185023261552275345
325,1.6992116653679644952963761789811
326,1.6998303173316226425620717690285
327,1.7004470748241385419180698786846
328,1.7010619494218195088924774225226
329,1.7016749525952397980720749309033
330,1.7022860957105246897721099747845
331,1.7028953900306148806263859123868
332,1.7035028467165122393214246701955
333,1.7041084768285073060117303442956
334,1.7047122913273867194218230184633
335,1.7053143010756248865490604989567
336,1.7059145168385559530009965920029
337,1.7065129492855289461948412845060
338,1.7071096089910471502530103657725
339,1.7077045064358877770832574020880
340,1.7082976520082080249658463870536
341,1.7088890560046332382070591640992
342,1.7094787286313296649901697122167
343,1.7100666800050614511951774492192
344,1.7106529201542318638757917557520
345,1.7112374590199105637102819694343
346,1.7118203064568444012026192980925
347,1.7124014722344553019742779537362
348,1.7129809660378220528532811069915
349,1.7135587974686495336663853596610
350,1.7141349760462229370576663307886
351,1.7147095112083490639189813160038
352,1.7152824123122843767803888155285
353,1.7158536886356490955206300336279
354,1.7164233493773287498576244207150
355,1.7169914036583635538850068071619
356,1.7175578605228238124272209621932
357,1.7181227289386745982408467015668
358,1.7186860177986289440531907479354
359,1.7192477359209852945669668617897
360,1.7198078920504581563408822305048
361,1.7203664948589936904054618453240
362,1.7209235529465767292051749743329
363,1.7214790748420238134716525930210
364,1.7220330690037672730129642052591
365,1.7225855438206285877787741359016
366,1.7231365076125799068625750106666
367,1.7236859686314966174446192768189
368,1.7242339350618977523974145498330
369,1.7247804150216788690922079310417
370,1.7253254165628331125760064630181
371,1.7258689476721633164214540908980
372,1.7264110162719840977239853053775
373,1.7269516302208139129553449238919
374,1.7274907973140613831482912979171
375,1.7280285252846965799765090015321
376,1.7285648218039187289410004157288
377,1.7290996944818121188680999506908
378,1.7296331508679933851256647492147
379,1.7301651984522520063547787209530
380,1.7306958446651807714764790456167
381,1.7312250968787990924051508970673
382,1.7317529624071662806332682707502
383,1.7322794485069894623449087313335
384,1.7328045623782210957532414515035
385,1.7333283111646497119129670613127
386,1.7338507019544845376536547526924
387,1.7343717417809297499657721153785
388,1.7348914376227522986307345939759
389,1.7354097964048439717740154273081
390,1.7359268249987748934396665760137
391,1.7364425302233387701186090642979
392,1.7369569188450934945991395385645
393,1.7374699975788945806170368625001
394,1.7379817730884200093927579154775
395,1.7384922519866893449185179755805
396,1.7390014408365767688531979222044
397,1.7395093461513176649226011683629
398,1.7400159743950087609493508760096
399,1.7405213319831003942930934825056
400,1.7410254252828852006482359571222
401,1.7415282606139792751081023411434
402,1.7420298442487965507016102131804
403,1.7425301824130192151312411142952
404,1.7430292812860620587915952412014
405,1.7435271470015282195024930127474
406,1.7440237856476624329811762002490
407,1.7445192032677989057621510241538
408,1.7450134058608013137483990728871
409,1.7455063993814977874600930727158
410,1.7459981897411133984483731140208
411,1.7464887828076944068816856459221
412,1.7469781844065278528829042119326
413,1.7474664003205575706666172356858
414,1.7479534362907930493113825752925
415,1.7484392980167154241189777346045
416,1.7489239911566770281832903996896
417,1.7494075213282973526450193929558
418,1.7498898941088525788590592462399
419,1.7503711150356629609748911959171
420,1.7508511896064730408429384395718
421,1.7513301232798286474196845870306
422,1.7518079214754499622643499302156
423,1.7522845895745984872575084532330
424,1.7527601329204415282556227283211
425,1.7532345568184105740316393799927
426,1.7537078665365571773313320635241
427,1.7541800673059038226647174036670
428,1.7546511643207897945094449270628
429,1.7551211627392159583029207841901
430,1.7555900676831813163176300833434
431,1.7560578842390188420626578429679
432,1.7565246174577277427136774038170
433,1.7569902723552974874568348694288
434,1.7574548539130346996710461868212
435,1.7579183670778807366110199868255
436,1.7583808167627278575679742654005
437,1.7588422078467321418647587092212
438,1.7593025451756221387364132373319
439,1.7597618335620039303869127510779
440,1.7602200777856636794209577376963
441,1.7606772825938648204901180676059
442,1.7611334527016434597846473676475
443,1.7615885927921016300516436533137
444,1.7620427075166930204950101680058
445,1.7624958014955105122012414734099
446,1.7629478793175665434231379206865
447,1.7633989455410734738750975945946
448,1.7638490046937171662244839131408
449,1.7642980612729316252667733748735
450,1.7647461197461668472090597515412
451,1.7651931845511573821383893954560
452,1.7656392600961844510058471879828
453,1.7660843507603373601800066024328
454,1.7665284608937706025006511138811
455,1.7669715948179602686868078771925
456,1.7674137568259550660787265277537
457,1.7678549511826266404028843337105
458,1.7682951821249155964362836012275
459,1.7687344538620757314760846827922
460,1.7691727705759161239374256473297
461,1.7696101364210389267848281984484
462,1.7700465555250760788266673902704
463,1.7704820319889235376243342601727
464,1.7709165698869711949006301446213
465,1.7713501732673324431622986858701
466,1.7717828461520705242131043710902
467,1.7722145925374209400519604238995
468,1.7726454163940149417761815110348
469,1.7730753216670965731645877923557
470,1.7735043122767407934600089788549
471,1.7739323921180669464356460166640
472,1.7743595650614518733353923344142
473,1.7747858349527380205676022683662
474,1.7752112056134440461238837434468
475,1.7756356808409668474543649028284
476,1.7760592644087875245820546511718
477,1.7764819600666716114287594310222
478,1.7769037715408682513173229730540
479,1.7773247025343072060094702339333
480,1.7777447567267940928356864518706
481,1.7781639377752024007662997305933
482,1.7785822493136658541852760329408
483,1.7789996949537665043364721279537
484,1.7794162782847213681712762007324
485,1.7798320028735690914445736709877
486,1.7802468722653512208252044038773
487,1.7806608899832949337733410081114
488,1.7810740595289918226422726394995
489,1.7814863843825759610730426190677
490,1.7818978680028991156970450675208
491,1.7823085138277052373133343402419
492,1.7827183252738028196130048726537
493,1.7831273057372351003410711630481
494,1.7835354585934491988156403026491
495,1.7839427871974623821783480191351
496,1.7843492948840287046732341354395
497,1.7847549849678017053478585071424
498,1.7851598607434971093023881322153
499,1.7855639254860530296766929462913
500,1.785967182450789800714553354605
501,1.786369634873565187780833680964
502,1.786771285970932429345908329999
503,1.787172138940292578894144312596
504,1.787572196960048990421404604955
505,1.787971463189756794810531607022
506,1.788369940770273096991807937872
507,1.788767632823905741732414801290
508,1.789164542454560287827461869267
509,1.789560672747883421391141785067
510,1.789956026771408861291416408989
511,1.790350607574698987609065441709
512,1.790744418189486093118918858397
513,1.791137461629811873332255491997
514,1.791529740892165831364646552846
515,1.791921258955622971730770267506
516,1.792312018781978993256773392728
517,1.792702023315884055704267881071
518,1.793091275484976905348179307015
519,1.793479778200016141307930851070
520,1.793867534355011479493606782013
521,1.794254546827351809252499854569
522,1.794640818477934318776517753839
523,1.795026352151291126286264772848
