Eigenstate,Potential Energy
1,0.500000002549937202017367764924297412
2,0.64623095429675720509601994931997638
3,0.73633765860468426147934843599536463
4,0.79966537967952592613354165695969147
5,0.8480467517654196028163718636475871
6,0.8870662700100899624845000011032518
7,0.9197212160505285954041475418368340
8,0.9477843763842444654657570567183257
9,0.9723842501042192356642744336580416
10,0.9942810914308818782478131544115635
11,1.0140104705712481607356207660428401
12,1.0319634828946271725941599597404149
13,1.0484342585327180882888165419957339
14,1.0636494952372280864181731846065092
15,1.0777875741949509902187186789873409
16,1.090991364898789283017838479379548
17,1.103377058609649609597842785010592
18,1.115040419362920693278214459521774
19,1.126061307072659129997054183551416
20,1.136507015165689262086906388639274
21,1.146434776663434904892667759028825
22,1.155893675340775287110316824893646
23,1.164926123662673427555299714463388
24,1.173569020184694404672266479617846
25,1.181854666349023324243018837350070
26,1.189811500292142274353061380561243
27,1.197464689807494546163067163723802
28,1.204836615704613176720865321393213
29,1.211947269011162764101935661796350
30,1.218814579814855737449522097026798
31,1.225454691396265624443503706695312
32,1.231882190225660174372158874304338
33,1.238110300087329319477808225991038
34,1.244151046844336639778325212738916
35,1.250015399017427894003443677911069
36,1.255713388318351274390370405402140
37,1.261254213473759476012778130719579
38,1.266646330045444915424202298770631
39,1.271897528454810775553331375829370
40,1.277015002023659765292224039949525
41,1.282005406526632206211224806750151
42,1.286874912495632457131193913240012
43,1.291629251310096343884156231729943
44,1.296273755938858248985368185439401
45,1.300813397061806951031143304643474
46,1.305252815186383026140246670415488
47,1.309596349280494017400221617503186
48,1.313848062365837220822677760074446
49,1.318011764450957399927265987232811
50,1.32209103312924403562544375109237
51,1.32608923212160576448342378388229
52,1.33000952800521445363994331410402
53,1.33385490533726125226796105408849
54,1.33762818035510583879647059815830
55,1.34133201341072460202595494690927
56,1.34496892027728893623651589475620
57,1.34854128244850587803169820112546
58,1.35205135653655613985077765148445
59,1.35550128286171066198145674877168
60,1.35889309331568231217015844790024
61,1.36222871857120515017846560190824
62,1.36550999470203268608767151515538
63,1.36873866927030468960483510584356
64,1.37191640693191964607138793988244
65,1.37504479460501513427344058624777
66,1.37812534624181108245977077613822
67,1.38115950723980858912632080808331
68,1.38414865852458085691522068383368
69,1.38709412033308014110490818047279
70,1.38999715572345637095281415663223
71,1.39285897383478442497068763699978
72,1.39568073291779882667513907854612
73,1.39846354315568165044433608616861
74,1.40120846929213060960257354455379
75,1.40391653308230323057013083190208
76,1.40658871558078349474653974910920
77,1.40922595927941496800183083587832
78,1.41182917010667867806983628515075
79,1.41439921929924722101406150662556
80,1.41693694515540849546274753274503
81,1.41944315467920316752466051650933
82,1.42191862512335856706807158891064
83,1.42436410543841303342035385583843
84,1.42678031763480049100275570282288
85,1.42916795806410581664330660087146
86,1.43152769862518575570647700397469
87,1.43386018790039273790395322443390
88,1.43616605222671563425180747166330
89,1.43844589670626806705449212051552
90,1.44070030616021174507202958188951
91,1.44292984602988092576664078515027
92,1.44513506322858589583861680673493
93,1.44731648694731119855084349285023
94,1.44947462941728150577177933855952
95,1.45160998663214698306625374315543
96,1.45372303903233828514545639523744
97,1.45581425215395709524159654888277
98,1.45788407724439537363638249828555
99,1.45993295184672314274142391537264
100,1.46196130035473843882935594787147
101,1.46396953454044390912003701288698
102,1.46595805405558912116232643884808
103,1.46792724690880991185330418969887
104,1.46987748991978902461058931968364
105,1.47180914915176940810973330806926
106,1.47372258032366099819561008570422
107,1.47561812920290394989383672102232
108,1.47749613198017229016384113750486
109,1.47935691562693362907824710774930
110,1.48120079823681842618557840951173
111,1.48302808935168674698719747807704
112,1.48483909027323133196481807145497
113,1.48663409436090060958722891249913
114,1.48841338731687689712411346870564
115,1.49017724745880498260584404125812
116,1.49192594598091837738946014445161
117,1.49365974720417927618941732657016
118,1.49537890881600772599213252760159
119,1.49708368210014232546353950804225
120,1.49877431215714950993620632840276
121,1.50045103811606083066161160248853
122,1.50211409333759939422860163656830
123,1.50376370560942515904083649058367
124,1.50540009733381188853948108643337
125,1.50702348570813984111766293596574
126,1.50863408289857399557815027335436
127,1.51023209620727802571946275248993
128,1.51181772823349272638489711945648
129,1.51339117702879668733468755232700
130,1.51495263624684989675958314520059
131,1.51650229528790692911864689459299
132,1.51804033943837289220689559998920
133,1.51956695000566515630445768139156
134,1.52108230444863438743952696547008
135,1.52258657650378223340221229659866
136,1.52407993630751143490659726727887
137,1.52556255051463313211825801136724
138,1.52703458241334504487074821402989
139,1.52849619203689485630400821870555
140,1.52994753627213070310434585721547
141,1.53138876896513942773059434292760
142,1.53282004102416880631286000346693
143,1.53424150052002530426485753114100
144,1.53565329278413611723438586954090
145,1.53705556050446489373390556521364
146,1.53844844381946798480951359739458
147,1.53983208041027572847507910172528
148,1.54120660559129079561682137009717
149,1.54257215239938925626078831113497
150,1.54392885168191979012681713065478
151,1.54527683218369752108945305806320
152,1.54661622063319308417269831689876
153,1.54794714182812700923627080471562
154,1.54926971872068649651252629025981
155,1.55058407250258940832230662859233
156,1.55189032269023489135235160004588
157,1.55318858721018993331323445403944
158,1.55447898248528061908015192063583
159,1.5557616235215696423141274369158
160,1.5570366239965277813013132962074
161,1.5583040963487255984642113081508
162,1.5595641518694022903627041250990
163,1.5608169007962974906441115647488
164,1.5620624524101694206979393490162
165,1.5633009151344595148038731025201
166,1.5645323966386140264316810895623
167,1.5657570039456248601352056201841
168,1.5669748435444099133890585233419
169,1.5681860215077269101892261616752
170,1.5693906436163908405448344220037
171,1.5705888154906587804141333773082
172,1.5717806427297504340750353928524
173,1.5729662310605931393334650115324
174,1.5741456864970220577162457769055
175,1.5753191155108278586023538261704
176,1.5764866252162291320310716407301
177,1.5776483235695698998192711439133
178,1.5788043195862939942120097370016
179,1.5799547235775434854330334917179
180,1.5810996474090816713658591882618
181,1.5822392047856422122210583731936
182,1.5833735115642929155915562887545
183,1.5845026861009670623993693849263
184,1.5856268496349905255901316729531
185,1.5867461267172319797450409383917
186,1.5878606456884589084594493087664
187,1.5889705392156301133008284919679
188,1.5900759448952238177065619256047
189,1.5911770059343706774254663999789
190,1.5922738719225676369693151446625
191,1.5933666997092054223914429162836
192,1.5944556544051409048941918756535
193,1.5955409105302372084624372692874
194,1.5966226533333489072053604570344
195,1.5977010803168989469046429933380
196,1.5987764030052677507210074022070
197,1.5998488490051129765413318538732
198,1.6009186644169934894080859189607
199,1.6019861166720037890482776459909
200,1.6030514978855112097512395604637
201,1.6041151288438445017997164863616
202,1.6051773637707365044014128233320
203,1.6062385960609882339105034674201
204,1.6072992652227448625699173914620
205,1.6083598653419708061361424701294
206,1.6094209554804005396347143036549
207,1.6104831725519033569091295656302
208,1.6115472474073483717107277857643
209,1.6126140251178689434245106097212
210,1.6136844908162963740152062156563
211,1.6147598029912875619991796940293
212,1.6158413369150896242913787667349
213,1.6169307420641678225162441374793
214,1.6180300191941179187330124351804
215,1.6191416255504427333755173250316
216,1.6202686212240796638803243509688
217,1.6214148771398727911687563487009
218,1.6225853779305832342409762344600
219,1.6237866755574011192681682520598
220,1.6250275913367526392989582589308
221,1.6263203452839870341740480945301
222,1.6276824592975397205817842596780
223,1.6291401522042605216076735858254
224,1.6307348443645551566866189752789
225,1.6325368281921226171795913058342
226,1.6346778342933734637592940845832
227,1.6374439945924451879597472719515
228,1.6416305481744707374980402861642
229,1.6509553036265131606589989009877
