Eigenstate,Potential Energy
1,0.500000000020777308898844415023749296
2,0.64623093778673799596338482955536503
3,0.73633761010335788880327582684311680
4,0.79966527864402235502124042732617446
5,0.8480465767230381830146782571022768
6,0.8870659990944272675065162198344157
7,0.9197208271960577751207308466413990
8,0.9477838474047201922180369414261407
9,0.9723835587266067247325192808992177
10,0.9942802153102362777934958642894687
11,1.0140093872966128252145977814607268
12,1.0319621699903413735936394562238244
13,1.0484326934572112311578249918529425
14,1.0636476553803526271104505073916478
15,1.0777854368744186347429187539890124
16,1.090988907356028443004352872666055
17,1.103374258005270624494874477381138
18,1.115037252771901969952686202149261
19,1.126057751479324740305434760199469
20,1.136503047458522896804302717907795
21,1.146430373629759155581215392140169
22,1.155888813661315048868576309002996
23,1.164920779906015538906553685877914
24,1.173563170801651154362564263678170
25,1.181848287666904370673726739846332
26,1.189804568508937356592869154592224
27,1.197457180985967810160234181915523
28,1.204828505766308799626522425544010
29,1.211938533730320704322304820184842
30,1.218805194812235781847549346852336
31,1.225444632132877388355005230111972
32,1.231871431996396294323445785943260
33,1.238098818014498734346701211148151
34,1.244138815871094563510286463466011
35,1.250002393901098827390688956762413
36,1.255699583623641174297135113338748
37,1.261239583565852989970166886178632
38,1.266630849082983391901737867751158
39,1.271881170382746570998490858829493
40,1.276997740565982184825867765009844
41,1.281987215178960232999830353649154
42,1.286855764517669243828763929970434
43,1.291609119717940256425877915336971
44,1.296252613497165067036671173055621
45,1.300791216275797639352809844751531
46,1.305229568293691296010349875182393
47,1.309572008242847696155720755859731
48,1.313822598860567239729095048149987
49,1.317985149862327995230347367830367
50,1.32206323853959753408975643993443
51,1.32606022830231509230170578992061
52,1.32997928540743626568749323302057
53,1.33382339408248232661347970611437
54,1.33759537022547511853986181207062
55,1.34129787383916299226792325401104
56,1.34493342033736867763221571720154
57,1.34850439084409101926832479734545
58,1.35201304159119531879869072327491
59,1.35546151250777307850617502596847
60,1.35885183508322743386483342148224
61,1.36218593957657633479454876115904
62,1.36546566163616453039421769337855
63,1.36869274838673352288894205734858
64,1.37186886403448617660572689520009
65,1.37499559503524782782033853670682
66,1.37807445486597840226475944796438
67,1.38110688843562775575958869585769
68,1.38409427616757029262784144102144
69,1.38703793778254224582032832467679
70,1.38993913580807673441931147286202
71,1.39279907883783301045633495722010
72,1.39561892456191806460072641834318
73,1.39839978258724575387203272381018
74,1.40114271706515976597716365655586
75,1.40384874914191563377022138797324
76,1.40651885924616745657794439569244
77,1.40915398922630258671573495576647
78,1.41175504434930174133917998512340
79,1.41432289517175517978384800987576
80,1.41685837929272746090180324523965
81,1.41936230299731395342672097972056
82,1.42183544279897082184606113194160
83,1.42427854688801147646914200341015
84,1.42669233649303818466387085517774
85,1.42907750716151826406123439413650
86,1.43143472996519841313736474650804
87,1.43376465263559326378316018534171
88,1.43606790063436086273574167664071
89,1.43834507816299428658456357936409
90,1.44059676911591537833571949318642
91,1.44282353798073514146730801414545
92,1.44502593068915702986959225476088
93,1.44720447542173711700808588827719
94,1.44935968336947219890957360552691
95,1.45149204945496573154208336997747
96,1.45360205301571968104340370272219
97,1.45569015845191602314312720289777
98,1.45775681584087875382851097387996
99,1.45980246152025380111529381122771
100,1.46182751864179788736857863159137
101,1.46383239769753808746437540069931
102,1.46581749701993825336134498930630
103,1.46778320325760056203938323272610
104,1.46972989182792317905130688552213
105,1.47165792734804195617695442470543
106,1.47356766404529331742535049863266
107,1.47545944614835740567514298057798
108,1.47733360826016132268912735425485
109,1.47919047571355370170455352965325
110,1.48103036491069943167578966168096
111,1.48285358364707749104745318532793
112,1.48466043142091541530260080331752
113,1.48645119972883838673652162169040
114,1.48822617234846217715032631438575
115,1.48998562560861872565595136512584
116,1.49172982864785480213598773429851
117,1.49345904366181249389495768563691
118,1.49517352614005922193312732620043
119,1.49687352509290127955760338479177
120,1.49855928326868904381051151940112
121,1.50023103736208374294982898299533
122,1.50188901821373675008562732897085
123,1.50353345100180018014251436800136
124,1.50516455542566988751038344716872
125,1.50678254588233239548249419690029
126,1.50838763163567209128231520272405
127,1.50998001697907444259420044442759
128,1.51155990139163840432305846531962
129,1.51312747968829911107006849599879
130,1.51468294216414356894424329940677
131,1.51622647473318665621155468091580
132,1.51775825906185976508254419341977
133,1.51927847269745263535537238506115
134,1.52078728919173765467243896903165
135,1.52228487821998779180616781202398
136,1.52377140569559564185923483027970
137,1.52524703388048775432090357203841
138,1.52671192149151480293054241589657
139,1.52816622380299605039377714441738
140,1.52961009274558111502848736205333
141,1.53104367700158748892785787823439
142,1.53246712209696418396064535149284
143,1.53388057049002323175955403354668
144,1.53528416165707358421155159954044
145,1.53667803217508777320495420602898
146,1.53806231580152381963710620784019
147,1.53943714355141667872058369010209
148,1.54080264377185455059234113087841
149,1.54215894221394185715611685444042
150,1.54350616210235252601113628631911
151,1.54484442420256949569634634843047
152,1.54617384688590074139486156866413
153,1.54749454619236077076654860229406
154,1.54880663589150148912470098479781
155,1.55011022754127066992303112361808
156,1.55140543054497589688905018772377
157,1.55269235220642502437997960849260
158,1.55397109778331497403476440803789
159,1.5552417705389325405277864081874
160,1.5565044717922335439342292059018
161,1.5577593009663588247981932513778
162,1.5590063556356465429751233556329
163,1.5602457315711956335180577861167
164,1.5614775227850350561728314495775
165,1.5627018215729474386700385095326
166,1.5639187185559976293726492980278
167,1.5651283027208133915688778385591
168,1.5663306614586609282939596662305
169,1.5675258806033602997415539884313
170,1.5687140444680804763506071243081
171,1.5698952358810542219985798311839
172,1.5710695362202506739290439125410
173,1.5722370254470410217145148589115
174,1.5733977821388931287385540246320
175,1.5745518835211290811002332545509
176,1.5756994054977753702637959078048
177,1.5768404226815389699609857232538
178,1.5779750084229384617122662793608
179,1.5791032348386166538826823902957
180,1.5802251728388656406412241301779
181,1.5813408921543869493797721737895
182,1.5824504613623144719468462271271
183,1.5835539479115232289399513410105
184,1.5846514181472482085623352467093
185,1.5857429373350350881371273510100
186,1.5868285696840438068679046973137
187,1.5879083783697287903125025189636
188,1.5889824255559112628539403885572
189,1.5900507724162673792253968299386
190,1.5911134791552478261330207688271
191,1.5921706050284481164942021237444
192,1.5932222083624459584593711937634
193,1.5942683465741240030297053642973
194,1.5953090761894913110172756506904
195,1.5963444528620214716695861952224
196,1.5973745313905210648211906829203
197,1.5983993657365428418556294125771
198,1.5994190090413577874186597809755
199,1.6004335136424988956983519001436
200,1.6014429310898906014329205130173
201,1.6024473121615748420250063119026
202,1.6034467068790471268737550203118
203,1.6044411645222132686065786987211
204,1.6054307336439783910721073484812
205,1.6064154620844781794062319792094
206,1.6073953969849653908681746813636
207,1.6083705848013574970719281415194
208,1.6093410713174596790176611020468
209,1.6103069016578689177506218401291
210,1.6112681203005706762464801280661
211,1.6122247710892355314794391109789
212,1.6131768972452259837951771292100
213,1.6141245413793178214764346126365
214,1.6150677455031510161847025876727
215,1.6160065510404093555026752775590
216,1.6169409988377427670277908696186
217,1.6178711291754362930522912826587
218,1.6187969817778346882725013176733
219,1.6197185958235259134562134561679
220,1.6206360099552960331885809519701
221,1.6215492622898534199789993550225
222,1.6224583904273394620870180656141
223,1.6233634314606193358907446384238
224,1.6242644219843679020883175006748
225,1.6251613981039532822671379915625
226,1.6260543954441216537737974567655
227,1.6269434491574919057231893356365
228,1.6278285939328619663380417606639
229,1.6287098640033339537542065655361
230,1.6295872931542628365198507103623
231,1.6304609147310303930429506632788
232,1.6313307616466548788915655704555
233,1.6321968663892313874348913390393
234,1.6330592610292190498744944080231
235,1.6339179772265682457490221674202
236,1.6347730462376975226637117534175
237,1.6356244989223238453546570541325
238,1.6364723657501479050812672897795
239,1.6373166768073999249091034992708
240,1.6381574618032481142815745494612
241,1.6389947500760740542102202866363
242,1.6398285705996178690144253727066
243,1.6406589519889972153638864440484
244,1.6414859225066017768398419561776
245,1.6423095100678676371054218344364
246,1.6431297422469340502319117593936
247,1.6439466462821839899455320316373
248,1.6447602490816760583276801287727
249,1.6455705772284627224629030923250
250,1.6463776569858052631337844543713
251,1.6471815143022833349682011244312
252,1.6479821748168019359323347861353
253,1.6487796638635008577659936416218
254,1.6495740064765662736106431814754
255,1.6503652273949483422529859826484
256,1.6511533510669849137441543278107
257,1.6519384016549377271321503553546
258,1.6527204030394375443596310642591
259,1.6534993788238450231707275790126
260,1.6542753523385277147245102932242
261,1.6550483466450534989655051178797
262,1.6558183845403051824765106127361
263,1.6565854885605151086935182080116
264,1.6573496809852252306339036651393
265,1.6581109838411711706632845751285
266,1.6588694189060924343313135889519
267,1.6596250077124719908061213900872
268,1.6603777715512052529042751975172
269,1.6611277314752027259130811413938
270,1.6618749083029220486270141997097
271,1.6626193226218387098322813954177
272,1.6633609947918494190810208949211
273,1.6640999449486155741468206676698
274,1.6648361930068440334562737698758
275,1.6655697586635090683530210121690
276,1.6663006614010137728235168921039
277,1.6670289204902984139753599855464
278,1.6677545549938874771924069426780
279,1.6684775837688869084120429531358
280,1.6691980254699236463707767817167
281,1.6699158985520353336219078552572
282,1.6706312212735077025740666488681
283,1.6713440116986628489773574605029
284,1.6720542877005955493728894200687
285,1.6727620669638644297465248831782
286,1.6734673669871340101127843814144
287,1.6741702050857726843002525602447
288,1.6748705983944030366948998397246
289,1.6755685638694091439860017150774
290,1.6762641182914015944221983544936
291,1.6769572782676380654982708015982
292,1.6776480602344023449596124221567
293,1.6783364804593457008792312701509
294,1.6790225550437856377020333013229
295,1.6797062999249641253817564261296
296,1.6803877308782728871506078491103
297,1.6810668635194356776265724655552
298,1.6817437133066568679900671963667
299,1.6824182955427331410652278653791
300,1.6830906253771300468892574854228
301,1.6837607178080238301850196149363
302,1.6844285876843106226472991220154
303,1.6850942497075801731488681267607
304,1.6857577184340576933732102485594
305,1.6864190082765152473777512999182
306,1.6870781335061519482848253685706
307,1.6877351082544401440508955461782
308,1.6883899465149450707401988298379
309,1.6890426621451140625651210568904
310,1.6896932688680356538375489914204
311,1.6903417802741721677307862527740
312,1.6909882098230633049821387797517
313,1.6916325708450021252821569152657
314,1.6922748765426852256215277606786
315,1.6929151399928364352357405802431
316,1.6935533741478054027871366935296
317,1.6941895918371386143864007679949
318,1.6948238057691281936958246551663
319,1.6954560285323356256738780115747
320,1.6960862725970904052162839486589
321,1.6967145503169675296256833637175
322,1.6973408739302399493377124955949
323,1.6979652555613094909404444490063
324,1.6985877072221152296237419264208
325,1.6992082408135210730370008674069
326,1.6998268681266807937790744334431
327,1.7004436008443833312731518963423
328,1.7010584505423755522186884991563
329,1.7016714286906674444756541829884
330,1.7022825466548161760450599679150
331,1.7028918156971904577185974340710
332,1.7034992469782162706188685888046
333,1.7041048515576043371649188134342
334,1.7047086403955575194656973851964
335,1.7053106243539624600532544923069
336,1.7059108141975615229864384800628
337,1.7065092205951079075504783029495
338,1.7071058541205049933830197839260
339,1.7077007252539259815132019687541
340,1.7082938443829199226329435388110
341,1.7088852218034998461567963905753
342,1.7094748677212154871993491717974
343,1.7100627922522102492378574695877
344,1.7106490054242623961462336670382
345,1.7112335171778122929137294159189
346,1.7118163373669731698220346799183
347,1.7123974757605289754181085001293
348,1.7129769420429161299859820567631
349,1.7135547458151927244210173247582
350,1.7141308965959927068258835249539
351,1.7147054038224671444115646141284
352,1.7152782768512122430474257147280
353,1.7158495249591834088178960730686
354,1.7164191573445967660419633202192
355,1.7169871831278184970186704395817
356,1.7175536113522402132671764098105
357,1.7181184509851435972864057829730
358,1.7186817109185535588214946827321
359,1.7192433999700756507623893016160
360,1.7198035268837266825810923168175
361,1.7203621003307502761630552949756
362,1.7209191289104238456207167050384
363,1.7214746211508515966897583436771
364,1.7220285855097485696899235002352
365,1.7225810303752139624059315423512
366,1.7231319640664926105465324418940
367,1.7236813948347275177811514708880
368,1.7242293308637002240719785152801
369,1.7247757802705636448368210913001
370,1.7253207511065630941071414265581
371,1.7258642513577483449809084533854
372,1.7264062889456756838393235124073
373,1.7269468717280999250336355980621
374,1.7274860074996606945118336671233
375,1.7280237039925536739457928590817
376,1.7285599688771982615650846819927
377,1.7290948097628934388989180838141
378,1.7296282341984650108283807147843
379,1.7301602496729060587414773892376
380,1.7306908636160073635467557007108
381,1.7312200833989806739718885854866
382,1.7317479163350719383077681938525
383,1.7322743696801691742508548387135
384,1.7327994506333999405345185429479
385,1.7333231663377220315947468332162
386,1.7338455238805080539127970502704
387,1.7343665302941196333604241566364
388,1.7348861925564751903348448340938
389,1.7354045175916119573573402547580
390,1.7359215122702394282285695059928
391,1.7364371834102845556682597620435
392,1.7369515377774323058022700777649
393,1.7374645820856590429693030441136
394,1.7379763229977573259295005063534
395,1.7384867671258549723321886975252
396,1.7389959210319280422954521560243
397,1.7395037912283073709895286106165
398,1.7400103841781786583428429581869
399,1.7405157062960746816453833637126
400,1.7410197639483639309914719225961
401,1.7415225634537317164646428387779
402,1.7420241110836544922648868359710
403,1.7425244130628702185013017884275
404,1.7430234755698426537233193602995
405,1.7435213047372170436186204252481
406,1.7440179066522733148956907797036
407,1.7445132873573738910537898642174
408,1.7450074528504036332174969441324
409,1.7455004090852047670956212530943
410,1.7459921619720093105256505109325
411,1.7464827173778632616044324780919
412,1.7469720811270461299771476323764
413,1.7474602590014868903268117215792
414,1.7479472567411727818922299521427
415,1.7484330800445552379600449843102
416,1.7489177345689493749459229443456
417,1.7494012259309298895347415528212
418,1.7498835597067205270982302181513
419,1.7503647414325813998846911798234
420,1.7508447766051891368850688380251
421,1.7513236706820138175414439724686
422,1.7518014290816919708832133053008
423,1.7522780571843934762129017435080
424,1.7527535603321859790489388619371
425,1.7532279438293932016669602259595
426,1.7537012129429507550615814027519
427,1.7541733729027569369397984743276
428,1.7546444289020185294149406660848
429,1.7551143860975955087695318897282
430,1.7555832496103375293732576200065
431,1.7560510245254196853901759968719
432,1.7565177158926746997695218346608
433,1.7569833287269168783959351697233
434,1.7574478680082689273157910752244
435,1.7579113386824794566919819052414
436,1.7583737456612390724557408506608
437,1.7588350938224932170028883732002
438,1.7592953880107507409760274266453
439,1.7597546330373888874138680491774
440,1.7602128336809557594577268829033
441,1.7606699946874674314438268774629
442,1.7611261207707032670036086924407
443,1.7615812166124990918423451568461
444,1.7620352868630328405416796589008
445,1.7624883361411120080195783508414
446,1.7629403690344539299699632839954
447,1.7633913900999660614246555871929
448,1.7638414038640194716114152474447
449,1.7642904148227233955857400253194
450,1.7647384274421929950489001786480
451,1.7651854461588178314187627944964
452,1.7656314753795238924720670493359
453,1.7660765194820349156013054043362
454,1.7665205828151293966047455035863
455,1.7669636696988969078521811156262
456,1.7674057844249890227945707418022
457,1.7678469312568695424939083465814
458,1.7682871144300604200380817870786
459,1.7687263381523858967336944333355
460,1.7691646066042144923879606115211
461,1.7696019239386966993713401680320
462,1.7700382942820015934786921825020
463,1.7704737217335509653262255274430
464,1.7709082103662491331565036955572
465,1.7713417642267124057528256577123
466,1.7717743873354953261249818281974
467,1.7722060836873129764482840704403
468,1.7726368572512643598605200874822
469,1.7730667119710493357789390006144
470,1.7734956517651866332409575777619
471,1.7739236805272272093394351294681
472,1.7743508021259672503269511699767
473,1.7747770204056561662545230112094
474,1.7752023391862070831000794770746
475,1.7756267622633987551034956894158
476,1.7760502934090814110747127017941
477,1.7764729363713768676313296474728
478,1.7768946948748775853148741752657
479,1.7773155726208435569281097109962
480,1.7777355732873974226336695346202
481,1.7781547005297163626459106008280
482,1.7785729579802243362608159773036
483,1.7789903492487800471762233734786
484,1.7794068779228634548133184475050
485,1.7798225475677623084694386872981
486,1.7802373617267532890492998131833
487,1.7806513239212846071095242173363
488,1.7810644376511546536546180449978
489,1.7814767063946899317348832068793
490,1.7818881336089201318407809691239
491,1.7822987227297524852428482147757
492,1.7827084771721439833284585985930
493,1.7831174003302714378063997326022
494,1.7835254955777004756787698884686
495,1.7839327662675516613334057778503
496,1.7843392157326669900328811715656
497,1.7847448472857724381734792021279
498,1.7851496642196405154175135530137
499,1.7855536698072503158677298690194
500,1.785956867301947198600390311491
501,1.786359259937597843410638026352
502,1.786760850928748136761296054972
503,1.787161643470775355869486953238
504,1.787561640740042494571655267610
505,1.787960845894047578232216633415
506,1.788359262071573697579426368918
507,1.788756892392837609287101589313
508,1.789153739959636543049746047413
509,1.789549807855491445824909187684
510,1.789945099145792716260517759792
511,1.790339616877941660161248257971
512,1.790733364081491566965507815425
513,1.791126343768287022745572498258
514,1.791518558932602135967525407932
515,1.791910012551278050084825092428
516,1.792300707583857953127629991850
517,1.792690646972720658854524274325
518,1.793079833643214544678295100455
519,1.793468270503788628137139171319
520,1.793855960446123638742311570229
521,1.794242906345259880257784577547
522,1.794629111059726159440937709750
523,1.795014577431666218229490846035
