Eigenstate,Potential Energy
1,0.500000000017330890850730383889420329
2,0.64623093776424159669952647874690949
3,0.73633761003727663015150505970325595
4,0.79966527850638292101234363676249711
5,0.8480465764846191403664542447724434
6,0.8870659987254961685730094532601485
7,0.9197208266666428609582175755149809
8,0.9477838466847238103166961304190023
9,0.9723835577858581660382869086141334
10,0.9942802141185186838141422665072609
11,1.0140093858236778885643811364612818
12,1.0319621682059178183157068487042267
13,1.0484326913310099067892853026124107
14,1.0636476528820696540052634377224191
15,1.0777854339737373738089504010252374
16,1.090988904022620727047662745732437
17,1.103374254208797509300022829980362
18,1.115037248482014163335953709542873
19,1.126057746665662809386669339800819
20,1.136503042090717318874675397259671
21,1.146430367677430256316642676786340
22,1.155888807094072857846777278835981
23,1.164920772693459583369419835936858
24,1.173563162913370206137700569259895
25,1.181848279072476157056599977163385
26,1.189804559177928243133164097115526
27,1.197457170887932461276327740234758
28,1.204828494870789821522477344974418
29,1.211938522006848273626643474832727
30,1.218805182230327262614913460559850
31,1.225444618662036939490949312429597
32,1.231871417606114469054154796857108
33,1.238098802674252073020988467736179
34,1.244138799550345180763657607045037
35,1.250002376569293994501078593298499
36,1.255699565250212897405028003673288
37,1.261239564120217584711860497952909
38,1.266630828534541054905840195627499
39,1.271881148700880948616669002851708
40,1.276997717720059939405046550279509
41,1.281987191138330606951234403282079
42,1.286855739251663621706878501266808
43,1.291609093195871725195642611695020
44,1.296252585688327974678526964609180
45,1.300791187149467151931397696809301
46,1.305229537819122953312793744702012
47,1.309571976389276965988797793878449
48,1.313822565597209070950580393225885
49,1.317985115158376369578000188843449
50,1.32206320236422501686137752814395
51,1.32606019062467238193114314138421
52,1.32997924619665174225417022894052
53,1.33382335330766159931675587468050
54,1.33759532785570057216413603403433
55,1.34129782984349333265973293972061
56,1.34493337468483847620654939811550
57,1.34850434350371025655786017418210
58,1.35201299253194892705660426830821
59,1.35546146169862048337050347958355
60,1.35885178249310209509002372486507
61,1.36218588517438528605376624176897
62,1.36546560539078791815417053939816
63,1.36869269026702414435736731153442
64,1.37186880400926901675027270251616
65,1.37499553307331959545629457586688
66,1.37807439093610706520797429800327
67,1.38110682250655207503989863471131
68,1.38409420820799935575743650192381
69,1.38703786776115499911066385132935
70,1.38993906369352151433946074358972
71,1.39279900459872707402499812110774
72,1.39561884816684711880354026101519
73,1.39839970400476348409526224215454
74,1.40114263626378736344838180822863
75,1.40384866609014132199612985659304
76,1.40651877391244601676907147459570
77,1.40915390157905488218738355106694
78,1.41175495435691424087764826674314
79,1.41432280280257947996662330887818
80,1.41685828451507980736013821522841
81,1.41936220577947476103872844939039
82,1.42183534310918419384821179282717
83,1.42427844469448472247381294597128
84,1.42669223176394133757036612242639
85,1.42907739986498359584749183198072
86,1.43143462006931994951938524733963
87,1.43376454010842629772898454879851
88,1.43606778544392146682064407508510
89,1.43834496027725882417396188223765
90,1.44059664850282001358214936859176
91,1.44282341460817534810764001333372
92,1.44502580452498709880855714620646
93,1.44720434643376966267400950250054
94,1.44935955152547766436810227585414
95,1.45149191472267189235355150538793
96,1.45360191536281114784937431812387
97,1.45569001784603374296750840637559
98,1.45775667224961951007854228686952
99,1.45980231491116971226757896723209
100,1.46182736898239590432523679049730
101,1.46383224495527948956426464002749
102,1.46581734116223814303120938702780
103,1.46778304425182735806968546369932
104,1.46972972964139810848137076900171
105,1.47165776194803854477398050123880
106,1.47356749539903687874173730814412
107,1.47545927422302452866846253655950
108,1.47733343302287935788901320048121
109,1.47919029713140024591062923122296
110,1.48103018295070181117071550886425
111,1.48285339827621224330903083484773
112,1.48466024260610776919880613452267
113,1.48645100743696174118723155740028
114,1.48822597654633757823941191627585
115,1.48998542626301434217731375849899
116,1.49172962572548539955701313686726
117,1.49345883712933890672079309041124
118,1.49517331596408782445504696167146
119,1.49687331123998345496868207093571
120,1.49855906570532065167170001854481
121,1.50023081605470458498943277612118
122,1.50188879312873003431510623666570
123,1.50353322210549198327140699483624
124,1.50516432268432861564308084940891
125,1.50678230926216824307947801247818
126,1.50838739110283649836838417116430
127,1.50997977249965955019610731467181
128,1.51155965293167650811887787820860
129,1.51312722721376211323252506369553
130,1.51468268564094242816012469786670
131,1.51622621412717083585923293873019
132,1.51775799433881667954951301271838
133,1.51927820382310709447765000783141
134,1.52078701613175130627752208205200
135,1.52228460093995856234116229154552
136,1.52377112416105717508567616678622
137,1.52524674805690884805765817723970
138,1.52671163134429884382609073270808
139,1.52816592929748044670907072863447
140,1.52960979384703672741144348652534
141,1.53104337367521805916048373370569
142,1.53246681430790576165964044677113
143,1.53388025820334359901114137204742
144,1.53528384483777167812116595847841
145,1.53667771078809310634233126794194
146,1.53806198981169589835718582096938
147,1.53943681292354441934046883396962
148,1.54080230847065569340456134396160
149,1.54215860220406237825822188276372
150,1.54350581734836604693155546107661
151,1.54484407466897669079637225069619
152,1.54617349253712874302642325615386
153,1.54749418699276257216536128318817
154,1.54880627180535534501827308545443
155,1.55010985853277949483283533635013
156,1.55140505657826666110610283823991
157,1.55269197324554814759286183147026
158,1.55397071379224371658907257508230
159,1.5552413814815623922958497206335
160,1.5565040776323816107737458498369
161,1.5577589016677632125783926079000
162,1.5590059511619657391488562398156
163,1.5602453218860078862181367386804
164,1.5614771078518377508107697618918
165,1.5627014013551564720152069231194
166,1.5639182930169467810897541471943
167,1.5651278718237536931915116367838
168,1.5663302251667600296118109864612
169,1.5675254388797018325787684117911
170,1.5687135972756634157126102020801
171,1.5698947831827922445645352592549
172,1.5710690779789715138669959254164
173,1.5722365616254858237960876992817
174,1.5733973126997157987299561765787
175,1.5745514084268956334061383562550
176,1.5756989247109632728005407712601
177,1.5768399361645364862353797468552
178,1.5779745161380439900821220478792
179,1.5791027367480380639750301562647
180,1.5802246689047196069040579567166
181,1.5813403823386982817429405255549
182,1.5824499456270154435676135282684
183,1.5835534262184529010085315287904
184,1.5846508904581517521425727488291
185,1.5857424036115631030173454091928
186,1.5868280298877516373967218095936
187,1.5879078324620758381943030790153
188,1.5889818734982602968784908427900
189,1.5900502141698838419059127016508
190,1.5911129146812991372268542042200
191,1.5921700342880029733801167307102
192,1.5932216313164736333451931984072
193,1.5942677631834936369639630742748
194,1.5953084864149712046782649286690
195,1.5963438566642783729051374014982
196,1.5973739287301194529121832728223
197,1.5983987565739442084761128395124
198,1.5994183933369199142653451309622
199,1.6004328913564751287619234845606
200,1.6014423021824291218834847147828
201,1.6024466765927179336838461957259
202,1.6034460646087304402432493423022
203,1.6044405155102650814300634364404
204,1.6054300778501188653951733947957
205,1.6064147994683186151108391040395
206,1.6073947275060074756506545714710
207,1.6083699084189925528358221791065
208,1.6093403879909679046521130562472
209,1.6103062113464186282648158727202
210,1.6112674229632175382304195556060
211,1.6122240666849217948611712785591
212,1.6131761857327797098643059425522
213,1.6141238227174521071435684366778
214,1.6150670196504632144463100678065
215,1.6160058179553802920804948293741
216,1.6169402584787359531518453346680
217,1.6178703815006971343561976947323
218,1.6187962267454896897696992266717
219,1.6197178333915818805653213583537
220,1.6206352400816392687760172920470
221,1.6215484849322489173866926074421
222,1.6224576055434300941127676381930
223,1.6233626390079250396886433605671
224,1.6242636219202848599563361046706
225,1.6251605903857530982887428615825
226,1.6260535800289505262802417039450
227,1.6269426260023697955428210613314
228,1.6278277629946817607988500627922
229,1.6287090252388606264053850407487
230,1.6295864465201326025380522122742
231,1.6304600601837498602885997885046
232,1.6313298991426001945803045125206
233,1.6321959958846473803890254066323
234,1.6330583824802183683190119303926
235,1.6339170905891304906164555313049
236,1.6347721514676683763719478915157
237,1.6356235959754141960213765427053
238,1.6364714545819329661385734468312
239,1.6373157573733183500814859725879
240,1.6381565340586011078901758676564
241,1.6389938139760244767660181597808
242,1.6398276260991893380627231263485
243,1.6406579990430732015421201870699
244,1.6414849610699246951105317427782
245,1.6423085400950379331256956089409
246,1.6431287636924092818208178856979
247,1.6439456591002779036099823677686
248,1.6447592532265576608076310458176
249,1.6455695726541553472560086967594
250,1.6463766436461856319594870856861
251,1.6471804921510806141309029716563
252,1.6479811438075967875429773691094
253,1.6487786239497244857810383766952
254,1.6495729576114994646471520303564
255,1.6503641695317205011381606550860
256,1.6511522841585730937573082998198
257,1.6519373256541656548969031712873
258,1.6527193178989746393436134955089
259,1.6534982844962054117498232872831
260,1.6542742487760692387683794951714
261,1.6550472337999767189006523834677
262,1.6558172623646523747828725557795
263,1.6565843570061692577902835502259
264,1.6573485400039090151097941050774
265,1.6581098333844459438062230366184
266,1.6588682589253571989120080211003
267,1.6596238381589623680697992017633
268,1.6603765923759924457243980310759
269,1.6611265426291924760604134584593
270,1.6618737097368535881071770984494
271,1.6626181142862837062444620326370
272,1.6633597766372109149501534122146
273,1.6640987169251269201811362045126
274,1.6648349550645678156817588685056
275,1.6655685107523360290758993630261
276,1.6662994034706617253714828674312
277,1.6670276524903111511678994094554
278,1.6677532768736336734901193463934
279,1.6684762954775590156944329476090
280,1.6691967269565367832916565163262
281,1.6699145897654261684910666541608
282,1.6706299021623333297133863134818
283,1.6713426822113996584992601437287
284,1.6720529477855380903284915090090
285,1.6727607165691242665904006258104
286,1.6734660060606385724308621125052
287,1.6741688335752641097468832534983
288,1.6748692162474370070847791014377
289,1.6755671710333537144859964217006
290,1.6762627147134360157877726560338
291,1.6769558638947515992988332212249
292,1.6776466350133930717364371334668
293,1.6783350443368193211793253614315
294,1.6790211079661542659306840800519
295,1.6797048418384450764161148456411
296,1.6803862617288874556561241948851
297,1.6810653832530079100176700641398
298,1.6817422218688123269758602866021
299,1.6824167928788976627206364605512
300,1.6830891114325284901913546715543
301,1.6837591925276788189538957051825
302,1.6844270510130412798303218072083
303,1.6850927015900008473865276062385
304,1.6857561588145766777843918205057
305,1.6864174370993334905015917857498
306,1.6870765507152617571158534530195
307,1.6877335137936238791035818001142
308,1.6883883403277738330784425014729
309,1.6890410441749463727318723775739
310,1.6896916390580161226187873336041
311,1.6903401385672301586879533285429
312,1.6909865561619115886862685491749
313,1.6916309051721355251824237772092
314,1.6922731988003792554804241245441
315,1.6929134501231459280624469488523
316,1.6935516720925631312000228260605
317,1.6941878775379539023349767641107
318,1.6948220791673855194721386717374
319,1.6954542895691932161421238447922
320,1.6960845212134788211895692455167
321,1.6967127864535882423174811360491
322,1.6973390975275639078155062283936
323,1.6979634665595756805080418795722
324,1.6985859055613292210582785192570
325,1.6992064264334535626059654844186
326,1.6998250409668661339620486740968
327,1.7004417608441180521121613781838
328,1.7010565976407168732204589753588
329,1.7016695628264317769885694688236
330,1.7022806677665776160325852998847
331,1.7028899237232792688505065150781
332,1.7034973418567173576007993437904
333,1.7041029332263557092261440257773
334,1.7047067087921487439240831393542
335,1.7053086794157331058759062916100
336,1.7059088558615995942637579732409
337,1.7065072487982482668002599454236
338,1.7071038687993277746011411792607
339,1.7076987263447549928860556070276
340,1.7082918318218210388262765352680
341,1.7088831955262793900950131304011
342,1.7094728276634186012480894978112
343,1.7100607383491192557023873311973
344,1.7106469376108951469971384552913
345,1.7112314353889205086504410398628
346,1.7118142415370407673842125905542
347,1.7123953658237703850539930851630
348,1.7129748179332746009858757884179
349,1.7135526074663386196232473792315
350,1.7141287439413217858019593275669
351,1.7147032367950988352359933029192
352,1.7152760953839879025572419837855
353,1.7158473289846645712657194412249
354,1.7164169467950633800456171921603
355,1.7169849579352671507097027765822
356,1.7175513714483823475393927923087
357,1.7181161963014037070448478196306
358,1.7186794413860673821311960960639
359,1.7192411155196883457955645666965
360,1.7198012274459909922600900288119
361,1.7203597858359246803960007114827
362,1.7209167992884707010251173975603
363,1.7214722763314352636990136801235
364,1.7220262254222335269362991094332
365,1.7225786549486629082726237132812
366,1.7231295732296645517806291508708
367,1.7236789885160758450581278377791
368,1.7242269089913707744013271807663
369,1.7247733427723927506973363839196
370,1.7253182979100756191995677517969
371,1.7258617823901557064843277695094
372,1.7264038041338738610567888844005
373,1.7269443709986674543112299844832
374,1.7274834907788566503145705756348
375,1.7280211712063156359723340512218
376,1.7285574199511402677823639313442
377,1.7290922446223039243765444608110
378,1.7296256527683047322514415025110
379,1.7301576518778060044795975027992
380,1.7306882493802666491554450292499
381,1.7312174526465644230016038069875
382,1.7317452689896091482948700690360
383,1.7322717056649505677628607349215
384,1.7327967698713758011416129326167
385,1.7333204687515000246378369506228
386,1.7338428093923510319370915175301
387,1.7343637988259434260824970559973
388,1.7348834440298463790098011526757
389,1.7354017519277456334111600982105
390,1.7359187293899969360198896416051
391,1.7364343832341712192420496067666
392,1.7369487202255951394968582295935
393,1.7374617470778844457365926872526
394,1.7379734704534687592270759603101
395,1.7384838969641106214446319215119
396,1.7389930331714184609405444781744
397,1.7395008855873531090638337720079
398,1.7400074606747278726596107057311
399,1.7405127648477007295166831739230
400,1.7410168044722629465041109403052
401,1.7415195858667201692989614082123
402,1.7420211153021667289032841190386
403,1.7425213990029559856723478893099
404,1.7430204431471646039253732825391
405,1.7435182538670482225657321980842
406,1.7440148372494946307265968885744
407,1.7445101993364715651434954445152
408,1.7450043461254666324294828429698
409,1.7454972835699222173105568112557
410,1.7459890175796678912814514469722
411,1.7464795540213445816806638864797
412,1.7469688987188240837547744964892
413,1.7474570574536249947531555295691
414,1.7479440359653214938790664829676
415,1.7484298399519492520406221998772
416,1.7489144750704049010157685280579
417,1.7493979469368419104986455642606
418,1.7498802611270600362444242343022
419,1.7503614231768926178051196634487
420,1.7508414385825867077591562754207
421,1.7513203128011799845986564781979
422,1.7517980512508737308579184145290
423,1.7522746593113997126033556573922
424,1.7527501423243845739898120380087
425,1.7532245055937081262233945771788
426,1.7536977543858591377506350281321
427,1.7541698939302861102829225075798
428,1.7546409294197430543235584471178
429,1.7551108660106341765634657104056
430,1.7555797088233503412296516642084
431,1.7560474629426048090189311539551
432,1.7565141334177654031084513686295
433,1.7569797252631784401174968423490
434,1.7574442434584955239344385611239
435,1.7579076929489910260594905905930
436,1.7583700786458781534293857931067
437,1.7588314054266217650692831107169
438,1.7592916781352469196110973056785
439,1.7597509015826438349570944409761
440,1.7602090805468703312767925541209
441,1.7606662197734489171630768912736
442,1.7611223239756620825676042819181
443,1.7615773978348454461833278606079
444,1.7620314460006733766176212008262
445,1.7624844730914464179863711678690
446,1.7629364836943715442497518209790
447,1.7633874823658424114290438723454
448,1.7638374736317128258761847149521
449,1.7642864619875712690708342381919
450,1.7647344518990086313553161274650
451,1.7651814478018866576708028196669
452,1.7656274541025999466113271673996
453,1.7660724751783372458353106959097
454,1.7665165153773384327514635913250
455,1.7669595790191508043179912515670
456,1.7674016703948799729209441858642
457,1.7678427937674400640051368309693
458,1.7682829533717996113194162955674
459,1.7687221534152256636667089822453
460,1.7691603980775257454666473429816
461,1.7695976915112855208197146062264
462,1.7700340378421053740875691444733
463,1.7704694411688345107239981188770
464,1.7709039055638007392254623372093
465,1.7713374350730399028995931081413
466,1.7717700337165220921104945991539
467,1.7722017054883739174794344457641
468,1.7726324543571018596427123249213
469,1.7730622842658091722250638136129
470,1.7734911991324138625292495253014
471,1.7739192028498620170094854556230
472,1.7743462992863407690996637628829
473,1.7747724922854862602580826080602
474,1.7751977856665940981809738156059
475,1.7756221832248212348980072992424
476,1.7760456887313917785124341259387
477,1.7764683059337970715393767258341
478,1.7768900385559947117868827018984
479,1.7773108902986054051193294476359
480,1.7777308648391080446390741346856
481,1.7781499658320315671149774890496
482,1.7785681969091471553981575574238
483,1.7789855616796561667743595478660
484,1.7794020637303766069589265450888
485,1.7798177066259296265611207572829
486,1.7802324939089206247607602609104
487,1.7806464291001218089276972033326
488,1.7810595156986508066186470980766
489,1.7814717571821485579972362002937
490,1.7818831570069543516678382688921
491,1.7822937186082801380679877906217
492,1.7827034454003827084662199874410
493,1.7831123407767337144320409314981
494,1.7835204081101886216729545330336
495,1.7839276507531527905874659568222
496,1.7843340720377479278054577795910
497,1.7847396752759745940845905753986
498,1.7851444637598747136616983521469
499,1.7855484407616915822228731259056
500,1.785951609534029503804391087215
501,1.786353973310008802472850514307
502,1.786755535303423663771223965017
503,1.787156298708894273859696360389
504,1.787556266702021099987287604537
505,1.787955442439534159554171102418
506,1.788353829059443007643049817143
507,1.788751429681185290833165638339
508,1.789148247405773507038950780763
509,1.789544285315938202042077900939
510,1.789939546476273655728970412531
511,1.790334033933379288882315949859
512,1.790727750716000690492729001763
513,1.791120699835168881097294604569
514,1.791512884284338488376175258851
515,1.791904307039525209074515731535
516,1.792294971059440767407275610074
517,1.792684879285626444506057446258
518,1.793074034642586964114835276032
519,1.793462440037921516299224382625
520,1.793850098362454775994164262912
521,1.794237012490364711439182944342
522,1.794623185279311458524409255108
523,1.795008619570563698025421371903
