Eigenstate,Potential Energy
1,0.500000000083609238498305813126878699
2,0.64623093819687324827293595664372131
3,0.73633761130810238899247958318593799
4,0.79966528115338268310769440243886969
5,0.8480465810697971012216637541632471
6,0.8870660058207129917358854975395207
7,0.9197208368483979969859933709216525
8,0.9477838605319818213873297953002809
9,0.9723835758790400904128030590063342
10,0.9942802370389920677444067564211433
11,1.0140094141534815707414995123004255
12,1.0319622025276063433084263601394990
13,1.0484327322275630676227327326246355
14,1.0636477009368395193629198107801998
15,1.0777854897704179317425657866456398
16,1.090988968145231738061189136234199
17,1.103374327241677605304409190681355
18,1.115037331009820150023243755743824
19,1.126057839273373244821464461906652
20,1.136503145363639111671239011580118
21,1.146430482201207442700385225797580
22,1.155888933454696982137690170014075
23,1.164920911477281279824469107109390
24,1.173563314707111696016108854836464
25,1.181848444463244453862958144110867
26,1.189804738753228913956801607195558
27,1.197457365235683830989958467861314
28,1.204828704579337534482338703738787
29,1.211938747664980147811149012420920
30,1.218805424427288386106835599535158
31,1.225444877987544970381781391199792
32,1.231871694650375108284389042078807
33,1.238099098027974686104635840382276
34,1.244139113804758549301723107782526
35,1.250002710316162182241447855918939
36,1.255699919081851218626527704936722
37,1.261239938629508665097242575536560
38,1.266631224314950976968917437153034
39,1.271881566346475475272912301338757
40,1.276998157825520810505450970051723
41,1.281987654298971904598920035321188
42,1.286856226063448200993165889934557
43,1.291609604255427707664310362927035
44,1.296253121592965302382405566702870
45,1.300791748497194200407194123160956
46,1.305230125208663202185839633294891
47,1.309572590420085726243154169791713
48,1.313823206869490268173235646777366
49,1.317985784273099382717367368259930
50,1.32206389992314157223735040561177
51,1.32606091723033350240270768186715
52,1.32998000245242475159524974132939
53,1.33382413981774718197587487633039
54,1.33759614522514988869180612805373
55,1.34129867867822519118158765647360
56,1.34493425559165656040259070269736
57,1.34850525709032041068033540248433
58,1.35201393940697649858298995692318
59,1.35546244247162772394413962173512
60,1.35885279777460562045134517675790
61,1.36218693557587359570982687386854
62,1.36546669152473897557448850665324
63,1.36869381274692301852035923058518
64,1.37186996344962558589739073546163
65,1.37499673008968631394114840721461
66,1.37807562614509679435497992271473
67,1.38110809652585597895226943395334
68,1.38409552165640486303763805040733
69,1.38703922125856383147830928722105
70,1.38994045786096778315143243977767
71,1.39280044005839544572209874164270
72,1.39562032554209105032532799911501
73,1.39840122392012352932214918589456
74,1.40114419934500955174583928432970
75,1.40385027296419560995158065443785
76,1.40652042520754481422653323103702
77,1.40915559792467165369945277237164
78,1.41175669638380218370816493729126
79,1.41432459114279027979080992209407
80,1.41686011980198247282194930442125
81,1.41936408864777453833820673640204
82,1.42183727419494156254408235812980
83,1.42428042463513447369890784697060
84,1.42669426119831173586977145589717
85,1.42907947943331562586141822454035
86,1.43143675041328664874458170331158
87,1.43376672187115217660470891819806
88,1.43607001927000201739688813226668
89,1.43834724681278011863150267208162
90,1.44059898839537839388583781408898
91,1.44282580850689720808627331502253
92,1.44502825308054875996634386191700
93,1.44720685029841734505079394934497
94,1.44936211135304755377728925826589
95,1.45149453116861030533875008186430
96,1.45360458908419479571282764012281
97,1.45569274950159009623572256901377
98,1.45775946249974726478251269105287
99,1.45980516441795935942774111992423
100,1.46183027840965040404341531868198
101,1.46383521496853505113778499441422
102,1.46582037242878511251691210525639
103,1.46778613744073121473833104281085
104,1.46973288542352057161641068540687
105,1.47166098099605879228126131930181
106,1.47357077838747287905034350416442
107,1.47546262182825448741625902545201
108,1.47733684592316328090010370140137
109,1.47919377600690161998577874441653
110,1.48103372848350940422569502863437
111,1.48285701115036202540992540453646
112,1.48466392350760495605787600750376
113,1.48645475705380296169718092419835
114,1.48822979556853316763880835870326
115,1.48998931538261076245466150270010
116,1.49173358563658778871622812450422
117,1.49346286852813375854605403608060
118,1.49517741954886580042845341196059
119,1.49687748771116233000992994538618
120,1.49856331576546839538505360994318
121,1.50023514040856258011922688259661
122,1.50189319248323643412748769240411
123,1.50353769716980520959672429989697
124,1.50516887416985099932986681582239
125,1.50678693788256980862853389406392
126,1.50839209757407889453241453466929
127,1.50998455754002012834800177470874
128,1.51156451726177255020964887608672
129,1.51313217155657521117795032747723
130,1.51468771072184301651331407549711
131,1.51623132067394287964502670994055
132,1.51776318308168251915578198921008
133,1.51928347549475244951685224068150
134,1.52079237146735044035213607888179
135,1.52229004067719961066594076251086
136,1.52377664904016763693929478159314
137,1.52525235882068124605707048064484
138,1.52671732873811655203710450181216
139,1.52817171406934368962759063208662
140,1.52961566674758875187097001462207
141,1.53104933545777148124259463077480
142,1.53247286572846909070628745619007
143,1.53388640002064794085936807652256
144,1.53529007781329761970332676897605
145,1.53668403568609778381737151491185
146,1.53806840739924025096182916805714
147,1.53944332397052063117225769260976
148,1.54080891374981482537231614643318
149,1.54216530249104219245989784445193
150,1.54351261342171902574296745759117
151,1.54485096731019825298016449104343
152,1.54618048253068565919459494663334
153,1.54750127512612158195475575811150
154,1.54881345886901197836388667898903
155,1.55011714532028709974999486895802
156,1.55141244388626564041962909519991
157,1.55269946187379540707724408638524
158,1.55397830454364232701198455104192
159,1.5552490751621914678842682145225
160,1.5565118750515264066507650256316
161,1.5577668036379454437466275132878
162,1.5590139584989741236259848546380
163,1.5602534354089289149586244246859
164,1.5614853283830866870783898085889
165,1.5627097297205085829010197652374
166,1.5639267300455688039003554210795
167,1.5651364183482355394639365761936
168,1.5663388820231467295431608725181
169,1.5675342069075257226900251224500
170,1.5687224773179765725993652054697
171,1.5699037760861991676195790360716
172,1.5710781845936620598938155901893
173,1.5722457828052683964656691942077
174,1.5734066493020507958681314878620
175,1.5745608613129291551335586298284
176,1.5757084947455610935827066389338
177,1.5768496242163182939362717344339
178,1.5779843230794178951512092495133
179,1.5791126634552353819349059603245
180,1.5802347162578299173432746381941
181,1.5813505512217047670567995167760
182,1.5824602369278305107281802376646
183,1.5835638408289540896848258625557
184,1.5846614292742179325313483505886
185,1.5857530675331109667861952190893
186,1.5868388198187724851805497347667
187,1.5879187493106726671299546449104
188,1.5889929181766851917030820717481
189,1.5900613875945756731881980800027
190,1.5911242177729215703438145299341
191,1.5921814679714827918960143632576
192,1.5932331965210393804946020927972
193,1.5942794608427145789860872142901
194,1.5953203174667966197956863540679
195,1.5963558220510771697879504111397
196,1.5973860293987201225150880676951
197,1.5984109934756751131850777829903
198,1.5994307674276499183391331346132
199,1.6004454035966545741041052303833
200,1.6014549535371311532307689813383
201,1.6024594680316801773472518066177
202,1.6034589971063970405928474789365
203,1.6044535900458290993641557471907
204,1.6054432954075650430909732317284
205,1.6064281610364665114065288972643
206,1.6074082340785549764649954904461
207,1.6083835609945597610875712050537
208,1.6093541875731414141982101442126
209,1.6103201589437961864349254844978
210,1.6112815195894531015934872105744
211,1.6122383133587709829198886234399
212,1.6131905834781456614338943175202
213,1.6141383725634317442333071265737
214,1.6150817226313939185239992537321
215,1.6160206751108869976640860320323
216,1.6169552708537786637374112231446
217,1.6178855501456188657559655483192
218,1.6188115527160648460005292171985
219,1.6197333177490650674971338737305
220,1.6206508838928145508160083740524
221,1.6215642892694795225461889686134
222,1.6224735714847085728748135482441
223,1.6233787676369238831646657213265
224,1.6242799143264075828948663239037
225,1.6251770476641857925727144674444
226,1.6260702032807138906245153442048
227,1.6269594163343716471803540491075
228,1.6278447215197700350219065503387
229,1.6287261530758768699067842857574
230,1.6296037447939659665777064162223
231,1.6304775300253915997926219913561
232,1.6313475416891986793618468293367
233,1.6322138122795636247649543980850
234,1.6330763738730820854819574865409
235,1.6339352581358966782078442909806
236,1.6347904963306744397905150393389
237,1.6356421193234376160915621988105
238,1.6364901575902495178533732922741
239,1.6373346412237608792275243737112
240,1.6381755999396188724572116388652
241,1.6390130630827430601376409223816
242,1.6398470596334711410825150430303
243,1.6406776182135785206493043202813
244,1.6415047670921733938375292730549
245,1.6423285341914717143534255377039
246,1.6431489470924545682910618358909
247,1.6439660330404093342986921657739
248,1.6447798189503622108705978452914
249,1.6455903314123970793672715912141
250,1.6463975966968710869730222226106
251,1.6472016407595248491089382675395
252,1.6480024892464900693082933530657
253,1.6488001674991996482664820683556
254,1.6495947005591999384348765682537
255,1.6503861131728690236993558812081
256,1.6511744297960411090271584743973
257,1.6519596745985434109420537358007
258,1.6527418714686419930064064769771
259,1.6535210440174033492814127692236
260,1.6542972155829721215938928929207
261,1.6550704092347652637913419565103
262,1.6558406477775873778461023123744
263,1.6566079537556660718241348746654
264,1.6573723494566127900095984781789
265,1.6581338569153076398515454274893
266,1.6588924979177103829070057219235
267,1.6596482940046008024566343984211
268,1.6604012664752484809386681986230
269,1.6611514363910162565489461512030
270,1.6618988245788930825835695992085
271,1.6626434516349655729134986227765
272,1.6633853379278222125939746143155
273,1.6641245036018976761602613010396
274,1.6648609685807544620707909718798
275,1.6655947525703057183211540380764
276,1.6663258750619775370297815122590
277,1.6670543553358182014582264213954
278,1.6677802124635461395685848230119
279,1.6685034653115480867419768115181
280,1.6692241325438195506874228340960
281,1.6699422326248554675315850120847
282,1.6706577838224885455268365755791
283,1.6713708042106785089969630941503
284,1.6720813116722493992328976064111
285,1.6727893239015817397798066292204
286,1.6734948584072555910418805343929
287,1.6741979325146495536858287612062
288,1.6748985633684921228084745594269
289,1.6755967679353700411272986771599
290,1.6762925630061943839200645447899
291,1.6769859651986222168554217197271
292,1.6776769909594367118285769636299
293,1.6783656565668896267848994182094
294,1.6790519781330011866628084297866
295,1.6797359716058194528173364421504
296,1.6804176527716467667090043780615
297,1.6810970372572231998095740513192
298,1.6817741405318763267070541545704
299,1.6824489779096341245028002748851
300,1.6831215645513027493448406857565
301,1.6837919154665096017778201282681
302,1.6844600455157137740911446487361
303,1.6851259694121810530462920511812
304,1.6857897017239270557723748326749
305,1.6864512568756299276181295696968
306,1.6871106491505118654498030715530
307,1.6877678926921866486416303072962
308,1.6884230015064806564873348708593
309,1.6890759894632234616034411014479
310,1.6897268702980083347808432930110
311,1.6903756576139262565048809202483
312,1.6910223648832709486002060916384
313,1.6916670054492163190761218459244
314,1.6923095925274681247822798398308
315,1.6929501392078891718602164838482
316,1.6935886584560994299795385853166
317,1.6942251631150485993199886568777
318,1.6948596659065664819045207391649
319,1.6954921794328882992162723217484
320,1.6961227161781549577312825011004
321,1.6967512885098921816857244494457
322,1.6973779086804646278998721616584
323,1.6980025888285084970938565809899
324,1.6986253409803416192432052734554
325,1.6992461770513527753679587033684
326,1.6998651088473684934039412483068
327,1.7004821480660001393415628231659
328,1.7010973062979684932670235027656
329,1.7017105950284107856103975800755
330,1.7023220256381666257230649280699
331,1.7029316094050442618268432925423
332,1.7035393575050682340325488039011
333,1.7041452810137087994493752980357
334,1.7047493909070913138862382552551
335,1.7053516980631898855590149668076
336,1.7059522132630013593555361724896
337,1.7065509471917025044080275432726
338,1.7071479104397914643417703877510
339,1.7077431135042095352337052613005
340,1.7083365667894493631608563528681
341,1.7089282806086452754645549400941
342,1.7095182651846482434425886170796
343,1.7101065306510851148298296130451
344,1.7106930870534021103609754307584
345,1.7112779443498944043451764907220
346,1.7118611124127192646597547636420
347,1.7124426010288963181435306810870
348,1.7130224199012917537505156725506
349,1.7136005786495900090373038402352
350,1.7141770868112504829913792716472
351,1.7147519538424513634796260371707
352,1.7153251891190202523765812492752
353,1.7158968019373508734587244478532
354,1.7164668015153072782634117596165
355,1.7170351969931159159363981656986
356,1.7176019974342437776131457876654
357,1.7181672118262658551473496728670
358,1.7187308490817211589864579149703
359,1.7192929180389530411414730114678
360,1.7198534274629427620055473894738
361,1.7204123860461280467327344370375
362,1.7209698024092131136500373291561
363,1.7215256851019647711978127779563
364,1.7220800426039996083014690785219
365,1.7226328833255605154656032811774
366,1.7231842156082814152086632016405
367,1.7237340477259430948125130785237
368,1.7242823878852169311108783332776
369,1.7248292442264011408702540612657
370,1.7253746248241452709720432566725
371,1.7259185376881657827642030809526
372,1.7264609907639516881404171671898
373,1.7270019919334602051703956901668
374,1.7275415490158067428883689730802
375,1.7280796697679399079653969043020
376,1.7286163618853129906639461487049
377,1.7291516330025437204919170096643
378,1.7296854906940654602027304684555
379,1.7302179424747716792089969698717
380,1.7307489958006504644608559018334
381,1.7312786580694119455533861472096
382,1.7318069366211057535779184580009
383,1.7323338387387331897648910790237
384,1.7328593716488490690303924891480
385,1.7333835425221568611294607339073
386,1.7339063584740977895446201173927
387,1.7344278265654296389611288848021
388,1.7349479538027992096754524162059
389,1.7354667471393090951986601489160
390,1.7359842134750759737887657821768
391,1.7365003596577807325003405403078
392,1.7370151924832140338274355592372
393,1.7375287186958148001590760268583
394,1.7380409449892001989170560898162
395,1.7385518780066899870664028178704
396,1.7390615243418248677261776830818
397,1.7395698905388784906873633099919
398,1.7400769830933631069272120445396
399,1.7405828084525274448997125381187
400,1.7410873730158511106081776069198
401,1.7415906831355315624680043210794
402,1.7420927451169644083212766385638
403,1.7425935652192198475375786386517
404,1.7430931496555131535346111194980
405,1.7435915045936666644748958012354
406,1.7440886361565693935245450833267
407,1.7445845504226313778165649386334
408,1.7450792534262302717867555317647
409,1.7455727511581530484979555198867
410,1.7460650495660353260345237375395
411,1.7465561545547925816472712263670
412,1.7470460719870468389703437751287
413,1.7475348076835499101741117762589
414,1.7480223674235996197680291484643
415,1.7485087569454532969589107437942
416,1.7489939819467349692147072450138
417,1.7494780480848391086190605122804
418,1.7499609609773280974210056278328
419,1.7504427262023276945488482622385
420,1.7509233492989154883451139615879
421,1.7514028357675062911310488980679
422,1.7518811910702337607129118227379
423,1.7523584206313260885724513107626
424,1.7528345298374793721611871108062
425,1.7533095240382250544500326423512
426,1.7537834085462950414616686731547
427,1.7542561886379819864082152990760
428,1.7547278695534947582210954396089
429,1.7551984564973130110553802313257
430,1.7556679546385337211985885216368
431,1.7561363691112171994589848100507
432,1.7566037050147297330983723003505
433,1.7570699674140781998703918660842
434,1.7575351613402477568974949607699
435,1.7579992917905304329744334697079
436,1.7584623637288525303501510788790
437,1.7589243820860990025395953030782
438,1.7593853517604337955648860718497
439,1.7598452776176168394014118052604
440,1.7603041644913187664718436710296
441,1.7607620171834305228119468302056
442,1.7612188404643714415025769274482
443,1.7616746390733954321545249852780
444,1.7621294177188899120935606103051
445,1.7625831810786768163490125390284
446,1.7630359338003067174169327559155
447,1.7634876805013532307784783391675
448,1.7639384257697009313775557118292
449,1.7643881741638346287586015957242
450,1.7648369302131221607081126258272
451,1.7652846984180982161134606446854
452,1.7657314832507420362082574452483
453,1.7661772891547547453387391847350
454,1.7666221205458327084810113898940
455,1.7670659818119405479107748744522
456,1.7675088773135791247897089896435
457,1.7679508113840531904110987045449
458,1.7683917883297351122859261972464
459,1.7688318124303271985545951913332
460,1.7692708879391222729191944089755
461,1.7697090190832603599444847359685
462,1.7701462100639847042205708582005
463,1.7705824650568957379003906660716
464,1.7710177882122011685802946446698
465,1.7714521836549661676595770911941
466,1.7718856554853608016147933784745
467,1.7723182077789039988003082123450
468,1.7727498445867090798747958887470
469,1.7731805699357233413958141255879
470,1.7736103878289692303515774112275
471,1.7740393022457813903781784345312
472,1.7744673171420438913342043772933
473,1.7748944364504230076294810975863
474,1.7753206640806030642423695548522
475,1.7757460039195142885962557374569
476,1.7761704598315651979894009801864
477,1.7765940356588698719667798772637
478,1.7770167352214748025340837272089
479,1.7774385623175842290382760688990
480,1.7778595207237843703006556144759
481,1.7782796141952651234483353431597
482,1.7786988464660428174014469151473
483,1.7791172212491794208019620453771
484,1.7795347422370010445674685445902
485,1.7799514131013172370367042011747
486,1.7803672374936356782714100309994
487,1.7807822190453791448043155035589
488,1.7811963613680993645365834105522
489,1.7816096680536910138903973293410
490,1.7820221426746037450603589482350
491,1.7824337887840544031750514192289
492,1.7828446099162380479639710210431
493,1.7832546095865377822145449209703
494,1.7836637912917345092700818021074
495,1.7840721585102148412268074467979
496,1.7844797147021804324165671800531
497,1.7848864633098544548850811637741
498,1.7852924077576891933876759790648
499,1.7856975514525722906104863011229
500,1.786101897784033807627448838961
501,1.786505450124449881356190655906
502,1.786908211829250471159840991349
503,1.787310186237122700999630702623
504,1.787711376670217680605600018100
505,1.788111786434353694161043349908
506,1.788511418819221529086968421683
507,1.788910277098589836989349893233
508,1.789308364530510212328021412834
509,1.789705684357520266965371389086
510,1.790102239806850802815041769851
511,1.790498034090630364437908023592
512,1.790893070406091124423204694671
513,1.791287351935774771879018997541
514,1.791680881847739137110587762385
515,1.792073663295765985506424493504
516,1.792465699419568251954622832409
517,1.792856993344997853810374610143
518,1.793247548184255933460766899195
519,1.793637367036102380616301219185
520,1.794026452986067562088644648150
521,1.794414809106663127789867047770
522,1.794802438457596245470965010676
523,1.795189344085983780651851574396
