Eigenstate,Potential Energy
1,0.500000001309839295630421757070673217
2,0.64623094620137104661858106003078262
3,0.73633763482206921455602645734069214
4,0.79966533013428745510789802335515284
5,0.8480466659235708078927909019837251
6,0.8870661371410002488801793707847844
7,0.9197210253214003763369517082862098
8,0.9477841168976225676101152740388801
9,0.9723839109136874853759959427413199
10,0.9942806615474131573668647645025939
11,1.0140099389651439611334022489032864
12,1.0319628384951986301377114067735758
13,1.0484334902267261026055903385071610
14,1.0636485918665975946836590737809081
15,1.0777865245540353578100023000589445
16,1.090990157731339838449029776369336
17,1.103375682605580874512116512733921
18,1.115038863154925870714747109469080
19,1.126059559232709503221845150809940
20,1.136505064201438564375264664298228
21,1.146432611014541891467443751577261
22,1.155891283375152728638694010339079
23,1.164923493672668448717888169343607
24,1.173566140383202868070009319627691
25,1.181851524865539422969931266579700
26,1.189808085168743407974942039965032
27,1.197460988994760764590515461356942
28,1.204832617057479887969003022769362
29,1.211942960284704951774586829212066
30,1.218809948660001579581183173569487
31,1.225449725355437118249442673439908
32,1.231876876728338131584187175573185
33,1.238104626445539890308128739582897
34,1.244145000248056340214750868048381
35,1.250008966529903943909290256655443
36,1.255706556871333897505612103654605
37,1.261246969862642663506937988268928
38,1.266638660924312009185898394932563
39,1.271889420331381083636335080729977
40,1.277006441254132278109842498633909
41,1.281996379310422336748869076430345
42,1.286865404869997580493330234471408
43,1.291619249144645759926803213414566
44,1.296263244929943035807165263934172
45,1.300802362726785015973535182333497
46,1.305241242857754494035957535670487
47,1.309584224099901922525575783104608
48,1.313835369277928288782971756807495
49,1.317998488197097518009033152966887
50,1.32207715824108281445982960530546
51,1.32607474291448438965471809543830
52,1.32999440857141081263457385511213
53,1.33383913953906609934749519866578
54,1.33761175181772352745896207042537
55,1.34131490551499167113060778086258
56,1.34495111615220358102618755892772
57,1.34852276496356107059273108261937
58,1.35203210829386888435988022557081
59,1.35548128618793957775700125362666
60,1.35887233025372543136278037015403
61,1.36220717087166949616075595785710
62,1.36548764381446686249288138235034
63,1.36871549633418535766904537368837
64,1.37189239276738239862155934147481
65,1.37501991970331988743907996767272
66,1.37809959075553170002704479050551
67,1.38113285097273602836379319966556
68,1.38412108092132867761727162573679
69,1.38706560046838075033903891134100
70,1.38996767229113588342189287616646
71,1.39282850513640350161183478277967
72,1.39564925685094631085970720943936
73,1.39843103720190725037961008823617
74,1.40117491050450227577702931260259
75,1.40388189807257424663793159558415
76,1.40655298050615363744712588068187
77,1.40918909982886939460339710185860
78,1.41179116148688746653124444058515
79,1.41436003622000771640785642016472
80,1.41689656181461180400147681376876
81,1.41940154474730528436900511960093
82,1.42187576172733572344970793244768
83,1.42431996114517989976201636856760
84,1.42673486443406887278843110868930
85,1.42912116735066042567597068433897
86,1.43147954118055252784084165043215
87,1.43381063387387399578761945784853
88,1.43611507111576515634431668849538
89,1.43839345733617781818433751856273
90,1.44064637666308064474400400813001
91,1.44287439382283457374706041513637
92,1.44507805499121463534589891876730
93,1.44725788859829227035533557188290
94,1.44941440609014932604404967656646
95,1.45154810265017375786546475613355
96,1.45365945788248524854152446862224
97,1.45574893645985461921848213081757
98,1.45781698873830803872749031226793
99,1.45986405134045357072753185704606
100,1.46189054770942126423112494171471
101,1.46389688863517869532699969935250
102,1.46588347275485829994090088985354
103,1.46785068702862493093342618772138
104,1.46979890719250481552284536499170
105,1.47172849818950402301645607151240
106,1.47363981458025379670019640827720
107,1.47553320093434203029723859351081
108,1.47740899220341093875992983182275
109,1.47926751407703238897024470880704
110,1.48110908332230994560083275663963
111,1.48293400810809083646230137011039
112,1.48474258831462161881363026896779
113,1.48653511582942580363627783864457
114,1.48831187483013294898497645461573
115,1.49007314205494829750707929215117
116,1.49181918706140371465965283414392
117,1.49355027247399898491462593592595
118,1.49526665422130150660143141235305
119,1.49696858176303872749561633297772
120,1.49865629830769183704424579827031
121,1.50033004102106098065018912549615
122,1.50199004122625336601486922568654
123,1.50363652459551345719778668436483
124,1.50526971133429679185338459141890
125,1.50688981635795941146125723703585
126,1.50849704946141971880729565599724
127,1.51009161548212902198561472282497
128,1.51167371445666446113864664826559
129,1.51324354177124596636826616269641
130,1.51480128830646054021368627910860
131,1.51634714057646178230741574019255
132,1.51788128086289762651592476910508
133,1.51940388734380751080535128468126
134,1.52091513421771895749724495598018
135,1.52241519182315546840073029526570
136,1.52390422675376398901601371487843
137,1.52538240196925692739291154488433
138,1.52684987690235014283730502242608
139,1.52830680756187625780530775273962
140,1.52975334663223724691327821985143
141,1.53118964356935574885225869501983
142,1.53261584469327652598532762754549
143,1.53403209327756090157577717811163
144,1.53543852963560988367643808448560
145,1.53683529120404755914796837009389
146,1.53822251262328853857903905985169
147,1.53960032581540509993605974964837
148,1.54096886005941079515048927659764
149,1.54232824206406383478540976101144
150,1.54367859603829548975524700246741
151,1.54502004375936111176646683039585
152,1.54635270463880585389909204462979
153,1.54767669578633592431309249203939
154,1.54899213207168126304302346768941
155,1.55029912618452998312815890290673
156,1.55159778869261466961253794486161
157,1.55288822809802394016230507710007
158,1.55417055089181358123669527464471
159,1.5554448616069835763153410248762
160,1.5567112628698901653206881742391
161,1.5579698554501544015331956602516
162,1.5592207383091298174544776934630
163,1.5604640086469873958500907889670
164,1.5616997619484760315466105694428
165,1.5629280920274108535997553652830
166,1.5641490910699439288851697611570
167,1.5653628496766688378093241242810
168,1.5665694569036063404912872987939
169,1.5677690003021210156420029867373
170,1.5689615659578137474769592149786
171,1.5701472385284357222090505306177
172,1.5713261012808676279105973352809
173,1.5724982361272056740245942274140
174,1.5736637236599969042231746499512
175,1.5748226431866648657133646756160
176,1.5759750727631629019183452038816
177,1.5771210892268964096769313037284
178,1.5782607682289518566323759958519
179,1.5793941842656682501876009570981
180,1.5805214107095919042390440567398
181,1.5816425198398477582068579934075
182,1.5827575828719663132132257758315
183,1.5838666699872014303962382746052
184,1.5849698503613763233733319949820
185,1.5860671921932936131472109818483
186,1.5871587627327455258584346880567
187,1.5882446283081642871602306221089
188,1.5893248543539456425973869177949
189,1.5903995054374880760642580280339
190,1.5914686452859836847443868037995
191,1.5925323368130018372756080963814
192,1.5935906421449056416414918162015
193,1.5946436226471450690791852282273
194,1.5956913389504676894456771974127
195,1.5967338509770948293109617837722
196,1.5977712179669092001405083367695
197,1.5988034985037034383926353563905
198,1.5998307505415417568662904234382
199,1.6008530314312888370776608791050
200,1.6018703979473647765722037717155
201,1.6028829063147858736253001130535
202,1.6038906122365577581071778486814
203,1.6048935709214894211617616695556
204,1.6058918371125029109481193838954
205,1.6068854651155176123712350663306
206,1.6078745088289974921466636610428
207,1.6088590217742496347580162986190
208,1.6098390571265786022489844651167
209,1.6108146677474013864078796868417
210,1.6117859062174431518371921075863
211,1.6127528248711405928946459817809
212,1.6137154758323945774748318385660
213,1.6146739110518212607734979898680
214,1.6156281823456763663208645817703
215,1.6165783414366282403646268754145
216,1.6175244399965887101108795839703
217,1.6184665296918217255098555535391
218,1.6194046622305783033516735298705
219,1.6203388894135270592009548901457
220,1.6212692631872886720019164282860
221,1.6221958357014016842967697795560
222,1.6231186593691044012932675110515
223,1.6240377869323371330654522316372
224,1.6249532715314394546752574158114
225,1.6258651667800602912595623815423
226,1.6267735268458629966123857626620
227,1.6276784065376850486437966646974
228,1.6285798613998879124080205935679
229,1.6294779478147328360437008663094
230,1.6303727231137248779714811248967
231,1.6312642456989900826544720762905
232,1.6321525751759042213277214242862
233,1.6330377724983437305914635228949
234,1.6339199001281451119008855506561
235,1.6347990222105622666652403134765
236,1.6356752047677915640546339933297
237,1.6365485159129368860904127599784
238,1.6374190260871469086659940592304
239,1.6382868083230863899482266826455
240,1.6391519385384025436734621410447
241,1.6400144958634448706184851262767
242,1.6408745630082026172424276777929
243,1.6417322266742685836726668268322
244,1.6425875780186451602315521611240
245,1.6434407131774242036920738870618
246,1.6442917338588340769876490993447
247,1.6451407480169193738233784617884
248,1.6459878706192832859732254485985
249,1.6468332245249488989534583162103
250,1.6476769414916536319247872408515
251,1.6485191633358831846620845706711
252,1.6493600432739288913516660725801
253,1.6501997474784644784626441586209
254,1.6510384568929342379222448548211
255,1.6518763693559120464262748377841
256,1.6527137021001404710710505655593
257,1.6535506947070571112544790558200
258,1.6543876126183879540651265243001
259,1.6552247513334546145424484191001
260,1.6560624414563626194708700155734
261,1.6569010548043126339021064538128
262,1.6577410118512683322741491272042
263,1.6585827908663730523977428366813
264,1.6594269392229650366628041468392
265,1.6602740875152080050502116933987
266,1.6611249673453749956616900357821
267,1.6619804339663184819333372641820
268,1.6628414954281073387062020264928
269,1.6637093505602700783827606613740
270,1.6645854391427225714859364742608
271,1.6654715091796830569778221979149
272,1.6663697086316839551161935976463
273,1.6672827128753273109402721489540
274,1.6682139056208736659042944719367
275,1.6691676420316222314905624308938
276,1.6701496422749761863860536557978
277,1.6711675997182204387733715350689
278,1.6722321578390316709021771849398
279,1.6733585538320388252327055144633
280,1.6745695453819763934612443147555
281,1.6759010071105312938932367947495
282,1.6774136665921543335483563854596
283,1.6792209912694056088197537357941
284,1.6815685516415148771637314036632
285,1.6851356305722946733866597528541
286,1.6930742518455340835676337080415
