Eigenstate,Potential Energy
1,0.500000000001137528098280399202749106
2,0.64623093765854003942925048319848474
3,0.73633760972678809260279270889235858
4,0.79966527785967433936851946345682887
5,0.8480465753643954585044534647775063
6,0.8870659969920645279370579384933781
7,0.9197208241791900600886315612271418
8,0.9477838433018500444811458332799879
9,0.9723835533658261225055500576303689
10,0.9942802085193808031647476637324180
11,1.0140093789033462726470898359427162
12,1.0319621598222049122881046255799514
13,1.0484326813416532709290601932098029
14,1.0636476411447475796208034877734585
15,1.0777854203460789760242641603337702
16,1.090988888362212568682127719459568
17,1.103374236373187968714236776500480
18,1.115037228328716289764635343274469
19,1.126057724052156136803558909281807
20,1.136503016874448945602622331236294
21,1.146430339715815395977801289395924
22,1.155888776244495002446383630371042
23,1.164920738813270376943195245321280
24,1.173563125859889099071034298767512
25,1.181848238702989891861385194730391
26,1.189804515349690209040611555279363
27,1.197457123458161945514616619687297
28,1.204828443696671178337641015814282
29,1.211938466945530027147590083681445
30,1.218805123138921156007401627329574
31,1.225444555397616940116266105448042
32,1.231871350025715737288236966668279
33,1.238098730634869900818482705232289
34,1.244138722908933904841305179992732
35,1.250002295182765888074359007451369
36,1.255699478975437043674921800106760
37,1.261239472814018734716260969929052
38,1.266630732053698471886689138090803
39,1.271881046902127240682409093143846
40,1.276997610460079881968244258633351
41,1.281987078273759956177907933100545
42,1.286855620639087920015314382459912
43,1.291608968691825099679268149418394
44,1.296252455149291929192662635983990
45,1.300791050431869353471896552764088
46,1.305229394779336013221331368222655
47,1.309571826883617216441506692518818
48,1.313822409481935337121021278345697
49,1.317984952289688737809986722341557
50,1.32206303259826359914012037042078
51,1.32606001381751607690110563374611
52,1.32997906220431699299781997264916
53,1.33382316198610114807905982056555
54,1.33759512906080221218239557716421
55,1.34129762343107865723658882692576
56,1.34493316051066162514512127247352
57,1.34850412142345666006165295219810
58,1.35201276240123404718249508130303
59,1.35546122337298855311075575515658
60,1.35885153582802485514833886526019
61,1.36218563002526071937084397472319
62,1.36546534161293898222980840447929
63,1.36869241771569750140874027660628
64,1.37186852253963376173948157752968
65,1.37499524254046598201440839627913
66,1.37807409119504522947768163924859
67,1.38110651341221075745426705756282
68,1.38409388961522462076818875644733
69,1.38703753952470895287566831266663
70,1.38993872566808102037595002374015
71,1.39279865663888246683196406872968
72,1.39561849012710091545421860549191
73,1.39839933573952909379813783052971
74,1.40114225762738779507305963243931
75,1.40384827693680788955840462488703
76,1.40651837409631704286783734854959
77,1.40915349095417439938435692699515
78,1.41175453277723069100944129802041
79,1.41432237012194441137736118806239
80,1.41685784058724657004164464663109
81,1.41936175045809719966412650888956
82,1.42183487624781533868380739868597
83,1.42427796614657547815319113811424
84,1.42669174138283916971376199435047
85,1.42907689750393121550869410031609
86,1.43143410558145399544173424548763
87,1.43376401334677601639128996520654
88,1.43606724626140739025326680407306
89,1.43834440852669144552470421981989
90,1.44059608403689846041104672746278
91,1.44282283727948605338924225213257
92,1.44502521418600246961982377217990
93,1.44720374293684674654548106521115
94,1.44935893472285681327560759371522
95,1.45149128446647542432729105170986
96,1.45360127150504200617691199100700
97,1.45568936023857415296675190594307
98,1.45775600074422963341658478091276
99,1.45980162935948629880083646122127
100,1.46182666923593094143611853430982
101,1.46383153086541884896925881434034
102,1.46581661258024022503502981249640
103,1.46778230102882173323989366566426
104,1.46972897162838415671752249844135
105,1.47165698899588409174525560538109
106,1.47356670735847682966667869382579
107,1.47545847094465949941025682335736
108,1.47733261435717430333955193427535
109,1.47918946292868308563632850596395
110,1.48102933306116205229292766598248
111,1.48285253254989960059164664042077
112,1.48465936089293078231545623643414
113,1.48645010958668638914034030252597
114,1.48822506240858589090313043812537
115,1.48998449568726300893620044444426
116,1.49172867856106437501216041765211
117,1.49345787322543001343492031690675
118,1.49517233516972335270788903947211
119,1.49687231340404475949388317755393
120,1.49855805067653674534620644190087
121,1.50022978368165072944623414414828
122,1.50188774325982632745002455567865
123,1.50353215458900194361445705435677
124,1.50516323736835776356478654750286
125,1.50678120599466267880233514103920
126,1.50838626973158147675354729685058
127,1.50997863287227805227519319504259
128,1.51155849489562780934062253915083
129,1.51312605061634034839390298971646
130,1.51468149032927515299136881765744
131,1.51622499994821758523203724916418
132,1.51775676113936752227750663539191
133,1.51927695144978118467821999846459
134,1.52078574443099543126372316258198
135,1.52228330975804568701238522485117
136,1.52376981334408498278567917358974
137,1.52524541745079827786823863355741
138,1.52671028079479262426465049598872
139,1.52816455865014162579813849137089
140,1.52960840294724719908800870038688
141,1.53104196236817708599296754022399
142,1.53246538243862849384004565866583
143,1.53387880561665958958982406411412
144,1.53528237137832339445151474491407
145,1.53667621630033443770249836540956
146,1.53806047413989065971580201054940
147,1.53943527591176485123314935429111
148,1.54080074996278095788789433372380
149,1.54215702204377705090763756345601
150,1.54350421537915860484953634314329
151,1.54484245073413799659700684503819
152,1.54617184647975052476241530732697
153,1.54749251865573589916326343206787
154,1.54880458103136909958767538205708
155,1.55010814516431883981497157917477
156,1.55140332045761150322715557442997
157,1.55269021421477159658724450756498
158,1.55396893169321054005757185146115
159,1.5552395761559274662635213807330
160,1.5565022489215883659121922884314
161,1.5577570494130420760568910833610
162,1.5590040752043325720786119794274
163,1.5602434220662624166538530744007
164,1.5614751840105620022734423466361
165,1.5626994533327131874998453212067
166,1.5639163206534778425217269246069
167,1.5651258749591785362948862273556
168,1.5663282036407740541528238784583
169,1.5675233925317748079475944772817
170,1.5687115259450378818061466998211
171,1.5698926867084819079329783544604
172,1.5710669561997596390865737863472
173,1.5722344143799236200303267331697
174,1.5733951398261208014415128455418
175,1.5745492097633500811810960939390
176,1.5756967000953124792468710011938
177,1.5768376854343872069170685319465
178,1.5779722391307627844502667817268
179,1.5791004333007496522570252101354
180,1.5802223388543052219117174026649
181,1.5813380255217940155602905339134
182,1.5824475618800105890788527031490
183,1.5835510153774882882264133101944
184,1.5846484523591180792973192160733
185,1.5857399380900992623658484734390
186,1.5868255367792430357118475181484
187,1.5879053116016527118936053015280
188,1.5889793247207960217516046725559
189,1.5900476373099932373996224240606
190,1.5911103095733367652465994905576
191,1.5921674007660614315665281890836
192,1.5932189692143818427839391168705
193,1.5942650723348151242870987393035
194,1.5953057666530023785148697602515
195,1.5963411078220467946389694574225
196,1.5973711506403821017037516872731
197,1.5983959490691857405063304785298
198,1.5994155562493509161577786942522
199,1.6004300245180303651402569747674
200,1.6014394054247657770207521175139
201,1.6024437497472138471996963363758
202,1.6034431075064823368051099894957
203,1.6044375279820867944140924081347
204,1.6054270597265395544623636395729
205,1.6064117505795809776536821606040
206,1.6073916476820659520652154693568
207,1.6083667974895115255740581972975
208,1.6093372457853198910088893903398
209,1.6103030376936824668538541180264
210,1.6112642176921765691031428186114
211,1.6122208296240620332221540205942
212,1.6131729167102880133368390024473
213,1.6141205215612143365383693816998
214,1.6150636861880623879864353403116
215,1.6160024520140947330349983561130
216,1.6169368598855374308305438553452
217,1.6178669500822489984176733060840
218,1.6187927623281449977943446232938
219,1.6197143358013815188448780359411
220,1.6206317091443100662709310444859
221,1.6215449204732017528022138976825
222,1.6224540073877579960444234055961
223,1.6233590069804012797875135051536
224,1.6242599558453610390642213829247
225,1.6251568900875572254929192004402
226,1.6260498453312850908373868121963
227,1.6269388567287098316212926538678
228,1.6278239589681729049881274798399
229,1.6287051862823171679413283390784
230,1.6295825724560355261922129541477
231,1.6304561508342448818695667971847
232,1.6313259543294957889946887085558
233,1.6321920154294128022094582484431
234,1.6330543662039816648060954698491
235,1.6339130383126765071414273867477
236,1.6347680630114367541864400104560
237,1.6356194711594973623201802040413
238,1.6364672932260741163612340508747
239,1.6373115592969094223980937213337
240,1.6381522990806807498162750512516
241,1.6389895419152760038514314471008
242,1.6398233167739386845986788741568
243,1.6406536522712868632305684929803
244,1.6414805766692076636394173550227
245,1.6423041178826316225934931338144
246,1.6431243034851894469531898839113
247,1.6439411607147525497112882859902
248,1.6447547164788649453894511902651
249,1.6455649973600614732846210325288
250,1.6463720296210827326637728537129
251,1.6471758392099846293117866887954
252,1.6479764517651453313252672874297
253,1.6487738926201747057480505628506
254,1.6495681868087258922980426912979
255,1.6503593590692128936077479049360
256,1.6511474338494342667375099971493
257,1.6519324353111093066987239222541
258,1.6527143873343231660381608772319
259,1.6534933135218877133264339502448
260,1.6542692372036185162474564980830
261,1.6550421814405282623386648824723
262,1.6558121690289413421061701656139
263,1.6565792225045284443944103300041
264,1.6573433641462666141602035598199
265,1.6581046159803232971760953601248
266,1.6588629997838665386923755848386
267,1.6596185370888045485868510302707
268,1.6603712491854546659981937489422
269,1.6611211571261459926390528607607
270,1.6618682817287514182099009260431
271,1.6626126435801583211468223473428
272,1.6633542630396719235437360397970
273,1.6640931602423587426401729214030
274,1.6648293551023273471682380748816
275,1.6655628673159502934146124056988
276,1.6662937163650255186257033165337
277,1.6670219215198846750460471631591
278,1.6677475018424401585134750556486
279,1.6684704761891823340551804063520
280,1.6691908632141190513302689323729
281,1.6699086813716653387215215452307
282,1.6706239489194807723242218836137
283,1.6713366839212577322580252740169
284,1.6720469042494577028165535026541
285,1.6727546275880024236946821435729
286,1.6734598714349159170185825899626
287,1.6741626531049224494487978887445
288,1.6748629897319968311119437350298
289,1.6755608982718716994046505336484
290,1.6762563955045025201762823339495
291,1.6769494980364881472102493786870
292,1.6776402223034498248895546272316
293,1.6783285845723725398007656693682
294,1.6790146009439037581697966038696
295,1.6796982873546116362542495772659
296,1.6803796595792102892309178098903
297,1.6810587332327420502826910884397
298,1.6817355237727260366153874679209
299,1.6824100465012698252387215209242
300,1.6830823165671459890937197848914
301,1.6837523489678339049408074475602
302,1.6844201585515289259177995607811
303,1.6850857600191160918729552253280
304,1.6857491679261119549787103684181
305,1.6864103966845759491288106798648
306,1.6870694605649905663150825412718
307,1.6877263736981075219331184741371
308,1.6883811500767673874418283540946
309,1.6890338035576887796382324875129
310,1.6896843478632274416902330010662
311,1.6903327965831088108262749153405
312,1.6909791631761315858100273904312
313,1.6916234609718436869457165778217
314,1.6922657031721924128833113685028
315,1.6929059028531481138626637097542
316,1.6935440729663027570349294096160
317,1.6941802263404409224621283663996
318,1.6948143756830885810358976399001
319,1.6954465335820367958734815099050
320,1.6960767125068403484452878295805
321,1.6967049248102952083644415176921
322,1.6973311827298909612649411606837
323,1.6979554983892417088041168483591
324,1.6985778837994944179244805961187
325,1.6991983508607164813522593970061
326,1.6998169113632607265547496170073
327,1.7004335769891106939083667486419
328,1.7010483593132033732674032992264
329,1.7016612698047343737881736124970
330,1.7022723198284419586702959407823
331,1.7028815206458713833871272977382
332,1.7034888834166205986251630899279
333,1.7040944191995676964654203543830
334,1.7046981389540782838083097729188
335,1.7053000535411970979521805413795
336,1.7059001737248199223549157935440
337,1.7064985101728486748018876481003
338,1.7070950734583307268102107489940
339,1.7076898740605785187537360163292
340,1.7082829223662755620264241709756
341,1.7088742286705645417991835233843
342,1.7094638031781200174970520467584
343,1.7100516560042053587633478342040
344,1.7106377971757139105951207990837
345,1.7112222366321962069613351584887
346,1.7118049842268707076760281821999
347,1.7123860497276216238623369092392
348,1.7129654428179806437085715588535
349,1.7135431730980961034182821416820
350,1.7141192500856871456718377030091
351,1.7146936832169849531811278633541
352,1.7152664818476607396796225733942
353,1.7158376552537397827036261104244
354,1.7164072126325029126189806550016
355,1.7169751631033758231547623323031
356,1.7175415157088044132108800694638
357,1.7181062794151193989621279043437
358,1.7186694631133894402447086114074
359,1.7192310756202585263485864147043
360,1.7197911256787765591196708919854
361,1.7203496219592148782263971255278
362,1.7209065730598732101758537126610
363,1.7214619875078726366786175376837
364,1.7220158737599396063420787598566
365,1.7225682402031792260455127817417
366,1.7231190951558367096533747103985
367,1.7236684468680498760639354694202
368,1.7242163035225894853091344771837
369,1.7247626732355920452387222327965
370,1.7253075640572808019514415682819
371,1.7258509839726777672703838220952
372,1.7263929409023057397295586654925
373,1.7269334427028802857757332944977
374,1.7274724971679959896532108026682
375,1.7280101120287976635298123134671
376,1.7285462949546479740682438948522
377,1.7290810535537832746415908000694
378,1.7296143953739608105935311529272
379,1.7301463279030991373330374887180
380,1.7306768585699085080169967753347
381,1.7312059947445141062448876707162
382,1.7317337437390692419240578160275
383,1.7322601128083631849551402717998
384,1.7327851091504186004268003630137
385,1.7333087399070822065621645582583
386,1.7338310121646093140573586164541
387,1.7343519329542379961351700491310
388,1.7348715092527568260984710490922
389,1.7353897479830668570548068546582
390,1.7359066560147350329027086817308
391,1.7364222401645393475048085713888
392,1.7369365071970093604079768774615
393,1.7374494638249595425802960345349
394,1.7379611167100140332442460205630
395,1.7384714724631256646610707822628
396,1.7389805376450889057157133453287
397,1.7394883187670463541919469103637
398,1.7399948222909887858536132346170
399,1.7405000546302473261041156851308
400,1.7410040221499820441627786846849
401,1.7415067311676630186585740684056
402,1.7420081879535446198380663521294
403,1.7425083987311358291081613088034
404,1.7430073696776644889834367759314
405,1.7435051069245329488634894741782
406,1.7440016165577712156549574569640
407,1.7444969046184847259381671010038
408,1.7449909771032942428524263959047
409,1.7454838399647707387566005773679
410,1.7459754991118677781228565149051
411,1.7464659604103456606614259861009
412,1.7469552296831909072449408327528
413,1.7474433127110321676713864150082
414,1.7479302152325489740905486579698
415,1.7484159429448776240357017095840
416,1.7489005015040106226729555245120
417,1.7493838965251925327342176814873
418,1.7498661335833093953490506017738
419,1.7503472182132760002663173295386
420,1.7508271559104159873667495480638
421,1.7513059521308387316287858702101
422,1.7517836122918122931291567637747
423,1.7522601417721302681971562974414
424,1.7527355459124761554254720299152
425,1.7532098300157816158761224795875
426,1.7536829993475822342994450708344
427,1.7541550591363682659735541953553
428,1.7546260145739303828292062853416
429,1.7550958708157043312248733354341
430,1.7555646329811073634541524801251
431,1.7560323061538739466159671773373
432,1.7564988953823878983373490347970
433,1.7569644056800062872213638643292
434,1.7574288420253861959320908212014
435,1.7578922093628021705655247558600
436,1.7583545126024622572702533174150
437,1.7588157566208207874617859705748
438,1.7592759462608868936669719692522
439,1.7597350863325294372760934608903
440,1.7601931816127794193881009910036
441,1.7606502368461270345732117507127
442,1.7611062567448169311705345550645
443,1.7615612459891413257867292708947
444,1.7620152092277255913369971034543
445,1.7624681510778156492565165516166
446,1.7629200761255581902009911746806
447,1.7633709889262808923735349363696
448,1.7638208940047658556472132120064
449,1.7642697958555240919559512655509
450,1.7647176989430632243618836229639
451,1.7651646077021558978601324713615
452,1.7656105265381017432355507932896
453,1.7660554598269886370085688122221
454,1.7664994119159496463847894458757
455,1.7669423871234192830447215740539
456,1.7673843897393843627375595808913
457,1.7678254240256341663493714240273
458,1.7682654942160062983055986162854
459,1.7687046045166307561955556061494
460,1.7691427591061718539241866586506
461,1.7695799621360658480778736973378
462,1.7700162177307574805161397681885
463,1.7704515299879340409209124014441
464,1.7708859029787551101702690931866
465,1.7713193407480819532319692862334
466,1.7717518473147036922332841169649
467,1.7721834266715595401827905756042
468,1.7726140827859621109433770868921
469,1.7730438195998142821119120676999
470,1.7734726410298271353039724724402
471,1.7739005509677332409077748281994
472,1.7743275532804995848759742523077
473,1.7747536518105354884140815392221
474,1.7751788503759030245149285005564
475,1.7756031527705188540493246192970
476,1.7760265627643599951728341862619
477,1.7764490841036638589991746287396
478,1.7768707205111272274817215891455
479,1.7772914756861030628400108415576
480,1.7777113533047955430636145882136
481,1.7781303570204518743193627928597
482,1.7785484904635544489990577803891
483,1.7789657572420087293535231714918
484,1.7793821609413296764165026311821
485,1.7797977051248282010413420078107
486,1.7802123933337922217905436644445
487,1.7806262290876691784050872930181
488,1.7810392158842445972849193622461
489,1.7814513571998199370233903921244
490,1.7818626564893875769822795891524
491,1.7822731171868050830491688148688
492,1.7826827427049673386203324394126
493,1.7830915364359765156724691760870
494,1.7834995017513109798147560050173
495,1.7839066420019913216664460705571
496,1.7843129605187467588276712841397
497,1.7847184606121775938087714495654
498,1.7851231455729176730131696787378
499,1.7855270186717943439338436950537
500,1.785930083159988040871964278192
501,1.786332342269187245021695528336
502,1.786733799211746273905032917813
503,1.787134457180837368080494426141
504,1.787534319350604918758553316965
505,1.787933388876314683579396750007
506,1.788331668894503720427376138510
507,1.788729162523128887091900278373
508,1.789125872861713546512493995291
509,1.789521802991490708272393398810
510,1.789916955975548659349111699699
511,1.790311334858972314965675276265
512,1.790704942668984189505096156219
513,1.791097782415083602989580262333
514,1.791489857089184799352029306160
515,1.791881169665754350562489929142
516,1.792271723101946056762318849173
517,1.792661520337734416961073276982
518,1.793050564296048455498165591229
519,1.793438857882902686029554983512
520,1.793826403987528069859281710922
521,1.794213205482499763660878719945
522,1.794599265223865932606300770351
523,1.794984586051274065876282995452
