Eigenstate,Potential Energy
1,0.500000000105297175049654103300686309
2,0.64623093833844175953530285347306636
3,0.73633761172395286364073129237138616
4,0.79966528201956428283113055949298838
5,0.8480465825702285736876819236268326
6,0.8870660081425494364025674520514119
7,0.9197208401803263476627242349062749
8,0.9477838650635124071375407655822940
9,0.9723835818001794301508042292826119
10,0.9942802445400788448315847468864352
11,1.0140094234250994281427988118620080
12,1.0319622137605358281997453639734709
13,1.0484327456127548919853903304606482
14,1.0636477166654000908747578597259520
15,1.0777855080336022900586265454597174
16,1.090988989134441145789049092549968
17,1.103374351148460169833766209249089
18,1.115037358025873480994551127738642
19,1.126057869590548516962825999928813
20,1.136503179173946122165456997073906
21,1.146430519696820388351209201359769
22,1.155888974827960768400680064685938
23,1.164920956920718230511600560648822
24,1.173563364413428570420193397794019
25,1.181848498625339703930991030188055
26,1.189804797564200132129126373143735
27,1.197457428888835352035273347301518
28,1.204828773268188163783503028729561
29,1.211938821583270995199845833724731
30,1.218805503768990789245135320272792
31,1.225444962946868495347067663583145
32,1.231871785421775617776407121531090
33,1.238099194806162467801118761821044
34,1.244139216784706498513123933433751
35,1.250002819693114034278214662267126
36,1.255700035051329827282997615046009
37,1.261240061387324324439625197816049
38,1.266631354057209784239117178706603
39,1.271881703269587733221109627078161
40,1.276998302126209467869531759083860
41,1.281987806174281033778526074264947
42,1.286856385710751512236229251419064
43,1.291609771872437099306527821360744
44,1.296253297377739446864636578071201
45,1.300791932648147165949760976841242
46,1.305230317924573110127861823063066
47,1.309572791900103444163966393200632
48,1.313823417313148139005474128350667
49,1.317986003880319990140235049889463
50,1.32206412889424654270628680781524
51,1.32606115576605234423016938065414
52,1.32998025075390373154813254035510
53,1.33382439808655823989941480588609
54,1.33759641366329959070880378369440
55,1.34129895748816372205028851632368
56,1.34493454497628675564718991219171
57,1.34850555725300682913553263630126
58,1.35201425055155453601883499281300
59,1.35546276480241276845978515117356
60,1.35885313149640225034688728657995
61,1.36218728089398482056420630135905
62,1.36546704864497552127494590485919
63,1.36869418187561265700511058721398
64,1.37187034479362251038842014969792
65,1.37499712385638056045843281258845
66,1.37807603254242371031702524495747
67,1.38110851576230573968083745480210
68,1.38409595394103203699705992811204
69,1.38703966680099699509182885039472
70,1.38994091687141918604856879080627
71,1.39280091274767072728255204483312
72,1.39562081212159900839591592812929
73,1.39840172460188594199424082657875
74,1.40114471434167105309147525129815
75,1.40385080248903362062712102237110
76,1.40652096947447952786313941379273
77,1.40915615714827608001022096856741
78,1.41175727077931224925218097682639
79,1.41432518092611498734480573252928
80,1.41686072518971412032056990642201
81,1.41936470985719899835451580785084
82,1.42183791144404862329230977802641
83,1.42428107814262824255200480962037
84,1.42669493118362110639502771913168
85,1.42908016611660480938798890526236
86,1.43143745401546577148764514028797
87,1.43376744261388794338193810845871
88,1.43607075737572844298375547992616
89,1.43834800250470932781329189604912
90,1.44059976189751149127525213604335
91,1.44282660004403521878723406575689
92,1.44502906287830364217587083474875
93,1.44720767858322307570276206969431
94,1.44936295835217128834351075544176
95,1.45149539711016361291512552815828
96,1.45360547419714497053025625526497
97,1.45569365401577154674805151772579
98,1.45776038664587298149618518431394
99,1.45980610842763246265073365563082
100,1.46183124251537577274381890707226
101,1.46383619940373103411570566177928
102,1.46582137742779532310650718142251
103,1.46778716323883641027053052105075
104,1.46973393225695061888655027029060
105,1.47166204910200472027984672972157
106,1.47357186800409902022928762060291
107,1.47546373319471070877760263571157
108,1.47733797927959730620846274002848
109,1.47919493159447144442116881914089
110,1.48103490654439580280806201033570
111,1.48285821192778115654236004590981
112,1.48466514724582106155101232059512
113,1.48645600399814116465316166015248
114,1.48823106596539236958934537052442
115,1.48999060947947664116411510923706
116,1.49173490368204589807735427240138
117,1.49346421077188273201279689080772
118,1.49517878624173065944764653199964
119,1.49687887910510789893108484677832
120,1.49856473211361282434527031970474
121,1.50023658196519097741828653404241
122,1.50189465950381460962660538723449
123,1.50353918991099353069300521736087
124,1.50517039288951836107771967791082
125,1.50678848283980771959824311585554
126,1.50839366902921568001600641038900
127,1.50998615575463525254223183543627
128,1.51156614249871105902642660019344
129,1.51313382407996229735281343393221
130,1.51468939079709870870372712668470
131,1.51623302856779685723149628281467
132,1.51776491906218905448044154511783
133,1.51928523983130547931591279287357
134,1.52079416443069876816140235363691
135,1.52229186253946224200093928703482
136,1.52377850007484924907468132561068
137,1.52525423930268779425364251903664
138,1.52671923894377101408855100564984
139,1.52817365427640195062327609329951
140,1.52961763723525563109580857590973
141,1.53105133650671690315999433538715
142,1.53247489762084440199593668408987
143,1.53388846304010237550723628429539
144,1.53529217224499491416778380941300
145,1.53668616181673294432201497094507
146,1.53807056551705647499285135535487
147,1.53944551436532638528605993855918
148,1.54081113671300108144684692821149
149,1.54216755831559982455221974730301
150,1.54351490240225636974420436560391
151,1.54485328974295883128906991996395
152,1.54618283871356607266067405145009
153,1.54750366535868957137263486794919
154,1.54881588345252465783156699041616
155,1.55011960455770936423553160246115
156,1.55141493808228874991256952332507
157,1.55270199133485574973412041510638
158,1.55398086957794036373819414058161
159,1.5552516760797108608287029355413
160,1.5565145121640533341236710866158
161,1.5577694772590881041064599069350
162,1.5590166689441824307161383696190
163,1.5602561829955143877112827174294
164,1.5614881134302425359399133986561
165,1.5627125525493299957696219467557
166,1.5639295909790734343061790161576
167,1.5651393177113841997591410907025
168,1.5663418201428642919093690872269
169,1.5675371841127222308110504672453
170,1.5687254939395685668867750525346
171,1.5699068324571312269210258298874
172,1.5710812810489285626553732902418
173,1.5722489196819355043622568095993
174,1.5734098269392786629609260047410
175,1.5745640800519943656555420713892
176,1.5757117549298793315001488489897
177,1.5768529261914672474792216063730
178,1.5779876671931603995525474115717
179,1.5791160500575428036650870709905
180,1.5802381457009057831764959357851
181,1.5813540238600086413526002294526
182,1.5824637531181021243633816396075
183,1.5835674009302377241206735299081
184,1.5846650336478870625531690972210
185,1.5857567165428931655048842002937
186,1.5868425138307745949390978022953
187,1.5879224886934062400125030354803
188,1.5889967033010922033994290217128
189,1.5900652188340545140231328431031
190,1.5911280955033533173381401763078
191,1.5921853925712577657843878224011
192,1.5932371683710839916844885608636
193,1.5942834803265184665030611724865
194,1.5953243849704400873217203849616
195,1.5963599379632589229617804964402
196,1.5973901941107853117276382658437
197,1.5984152073816436861680156141598
198,1.5994350309242452869100799313829
199,1.6004497170833325995002165373628
200,1.6014593174161094545296763325910
201,1.6024638827079677675449464747870
202,1.6034634629878242949785117161127
203,1.6044581075430780609045102355335
204,1.6054478649342000696097298455820
205,1.6064327830089652694195003974749
206,1.6074129089163397866080785407528
207,1.6083882891200293001515483195303
208,1.6093589694117027788638555620731
209,1.6103249949238973238822339329600
210,1.6112864101426156122405610672206
211,1.6122432589196233006302484117850
212,1.6131955844844566166160814237742
213,1.6141434294561445153434518568879
214,1.6150868358546603775689638839278
215,1.6160258451121024553936768317955
216,1.6169604980836170203045965489970
217,1.6178908350580681727174803954485
218,1.6188168957684632856245700604245
219,1.6197387194021373554419262457724
220,1.6206563446107087683405128364626
221,1.6215698095198043845150119121401
222,1.6224791517385711379205630133390
223,1.6233844083689677124760595458368
224,1.6242856160148513542029425443837
225,1.6251828107908623760172855643982
226,1.6260760283311098932915138435431
227,1.6269653037976674332123930474609
228,1.6278506718888802283196748796853
229,1.6287321668474913465541001878271
230,1.6296098224685913442413434703696
231,1.6304836721073932314690066038555
232,1.6313537486868431589659386955350
233,1.6322200847050618121809602905364
234,1.6330827122426326588240817981662
235,1.6339416629697302211686600758498
236,1.6347969681530980720877640170348
237,1.6356486586628801751586378637100
238,1.6364967649793073000572666593564
239,1.6373413171992439490378578527575
240,1.6381823450425979481333504591242
241,1.6390198778585969846466325550450
242,1.6398539446319349471095423283229
243,1.6406845739887920987136813005781
244,1.6415117942027307726825694473346
245,1.6423356332004709629346542952419
246,1.6431561185675483288502007471225
247,1.6439732775538559961724877069475
248,1.6447871370790777348523707417443
249,1.6455977237380074826080054873028
250,1.6464050638057655985839478177627
251,1.6472091832429097468046505334579
252,1.6480101077004432076080355181901
253,1.6488078625247256889594462421704
254,1.6496024727622862941997379269706
255,1.6503939631645425259622906759812
256,1.6511823581924254113372165457602
257,1.6519676820209171393427096797372
258,1.6527499585434976550855309070892
259,1.6535292113765070137903152224412
260,1.6543054638634238807365949488738
261,1.6550787390790604905027374208789
262,1.6558490598336787905976697843223
263,1.6566164486770266197210480355962
264,1.6573809279022993711731978189072
265,1.6581425195500256663144439342466
266,1.6589012454118792054889335161160
267,1.6596571270344200093314526389697
268,1.6604101857227650838534605621531
269,1.6611604425441927789107185925816
270,1.6619079183316765638866425394898
271,1.6626526336873575042480222186155
272,1.6633946089859494182447679297071
273,1.6641338643780841565826481216425
274,1.6648704197935942138106864484754
275,1.6656042949447365467356925600564
276,1.6663355093293558779574858945345
277,1.6670640822339949682891468458567
278,1.6677900327369436124693655124382
279,1.6685133797112378611056509161058
280,1.6692341418276015621961647628131
281,1.6699523375573381115469121394218
282,1.6706679851751699088552538578453
283,1.6713811027620287324196033626025
284,1.6720917082077941895349978090159
285,1.6727998192139870503713125870602
286,1.6735054532964134906228688610381
287,1.6742086277877653027819582596308
288,1.6749093598401724783788373448053
289,1.6756076664277128098353567683146
290,1.6763035643488792450525963576615
291,1.6769970702290028362794223646072
292,1.6776882005226341687867543383353
293,1.6783769715158871757544369852115
294,1.6790633993287403769321208490827
295,1.6797474999172976288749636118583
296,1.6804292890760159729911947127939
297,1.6811087824398905138112787926677
298,1.6817859954866056449325339848756
299,1.6824609435386494262132678356724
300,1.6831336417653928635507109922178
301,1.6838041051851345034270723523625
302,1.6844723486671124359184220842725
303,1.6851383869334808800735646155626
304,1.6858022345612549299876249955185
305,1.6864639059842248909102512917198
306,1.6871234154948394694367344061259
307,1.6877807772460550006069554409938
308,1.6884360052531581912249789149769
309,1.6890891133955584695726110046662
310,1.6897401154185502775882553955067
311,1.6903890249350489013619406308890
312,1.6910358554272973540404442534487
313,1.6916806202485457048847076057109
314,1.6923233326247046597559396531747
315,1.6929640056559727137083496156692
316,1.6936026523184382523827186289939
317,1.6942392854656541418822266204750
318,1.6948739178301901594765878847696
319,1.6955065620251604078180643437528
320,1.6961372305457257150816319480316
321,1.6967659357705749411344782812750
322,1.6973926899633813053702492881327
323,1.6980175052742372514728127418099
324,1.6986403937410668275062353309287
325,1.6992613672910173445938756601039
326,1.6998804377418285527293596538854
327,1.7004976168031821558106460629403
328,1.7011129160780288564722470920086
329,1.7017263470638979069722258587178
330,1.7023379211541855992385969136692
331,1.7029476496394241341167513166816
332,1.7035555437085319325492656462101
333,1.7041616144500457687570541622516
334,1.7047658728533329110031166300543
335,1.7053683298097875864601958118239
336,1.7059689961140078298603557322749
337,1.7065678824649555898432944083229
338,1.7071649994671011535548065876366
339,1.7077603576315479557520671981903
340,1.7083539673771438655399749549934
341,1.7089458390315746661470684052132
342,1.7095359828324422267639773552656
343,1.7101244089283270061492904782886
344,1.7107111273798348836742818022081
345,1.7112961481606301391517849682004
346,1.7118794811584520583025042877979
347,1.7124611361761187313277156009870
348,1.7130411229325148584706810027013
349,1.7136194510635671097035416816173
350,1.7141961301232045831513837105256
351,1.7147711695843064521723992812226
352,1.7153445788396364858444890920990
353,1.7159163672027637296702208917843
354,1.7164865439089707634784915429066
355,1.7170551181161499043618389571228
356,1.7176220989056855670663934449122
357,1.7181874952833260235662569402376
358,1.7187513161800438085861820121117
359,1.7193135704528805190424292098753
360,1.7198742668857849482262499257919
361,1.7204334141904363025731946127227
362,1.7209910210070589856706598606966
363,1.7215470959052235482441147003473
364,1.7221016473846388313275183043447
365,1.7226546838759335422731784566098
366,1.7232062137414261446452418221872
367,1.7237562452758859574676236272867
368,1.7243047867072822561094834970143
369,1.7248518461975260109920841552525
370,1.7253974318431999810296620032403
371,1.7259415516762800189464809738506
372,1.7264842136648465488860325104009
373,1.7270254257137861870589947735854
374,1.7275651956654878180538986926158
375,1.7281035313005238226333124321244
376,1.7286404403383279175865226343040
377,1.7291759304378614013390233031252
378,1.7297100091982709773155166570888
379,1.7302426841595399995852402503329
380,1.7307739628031299023943170982668
381,1.7313038525526146940020244963158
382,1.7318323607743056380910033635435
383,1.7323594947778708026682160445100
384,1.7328852618169444455394051741284
385,1.7334096690897298631500029903802
386,1.7339327237395963671249540899310
387,1.7344544328556661436909344435543
388,1.7349748034733949387700381515420
389,1.7354938425751472496031113088693
390,1.7360115570907632183347944760774
391,1.7365279538981175510148286379370
392,1.7370430398236740770795060046808
393,1.7375568216430334296782792327707
394,1.7380693060814724350075011202613
395,1.7385804998144780747936731032593
396,1.7390904094682756802667485876757
397,1.7395990416203509952095196146292
398,1.7401064027999661241309671024272
399,1.7406124994886679394699114788265
400,1.7411173381207932561568793554885
401,1.7416209250839668310511755395424
402,1.7421232667195929413222624245697
403,1.7426243693233433716162541712726
404,1.7431242391456397124725272743864
405,1.7436228823921274450835760805574
406,1.7441203052241479313500457822608
407,1.7446165137592054361831094791677
408,1.7451115140714266957583406603039
409,1.7456053121920159036409819848359
410,1.7460979141097076404128325712962
411,1.7465893257712120183066342597872
412,1.7470795530816556352734485194071
413,1.7475686019050194297332170752246
414,1.7480564780645698724132181628846
415,1.7485431873432877921746470935887
416,1.7490287354842912787975253115651
417,1.7495131281912555249514399505788
418,1.7499963711288267847531125867394
419,1.7504784699230347420240252906891
420,1.7509594301616982852235384141517
421,1.7514392573948286567592996944748
422,1.7519179571350292742869553237967
423,1.7523955348578900766413996539666
424,1.7528719960023800251539712392236
425,1.7533473459712341572748644654003
426,1.7538215901313388174636200787617
427,1.7542947338141125686737468561717
428,1.7547667823158828174138351715975
429,1.7552377408982620846857756957714
430,1.7557076147885168054606627131807
431,1.7561764091799361815708279861726
432,1.7566441292321982594420229654232
433,1.7571107800717285931814454787763
434,1.7575763667920626143403606098020
435,1.7580408944541995561488596629092
436,1.7585043680869558581536941331276
437,1.7589667926873162383957255514323
438,1.7594281732207814418015333379300
439,1.7598885146217133736204460338298
440,1.7603478217936787175499321762479
441,1.7608060996097882278076835350915
442,1.7612633529130352891919634707904
443,1.7617195865166334242630724315897
444,1.7621748052043473995231100148709
445,1.7626290137308272948863931998006
446,1.7630822168219365955768302741896
447,1.7635344191750815116240589582378
448,1.7639856254595347804092149988036
449,1.7644358403167618313248095565666
450,1.7648850683607415049039470039294
451,1.7653333141782888708451087550944
452,1.7657805823293730290680954107081
453,1.7662268773474356811919509079747
454,1.7666722037397069073038578294621
455,1.7671165659875218194449998539164
456,1.7675599685466334380963944940611
457,1.7680024158475265384545863925231
458,1.7684439122957289153276660737053
459,1.7688844622721226354654869041223
460,1.7693240701332549765742582845861
461,1.7697627402116469617628154354420
462,1.7702004768161027636774845056260
463,1.7706372842320186456150168435521
464,1.7710731667216896664093956853138
465,1.7715081285246181862086729281416
466,1.7719421738578213748370852264306
467,1.7723753069161370769314940620044
468,1.7728075318725331260288151211562
469,1.7732388528784126637608351654542
470,1.7736692740639230712540385837229
471,1.7740987995382628655991408775789
472,1.7745274333899909481261697295312
473,1.7749551796873336480150142846379
474,1.7753820424784971615309927885440
475,1.7758080257919744097537401562652
476,1.7762331336368589327270003631551
477,1.7766573700031562613388534471459
478,1.7770807388620975555898713983397
479,1.7775032441664545158818458263206
480,1.7779248898508560839624163246053
481,1.7783456798321056114352783432455
482,1.7787656180095021969136752915930
483,1.7791847082651617095914362379613
484,1.7796029544643404625117802648473
485,1.7800203604557631619480308294133
486,1.7804369300719498735347059653162
487,1.7808526671295490163996794174090
488,1.7812675754296711511559244655028
489,1.7816816587582269665025679236946
490,1.7820949208862675117542254358484
491,1.7825073655703290017413243112720
492,1.7829189965527809828443869421972
493,1.7833298175621780445154986669039
494,1.7837398323136163889370639241492
495,1.7841490445090936796188735625999
496,1.7845574578378756518431221998283
497,1.7849650759768654197054999923969
498,1.7853719025909796854565727129737
499,1.7857779413335296207955968446005
500,1.786183195846608835326213152230
501,1.786587669761484476065037858670
502,1.786991366698999224779287476949
503,1.787394290269975987423102409695
504,1.787796444075633460897243864289
505,1.788197831708005782107027804706
506,1.788598456750372363847977757267
507,1.788998322777696157893621073202
508,1.789397433357070396380729326093
509,1.789795792048172473479874838649
510,1.790193402403731472557962101143
511,1.790590267970003044078362204590
512,1.790986392287256031955782471738
513,1.791381778890269986286155141866
514,1.791776431308844787188246711740
515,1.792170353068323329889073486598
516,1.792563547690126086370707623772
517,1.792956018692299254184986813230
518,1.793347769590078946226046368821
519,1.793738803896468906325103121702
520,1.794129125122835347164424655042
521,1.794518736779516483869196027927
522,1.794907642376451858671592912066
523,1.795295845423828756444431252611
