Eigenstate,Potential Energy
1,0.500000000110207285868300523282125937
2,0.64623093837049265738315109121938054
3,0.73633761181810094499495957031589267
4,0.79966528221566728236303683007048269
5,0.8480465829099263745668496570783813
6,0.8870660086682152823048654616652245
7,0.9197208409346811113343549409134503
8,0.9477838660894643695868827268330899
9,0.9723835831407503707277439631249997
10,0.9942802462383670752306007753715170
11,1.0140094255242602187191021991699888
12,1.0319622163037706979444082858540496
13,1.0484327486433057247166186184210274
14,1.0636477202265460297410885652741086
15,1.0777855121686583089733370392718449
16,1.090988993886757675070031796527679
17,1.103374356561423408441770563910365
18,1.115037364142906170082901710513903
19,1.126057876455111032074947923610238
20,1.136503186829537791096066741873119
21,1.146430528186980972501750566318460
22,1.155888984196272065110389210414670
23,1.164920967210805766692497739555685
24,1.173563375668963366413361919048248
25,1.181848510890040092361593849942523
26,1.189804810881833620610200648628646
27,1.197457443303220521448775529288062
28,1.204828788823196595933131009219764
29,1.211938838322829225134345604111055
30,1.218805521737082278660345265849385
31,1.225444982187535624303408339611651
32,1.231871805979121692594106144633458
33,1.238099216724353743472846612321306
34,1.244139240107974214341612810971918
35,1.250002844465756461732570628826350
36,1.255700061317714329291926942007907
37,1.261240089191889425517365991077442
38,1.266631383444467250981456473927521
39,1.271881734284124664822563200153485
40,1.276998334812690396404753848972235
41,1.281987840577450034065891444931049
42,1.286856421875434321162960919079826
43,1.291609809843543244545426460166234
44,1.296253337200264384954460691161075
45,1.300791974367174429746532793380156
46,1.305230361585276465663848224340197
47,1.309572837547749056976089746972191
48,1.313823464993096750016157096174543
49,1.317986053638029101191840750050561
50,1.32206418077527261186599972831297
51,1.32606120981605299099576573195277
52,1.32998030701863995209686512608301
53,1.33382445661189663253269459784831
54,1.33759647449521459165452341410663
55,1.34129902067273985179278176925019
56,1.34493461055972087596221186819701
57,1.34850562528161041101416114768019
58,1.35201432107175593867028479211862
59,1.35546283786075952958856134418307
60,1.35885320713956338790477648323259
61,1.36218735916875314618229926589011
62,1.36546712959826996558529347630960
63,1.36869426555448060706570355277445
64,1.37187043124524215942909142225171
65,1.37499721312806327016903656638733
66,1.37807612468161638590275904448918
67,1.38110861081659321791304882192920
68,1.38409605195813948749116335211128
69,1.38703976782879233504723473909667
70,1.38994102095791550868863544814628
71,1.39280101994102874423574723705994
72,1.39562092247012950626234772234628
73,1.39840183815405225334481518235774
74,1.40114483114609154214990903566620
75,1.40385092259448418388800892695979
76,1.40652109292989610990227208400252
77,1.40915628400275720474630973840521
78,1.41175740108212156692212461281224
79,1.41432531472668383745763422832601
80,1.41686086253764411085819692970390
81,1.41936485080226460149041791886962
82,1.42183805603619978790237439345649
83,1.42428122643199302379479265705298
84,1.42669508322050831264178876352793
85,1.42908032195150666678594831200353
86,1.43143761369906060644323295843048
87,1.43376760619704288325383668281119
88,1.43607092490950213527887243624825
89,1.43834817404035467818207186284801
90,1.44059993748647842060605829547397
91,1.44282677973797343970301176418012
92,1.44502924672906545523950980400656
93,1.44720786664286618564130445381271
94,1.44936315067296164060477430660797
95,1.45149559374457825087388356114591
96,1.45360567519787491366472450429467
97,1.45569385943572469011137230768114
98,1.45776059653817701681092189972476
99,1.45980632284563782135869771418739
100,1.46183146151265859134708165323981
101,1.46383642303409614214871962425120
102,1.46582160574527925408334827011525
103,1.46778739629771043595512664645901
104,1.46973417011172380723820744970062
105,1.47166229180742701743025850796531
106,1.47357211561516435685191379801216
107,1.47546398576666013121413834395303
108,1.47733823686792213272204880085189
109,1.47919519425491644695017883493158
110,1.48103517433296241459899664653586
111,1.48285848490073070604503778867524
112,1.48466542545967803296395029438619
113,1.48645628750969648551184877853665
114,1.48823135483170672579507153780556
115,1.48999090375788381985593563174542
116,1.49173520343015615875481854236802
117,1.49346451604758620632232738087359
118,1.49517909710320078005068257874429
119,1.49687919561080485787719800707566
120,1.49856505432228706137925912982286
121,1.50023690993588669865545582410284
122,1.50189499329587333703624635800979
123,1.50353952958405768283570063296766
124,1.50517073850353486554785577567394
125,1.50678883445503165762923104600989
126,1.50839402670621396371144497150738
127,1.50998651955429033520250709276300
128,1.51156651248222467904638549956643
129,1.51313420030885925617265971765402
130,1.51468977333323068330138303118055
131,1.51623341747334624765147968566393
132,1.51776531439967286690089586415470
133,1.51928564166357924516217776058748
134,1.52079457282096049978134464365311
135,1.52229227755125642542434849178043
136,1.52377892177207087438608945933662
137,1.52525466774958642411533322479735
138,1.52671967420495489095766670376073
139,1.52817409641684214321457427981872
140,1.52961808632029022064918622693121
141,1.53105179260205521007980032212934
142,1.53247536079257125343680081321201
143,1.53388893335468241448926489291895
144,1.53529264976927695081221420229392
145,1.53668664661795434980666136721510
146,1.53807105766284761883511514588941
147,1.53944601392371511656996263597570
148,1.54081164375241725461923858367163
149,1.54216807290487987042228212499263
150,1.54351542461064791232950968848366
151,1.54485381964012535116052447067758
152,1.54618337636959161744808829033974
153,1.54750421084408351410234646479569
154,1.54881643683822650377733563777589
155,1.55012016591509360697335091158079
156,1.55141550748316977728081240488426
157,1.55270256885149280041011501432911
158,1.55398145528304253515304349301089
159,1.5552522700464421691526766194208
160,1.5565151144660378270652981161122
161,1.5577700879704150272795606728469
162,1.5590172881394114483401346032970
163,1.5602568107496808584214462664231
164,1.5614887498188628444958513452382
165,1.5627131976484069414623550189089
166,1.5639302448651016768756447675247
167,1.5651399804613557636466812990319
168,1.5663424918342741296822017098567
169,1.5675378648235738466076487646196
170,1.5687261837483797007461311744257
171,1.5699075314429396008709458232122
172,1.5710819892912976894488221067964
173,1.5722496372609605597641539154957
174,1.5734105539355924225017673124377
175,1.5745648165467732067821956524444
176,1.5757125010048493020688991880928
177,1.5768536819289102015501758947751
178,1.5779884326759202014595820291928
179,1.5791168253690316013513017399176
180,1.5802389309251103517995813186109
181,1.5813548190814967981810019209593
182,1.5824645584220292159995980411673
183,1.5835682164023531871049628555856
184,1.5846658593745410584167721724270
185,1.5857575526110432913595660375479
186,1.5868433603279926707061379486049
187,1.5879233457078851734127349695551
188,1.5889975709216529338430922616709
189,1.5900660971501530365568671589444
190,1.5911289846050877878245924528579
191,1.5921862925493756885091852741809
192,1.5932380793169894906043901770338
193,1.5942844023322796413687354567570
194,1.5953253181287964559282696941007
195,1.5963608823676289508007760681563
196,1.5973911498552740303351367382758
197,1.5984161745610504014836216291666
198,1.5994360096340713789845123347560
199,1.6004507074197894149096984568424
200,1.6014603194761262928785895222927
201,1.6024648965891999634605656168220
202,1.6034644887886613970247000484630
203,1.6044591453626521088651212444554
204,1.6054489148723939716163120387601
205,1.6064338451664212804226118665058
206,1.6074139833944680897161701112122
207,1.6083893760210166923874578112233
208,1.6093600688385214629137379699786
209,1.6103261069803138074398382871544
210,1.6112875349331997165753445090748
211,1.6122443965497572800356389214491
212,1.6131967350603443904228819134218
213,1.6141445930848210142110530886868
214,1.6150880126440010057964363727032
215,1.6160270351708326710229801370409
216,1.6169617015213220348175817423710
217,1.6178920519852027721596859401967
218,1.6188181262963617750205224520829
219,1.6197399636430236283979359559525
220,1.6206576026777065037644166209707
221,1.6215710815269473724153498858658
222,1.6224804378008137362816336037431
223,1.6233857086021954372400680170185
224,1.6242869305358916044262102643815
225,1.6251841397174952963022818219461
226,1.6260773717820793756351105838050
227,1.6269666618926922604468150968348
228,1.6278520447486653613615669828889
229,1.6287335545937393577160958727872
230,1.6296112252240139989000127237492
231,1.6304850899957232204243889412225
232,1.6313551818328459838686299603709
233,1.6322215332345478264454345459955
234,1.6330841762824692664899436522018
235,1.6339431426478542362157329302035
236,1.6347984635985282407553560825023
237,1.6356501700057298638659970152779
238,1.6364982923507973515684432265050
239,1.6373428607317157095618407083746
240,1.6381839048695264680995834889096
241,1.6390214541146043959457217031401
242,1.6398555374528040196387648448286
243,1.6406861835114799791203252057849
244,1.6415134205653829082496858142109
245,1.6423372765424352136084858351474
246,1.6431577790293892704637085718287
247,1.6439749552773694179749824391899
248,1.6447888322073053345134188547512
249,1.6455994364152517619224508672941
250,1.6464067941776049631646130260120
251,1.6472109314562138131096408831845
252,1.6480118739033883207140711236869
253,1.6488096468668106545538203314777
254,1.6496042753943483283311176425691
255,1.6503957842387734261550093524934
256,1.6511841978623879527434176071350
257,1.6519695404415616996747334753462
258,1.6527518358711790721427726293173
259,1.6535311077690016794665554183192
260,1.6543073794799470754681395106000
261,1.6550806740802839621932513263759
262,1.6558510143817485821326435225318
263,1.6566184229355811492641200436684
264,1.6573829220364877695162650340405
265,1.6581445337265263756374904637992
266,1.6589032797989188439676784014939
267,1.6596591818017925061185117583145
268,1.6604122610418510890460607077088
269,1.6611625385879793532074356080910
270,1.6619100352747771527283236918842
271,1.6626547717060322013316542899497
272,1.6633967682581255233941045551068
273,1.6641360450833770330592068739776
274,1.6648726221133284502474281404555
275,1.6656065190619674289790530166118
276,1.6663377554288911762077493533907
277,1.6670663505024170450375138704172
278,1.6677923233626318568382212487758
279,1.6685156928843914553112142535656
280,1.6692364777402625859676535115024
281,1.6699546964034149904527858663564
282,1.6706703671504612126083894380227
283,1.6713835080642473293539016174918
284,1.6720941370365917635737633975873
285,1.6728022717709789869335009407277
286,1.6735079297852041380471750483582
287,1.6742111284139736159806368704187
288,1.6749118848114580515725442346602
289,1.6756102159538023053596456405561
290,1.6763061386415932253716666837940
291,1.6769996695022830064880514573720
292,1.6776908249925710370349604913031
293,1.6783796214007481391811383013680
294,1.6790660748489982408526361245035
295,1.6797502012956595671297910056966
296,1.6804320165374529375269109149760
297,1.6811115362116671017362162634509
298,1.6817887757983104314613286861253
299,1.6824637506222257720922847342049
300,1.6831364758551702057379070236698
301,1.6838069665178601379881095262065
302,1.6844752374819838022871677899725
303,1.6851413034721783560244242007143
304,1.6858051790679751468652009419769
305,1.6864668787057145788646586693443
306,1.6871264166804298426279970422534
307,1.6877838071476966925505859403832
308,1.6884390641254567506746354790332
309,1.6890922014958104275596267300421
310,1.6897432330067797964703533342880
311,1.6903921722740450169671001654080
312,1.6910390327826518222395478311077
313,1.6916838278886914641689729511623
314,1.6923265708209549216542951621347
315,1.6929672746825606931407391677843
316,1.6936059524525575503096904223954
317,1.6942426169874997928881948745719
318,1.6948772810230003572056786560065
319,1.6955099571752589214676680331265
320,1.6961406579425650104567443265784
321,1.6967693957067800200670046212970
322,1.6973961827347942776185868309709
323,1.6980210311799626535373229002271
324,1.6986439530835177031213663092295
325,1.6992649603759621019944483956286
326,1.6998840648784386141290317299746
327,1.7005012783040804148900842686108
328,1.7011166122593389600281758380440
329,1.7017300782452943772572317972766
330,1.7023416876589448138964058877213
331,1.7029514517944761810152107376213
332,1.7035593818445133572060557405666
333,1.7041654889013532324740537868774
334,1.7047697839581777782411132661037
335,1.7053722779102514604215168162944
336,1.7059729815560990556947822228794
337,1.7065719055986667453452285220238
338,1.7071690606464675476928852678483
339,1.7077644572147071558511445580162
340,1.7083581057263962744335064109428
341,1.7089500165134451711228457963533
342,1.7095401998177429426510552419594
343,1.7101286657922211354265238015448
344,1.7107154245019017170362575629244
345,1.7113004859249312205281010261934
346,1.7118838599535985389117113956474
347,1.7124655563953399379413852320785
348,1.7130455849737281016802790777031
349,1.7136239553294487586081852888339
350,1.7142006770212624335361972144079
351,1.7147757595269534159129213563368
352,1.7153492122442656299550453948607
353,1.7159210444918246941187287971700
354,1.7164912655100475876149672165709
355,1.7170598844620402925492661556151
356,1.7176269104344816248697318620490
357,1.7181923524384964966398377373129
358,1.7187562194105178572090307967077
359,1.7193185202131330620850184245208
360,1.7198792636359236111848304510314
361,1.7204384583962900051885280168242
362,1.7209961131402682055572042911404
363,1.7215522364433322978838300816701
364,1.7221068368111883867400261680562
365,1.7226599226805579626681032325032
366,1.7232115024199496233676105779872
367,1.7237615843304220456032220456793
368,1.7243101766463350011841799155292
369,1.7248572875360930543134531967898
370,1.7254029251028776583553729147826
371,1.7259470973853705103433620896362
372,1.7264898123584671248449774376692
373,1.7270310779339805991865826417351
374,1.7275709019613398839387647631901
375,1.7281092922282732558056051492483
376,1.7286462564614884548561894087741
377,1.7291818023273412811975997756138
378,1.7297159374324958245298265991123
379,1.7302486693245781726081697356739
380,1.7307800054928203617461744492713
381,1.7313099533686974513611775711856
382,1.7318385203265548474680096002398
383,1.7323657136842305567125258823638
384,1.7328915407036673417671849980434
385,1.7334160085915184066692948162706
386,1.7339391244997472782794806042619
387,1.7344608955262176409395681351899
388,1.7349813287152770690975719667858
389,1.7355004310583353407611819115921
390,1.7360182094944345293196753616328
391,1.7365346709108111993335554901643
392,1.7370498221434543235850551932667
393,1.7375636699776564040465932759063
394,1.7380762211485563873045109527108
395,1.7385874823416772410251871303451
396,1.7390974601934578523252432965690
397,1.7396061612917788882540526004789
398,1.7401135921764826371117521876213
399,1.7406197593398854073109998255133
400,1.7411246692272867949726767744883
401,1.7416283282374718807456305520132
402,1.7421307427232071129875859179761
403,1.7426319189917327103224142935018
404,1.7431318633052494893118743801439
405,1.7436305818813975957200571689330
406,1.7441280808937332618353700591940
407,1.7446243664722007204073267608966
408,1.7451194447035967926595708890339
409,1.7456133216320310261605827351198
410,1.7461060032593839121933533382718
411,1.7465974955457574582680590499598
412,1.7470878044099217144919637080231
413,1.7475769357297583494786515036008
414,1.7480648953426977167893081760567
415,1.7485516890461537135611194370591
416,1.7490373225979528792015286757289
417,1.7495218017167606014715038769474
418,1.7500051320825016126282974688540
419,1.7504873193367790741959973824572
420,1.7509683690832872529912400626463
421,1.7514482868882217619683650293126
422,1.7519270782806866695550738616023
423,1.7524047487530963364052124759851
424,1.7528813037615756168472591512714
425,1.7533567487263548286891797893593
426,1.7538310890321631233441973317178
427,1.7543043300286177668672105740087
428,1.7547764770306093723951453939521
429,1.7552475353186870241102041802873
430,1.7557175101394361834733327655440
431,1.7561864067058569110040467937532
432,1.7566542301977395837448404425006
433,1.7571209857620334779764066921807
434,1.7575866785132193478727414115828
435,1.7580513135336738576473198713609
436,1.7585148958740338032386724766265
437,1.7589774305535583211661940224968
438,1.7594389225604881041541280768967
439,1.7598993768524023436759145063017
440,1.7603587983565745108433103252120
441,1.7608171919703241771361618860904
442,1.7612745625613684817279033009666
443,1.7617309149681729377511191404593
444,1.7621862540002962431423304877839
445,1.7626405844387384746327807516178
446,1.7630939110362837388903623979418
447,1.7635462385178445014486454618768
448,1.7639975715808008649568462795156
449,1.7644479148953426925581882659182
450,1.7648972731048067861725371073788
451,1.7653456508260166822482979052056
452,1.7657930526496179679997884075688
453,1.7662394831404149251973757076390
454,1.7666849468377049568525632125406
455,1.7671294482556144895682096980275
456,1.7675729918834317200835879461489
457,1.7680155821859409759617809354764
458,1.7684572236037551634261517754775
459,1.7688979205536488963379246832262
460,1.7693376774288920318415795597573
461,1.7697764985995815488145177384130
462,1.7702143884129750719733944991253
463,1.7706513511938247387480586131100
464,1.7710873912447096668533385332543
465,1.7715225128463710921802774780305
466,1.7719567202580474126206132043895
467,1.7723900177178085274857047628733
468,1.7728224094428946016944051249936
469,1.7732538996300518495817035939708
470,1.7736844924558729858584846863760
471,1.7741141920771367388462301282753
472,1.7745430026311508569127933490589
473,1.7749709282360940978540637190783
474,1.7753979729913648498519580898640
475,1.7758241409779254574632997754705
476,1.7762494362586549235041859832654
477,1.7766738628787004835504299899500
478,1.7770974248658328997443030072086
479,1.7775201262308045413123820959600
480,1.7779419709677108320942336617678
481,1.7783629630543538097012460675669
482,1.7787831064526115673204098384286
483,1.7792024051088091692373272651441
484,1.7796208629540940802410421818454
485,1.7800384839048178159805597601318
486,1.7804552718629186395108077114796
487,1.7808712307163124041062009609683
488,1.7812863643392864014150661213165
489,1.7817006765928997176320826278183
490,1.7821141713253882478241539973663
491,1.7825268523725768029353482371036
492,1.7829387235582972117807207719349
493,1.7833497886948127217997814477569
494,1.7837600515832501367676649978293
495,1.7841695160140382443534579398205
496,1.7845781857673561554291349695902
497,1.7849860646135876361691160963249
498,1.7853931563137857926792418948233
499,1.7857994646201460400554634079501
500,1.786204993276489941997693669576
501,1.786609746018756145032073383838
502,1.787013726575506364027812540161
503,1.787416938668438413557961643529
504,1.787819386012914681660225673947
505,1.788221072318499473921723035127
506,1.788622001289511567825479748831
507,1.789022176625590466325813703152
508,1.789421602022276664392279808632
509,1.789820281171604867961703459820
510,1.790218217762716963974450741355
511,1.790615415482488756968198293301
512,1.791011878016175198212798355295
513,1.791407609048073592742087369119
514,1.791802612262206376773362414138
515,1.792196891343024805268088743154
516,1.792590449976132777726172748464
517,1.792983291849032950327060504385
518,1.793375420651898052182576547773
519,1.793766840078365382794513040737
520,1.794157553826358609532171950396
521,1.794547565598934993128654850130
522,1.794936879105163725664607830150
523,1.795325498061033306794191644321
