Eigenstate,Potential Energy
1,0.500000000022754377393813172045198377
2,0.64623093779964326122114305973846142
3,0.73633761014126602972578050335657530
4,0.79966527872298058577734249913134902
5,0.8480465768598097795325968558771005
6,0.8870659993060687452334985290456361
7,0.9197208274997630476021237222842686
8,0.9477838478177555314917981027753413
9,0.9723835592662804744074459130412935
10,0.9942802159938834410724935969838879
11,1.0140093881415866553376151400494826
12,1.0319621710140085325833260237499963
13,1.0484326946769488911390336459350857
14,1.0636476568135466895608819328165366
15,1.0777854385384626241477609543543055
16,1.090988909268322824116243263445509
17,1.103374260183222395122429615385442
18,1.115037255232924438504790817028507
19,1.126057754240837430585688648596590
20,1.136503050537951542552648415490238
21,1.146430377044535759666620250884975
22,1.155888817428877989948447665170037
23,1.164920784043809713540858180404402
24,1.173563175327128146028549717031456
25,1.181848292597522639486282163011521
26,1.189804573862162445174993942745908
27,1.197457186779272562266706338649983
28,1.204828512017173588955389448451511
29,1.211938540456233671554115911787898
30,1.218805202030693078398650790434716
31,1.225444639861383425664439564860806
32,1.231871440252463997744526862544391
33,1.238098826815649800906191780237827
34,1.244138825234859722945868862886116
35,1.250002403845018105992258383887026
36,1.255699594165264161167450868965002
37,1.261239594722739105391514710937586
38,1.266630860872702157551855921484851
39,1.271881182822877881804381105668506
40,1.276997753674116582280729105015050
41,1.281987228972699179798070717925081
42,1.286855779014625399698333397373314
43,1.291609134935737755057106609542806
44,1.296252629453439794023263373874801
45,1.300791232988197511074315271522359
46,1.305229585779876539396832566523500
47,1.309572026520491129284897825973259
48,1.313822617947354553214250689525785
49,1.317985169775958034364125275246537
50,1.32206325929778258171469015445403
51,1.32606024992278115238326017730448
52,1.32997930790792334756958572223250
53,1.33382341748074472994004662606807
54,1.33759539453928171882914456424845
55,1.34129789908629752712881445833122
56,1.34493344653563003361434314864616
57,1.34850441801129351933955008525089
58,1.35201306974516901044548161093987
59,1.35546154166636402245382747764493
60,1.35885186526429799341589152063818
61,1.36218597079800546578494132538697
62,1.36546569391584807176769606063673
63,1.36869278174258448789131715816187
64,1.37186889848443504460123318347137
65,1.37499563059724283673319132565815
66,1.37807449155798584164961363193066
67,1.38110692627563226050520403178452
68,1.38409431517357513729876933900433
69,1.38703797797256963964193231150466
70,1.38993917720016811691182546435296
71,1.39279912145004934772408037450057
72,1.39561896841234014628293812963796
73,1.39839982769397449076207086962255
74,1.40114276344631648831717054117694
75,1.40384879681564239022856630370960
76,1.40651890823062731391701567576300
77,1.40915403953967993015788385653763
78,1.41175509600980257563881520169874
79,1.41432294819760743101388817298747
80,1.41685843370218127896284315696763
81,1.41936235880864201528746257379022
82,1.42183550003046863552370055269718
83,1.42427860555799768575855016364614
84,1.42669239661985487462454318395926
85,1.42907756876353126727111072466187
86,1.43143479306079761672274560822210
87,1.43376471724319291723406245555977
88,1.43606796677239988651614362573221
89,1.43834514584993658154709520778978
90,1.44059683837025013595044804370284
91,1.44282360882097715487438058646585
92,1.44502600313384700576557384453928
93,1.44720454948944198837593371570832
94,1.44935975907878543860226544075265
95,1.45149212682450766673001067552127
96,1.45360213206413780853571508064588
97,1.45569023919788532559329524555726
98,1.45775689830310201683446152937225
99,1.45980254571746193122453365521573
100,1.46182760459275023099881428108076
101,1.46383248542102275075019809763847
102,1.46581758653477242293763453893612
103,1.46778329458263082677213774439575
104,1.46972998498202585272670316335974
105,1.47165802235012340115949476230917
106,1.47356776091429026929602901165083
107,1.47545954490323729886063276230290
108,1.47733370891992261709306384628679
109,1.47919057829722621035205137554358
110,1.48103046943734464938240371374750
111,1.48285369013578892412386293520131
112,1.48466053989081891230636809608863
113,1.48645131019909247028233381025450
114,1.48822628483825837679021704747346
115,1.48998574013718191184104829133534
116,1.49172994523444352127141272674867
117,1.49345916232571930449957108571825
118,1.49517364690061103191588231237802
119,1.49687364796945968462233711736002
120,1.49855940828065066700108498381110
121,1.50023116452888057534758190660141
122,1.50188914755483649267119092581710
123,1.50353358253670658683410677195235
124,1.50516468917392310939076699661660
125,1.50678268186350932622685640649330
126,1.50838776986938671379940786583079
127,1.50998015748497817689314066976615
128,1.51156004418942045661827613620937
129,1.51312762479768682413694595889802
130,1.51468308960490277373808302164598
131,1.51622662452512202476257740162350
132,1.51775841122481516467970345955856
133,1.51927862725131148403183338740172
134,1.52078744615642327800566260539445
135,1.52228503761546378104562224591432
136,1.52377156754186621339481092275025
137,1.52524719819759811050521565470087
138,1.52671208829955149426836409747181
139,1.52816639312208733911195434935634
140,1.52961026459589734003973936749671
141,1.53104385140334143220194535409979
142,1.53246729907041143831653067699104
143,1.53388075005546257009215337087259
144,1.53528434383484733016690293754541
145,1.53667821698558217331759752205665
146,1.53806250326516941694359768692335
147,1.53943733368868868786316825040248
148,1.54080283660327323442686907619256
149,1.54215913776007290487841064373413
150,1.54350636038380743281607012785271
151,1.54484462524000594398400472167291
152,1.54617405070002298353825418837630
153,1.54749475280392001345543350028605
154,1.54880684532129627930014249013444
155,1.55011043981014728231745686995834
156,1.55140564567382872318665446859245
157,1.55269257021619696401235561604622
158,1.55397131869499782662685892106490
159,1.5552419943735674000092791708962
160,1.5565046985709111943315640742953
161,1.5577595307102201377225954561712
162,1.5590065883658828768220400645982
163,1.5602459673090492343935655889046
164,1.5614777615517994605626128257846
165,1.5627020633899678778667091472809
166,1.5639189634446714356772681224892
167,1.5651285507025904062825931595687
168,1.5663309125550439115158582985637
169,1.5675261348359053419888851210069
170,1.5687143018583974120176722643490
171,1.5698954964508070446706541353554
172,1.5710697999911579535678765242162
173,1.5722372924408763237319923807611
174,1.5733980523774854349752689573540
175,1.5745521570263632127258188423994
176,1.5756996822915924126159797073660
177,1.5768407027859366993404529658119
178,1.5779752918599717741505410613481
179,1.5791035216303979959003362894915
180,1.5802254630075654420138736097649
181,1.5813411857222340579294278010168
182,1.5824507583515965903762932871713
183,1.5835542483445873537280187460596
184,1.5846517220465010709379275813879
185,1.5857432447229435971501956731853
186,1.5868288805831354945754628980481
187,1.5879086928025922590980526463476
188,1.5889827435451966348988143017284
189,1.5900510939846867481505443753564
190,1.5911138043255757108300267846479
191,1.5921709338235219171643817473352
192,1.5932225408051664148799511293823
193,1.5942686826874556550662520670897
194,1.5953094159964629614016063977350
195,1.5963447963857266510626685312187
196,1.5973748786541184991805341025693
197,1.5983997167632569221268845588937
198,1.5994193638544790415713402382083
199,1.6004338722653844631256439178316
200,1.6014432935459647097357268240808
201,1.6024476784743292862005709148153
202,1.6034470770720417509292925627667
203,1.6044415386190764496185402540895
204,1.6054311116684075257118337998963
205,1.6064158440602401729529470116274
206,1.6073957829358971487303573813601
207,1.6083709747513664188383337407146
208,1.6093414652905241550594006683303
209,1.6103072996780388283958355408202
210,1.6112685223919678935493634482789
211,1.6122251772760544236055172849460
212,1.6131773075517339220448595182398
213,1.6141249558298556899691287704014
214,1.6150681641221337242258591456525
215,1.6160069738523263526563493547960
216,1.6169414258671585609175167638309
217,1.6178715604469909699131088984397
218,1.6187974173162444362773445988226
219,1.6197190356535835488398790815570
220,1.6206364541018715291927686743573
221,1.6215497107778944386421048248402
222,1.6224588432818718889024845687519
223,1.6233638887067478173580082254170
224,1.6242648836472763861805691763435
225,1.6251618642089055618403515115558
226,1.6260548660164619129415306531898
227,1.6269439242226452692220267020726
228,1.6278290735163350519087075194226
229,1.6287103481307154275634442612942
230,1.6295877818512239716485380075686
231,1.6304614080233256310660229424187
232,1.6313312595601223945755667566020
233,1.6321973689497936565791548836679
234,1.6330597682628834203221872007068
235,1.6339184891594275115944632367844
236,1.6347735628959305016826412098073
237,1.6356250203321959596843140580119
238,1.6364728919380117651773437475018
239,1.6373172077996959168068693229803
240,1.6381579976265049901887444833953
241,1.6389952907569095264592897065089
242,1.6398291161647392074024309215191
243,1.6406595024652018479078304027463
244,1.6414864779207778939762264592713
245,1.6423100704469947993625259494607
246,1.6431303076180837994037737503393
247,1.6439472166725204637967370031916
248,1.6447608245184566088584072382606
249,1.6455711577390385377638065111908
250,1.6463782425976219928606215665041
251,1.6471821050428817194663655180186
252,1.6479827707138184390416393427003
253,1.6487802649446683033363197675795
254,1.6495746127697144857594485287385
255,1.6503658389280047893957195081160
256,1.6511539678679753564290503120829
257,1.6519390237519868697110996626637
258,1.6527210304607696905270377861429
259,1.6535000115977847354025812506808
260,1.6542759904935004776501879043361
261,1.6550489902095863867050684360289
262,1.6558190335430275299765236330013
263,1.6565861430301591870947209893254
264,1.6573503409506269267044032821020
265,1.6581116493312706703311199831923
266,1.6588700899499349103505872543784
267,1.6596256843392082945911901075647
268,1.6603784537900926105668093618051
269,1.6611284193556054385370482345271
270,1.6618756018543121968169944015478
271,1.6626200218737968625707384302810
272,1.6633616997740653469306764833358
273,1.6641006556908889668342570083655
274,1.6648369095390852218735812076100
275,1.6655704810157397510142670359296
276,1.6663013896033677468134367794656
277,1.6670296545730223104278290836678
278,1.6677552949873415013365442047306
279,1.6684783297035455842242711128888
280,1.6691987773763765658715078997656
281,1.6699166564609879108555958197647
282,1.6706319852157819323120956736835
283,1.6713447817051980701832974308024
284,1.6720550638024492134700041637285
285,1.6727628491922128737280631974925
286,1.6734681553732732345355434907600
287,1.6741709996611191362026028530010
288,1.6748713991904943974805379414513
289,1.6755693709179051223154028511029
290,1.6762649316240847241537125323291
291,1.6769580979164145087215514760632
292,1.6776488862313027001641247560188
293,1.6783373128365258163012708124094
294,1.6790233938335274298940184417408
295,1.6797071451596764030475911201298
296,1.6803885825904921802918274969545
297,1.6810677217418270720440177476785
298,1.6817445780720148451864414915977
299,1.6824191668839824235942110793678
300,1.6830915033273264491972407949784
301,1.6837616024003551149920514993175
302,1.6844294789520973629140878937618
303,1.6850951476842766196773640616296
304,1.6857586231532526480884066929505
305,1.6864199197719329423390481788937
306,1.6870790518116529304756519175521
307,1.6877360334040221659956409199321
308,1.6883908785427439869980980532838
309,1.6890436010854047321511891571476
310,1.6896942147552328486208420895852
311,1.6903427331428314868611595672291
312,1.6909891697078820953969628598604
313,1.6916335377808204083447609934397
314,1.6922758505644866299437112466319
315,1.6929161211357491357375317773761
316,1.6935543624471030660467914239846
317,1.6941905873282413503347893560565
318,1.6948248084876035137094877776911
319,1.6954570385138994071215112445363
320,1.6960872898776078625142627937447
321,1.6967155749324541918583439149020
322,1.6973419059168626444989136275403
323,1.6979662949553873368532747768534
324,1.6985887540601206315960671989662
325,1.6992092951320807283106271277493
326,1.6998279299625767028314205589396
327,1.7004446702345538160302871926254
328,1.7010595275239162812394891133210
329,1.7016725133008324651675673988721
330,1.7022836389310189539720140990282
331,1.7028929156770049230626785316920
332,1.7035003546993778718576373833450
333,1.7041059670580111020271023030855
334,1.7047097637132711232281963315719
335,1.7053117555272093012435930317504
336,1.7059119532647338065547765072661
337,1.7065103675947647355762966246855
338,1.7071070090913734633821720343431
339,1.7077018882349022924116054558791
340,1.7082950154130704884736488745840
341,1.7088864009220624176083441103844
342,1.7094760549676002809332512946896
343,1.7100639876660010852442558390698
344,1.7106502090452178430573655569245
345,1.7112347290458668214051636854852
346,1.7118175575222383141627550063489
347,1.7123987042432945032410458375014
348,1.7129781788936512203511338912327
349,1.7135559910745471542442216948508
350,1.7141321503047980457470866618239
351,1.7147066660217379581766615199155
352,1.7152795475821473054791224133192
353,1.7158508042631669224514412212720
354,1.7164204452631995915021746026491
355,1.7169884797027993912159338065678
356,1.7175549166255470764903926444606
357,1.7181197649989147292718194753209
358,1.7186830337151189238770658689744
359,1.7192447315919581520283529347109
360,1.7198048673736434455078842458551
361,1.7203634497316139412886466758230
362,1.7209204872653438707304182448468
363,1.7214759885031355684420595532003
364,1.7220299619029035247931460152261
365,1.7225824158529477184308109656542
366,1.7231333586727151064613367736706
367,1.7236827986135521642962112678102
368,1.7242307438594452638818435758007
369,1.7247772025277535228486249961540
370,1.7253221826699298377453502628779
371,1.7258656922722329546587635114232
372,1.7264077392564295336889378752423
373,1.7269483314804861739869607704977
374,1.7274874767392557078261573990323
375,1.7280251827651484552680648044048
376,1.7285614572287998956304915737321
377,1.7290963077397265449600343201184
378,1.7296297418469732069122145490683
379,1.7301617670397534368327913178602
380,1.7306923907480799757967057789534
381,1.7312216203433880300325810824231
382,1.7317494631391485138940796240946
383,1.7322759263914759310317142413384
384,1.7328010172997258574571350134152
385,1.7333247430070856477464464521063
386,1.7338471106011590230259395061270
387,1.7343681271145402900669284781317
388,1.7348877995253821282784145559950
389,1.7354061347579576192718127101638
390,1.7359231396832137080928214875159
391,1.7364388211193164130486139631308
392,1.7369531858321913924946955731899
393,1.7374662405360573420548988107820
394,1.7379779918939508033578311428240
395,1.7384884465182452411485198151677
396,1.7389976109711640396287516984666
397,1.7395054917652870479195041271847
398,1.7400120953640506827655405053532
399,1.7405174281822401542582514181531
400,1.7410214965864781145197418716916
401,1.7415243068957057782523822850633
402,1.7420258653816572603553540292504
403,1.7425261782693299513325524097877
404,1.7430252517374488235662756908031
405,1.7435230919189221338862052178011
406,1.7440197049012946314529968218526
407,1.7445150967271953876605698172808
408,1.7450092733947777512358576583596
409,1.7455022408581542895969111108301
410,1.7459940050278292309320787943270
411,1.7464845717711226670026706871136
412,1.7469739469125900992420974912522
413,1.7474621362344384071956705988561
414,1.7479491454769346631303549880424
415,1.7484349803388120767615429892983
416,1.7489196464776694997133210083204
417,1.7494031495103673381840527689447
418,1.7498854950134170370368759951493
419,1.7503666885233684138117372921596
420,1.7508467355371898245642740618806
421,1.7513256415126451136999823837216
422,1.7518034118686666293898097686276
423,1.7522800519857221406915601250381
424,1.7527555672061792700856089758123
425,1.7532299628346638207681342321543
426,1.7537032441384156055261451204266
427,1.7541754163476392618065442243304
428,1.7546464846558500666504869038306
429,1.7551164542202186638626090379970
430,1.7555853301619075655036678119220
431,1.7560531175664069313425377871282
432,1.7565198214838667757630987211421
433,1.7569854469294209400049490024000
434,1.7574499988835139276551008897425
435,1.7579134822922184270463393480792
436,1.7583759020675514215318100571200
437,1.7588372630877870489856732183654
438,1.7592975701977651925730267023845
439,1.7597568282091964840729046118283
440,1.7602150419009647909457185346495
441,1.7606722160194243469764726539722
442,1.7611283552786950901177161246956
443,1.7615834643609558552046700512922
444,1.7620375479167300408908342268679
445,1.7624906105651730814388267715595
446,1.7629426568943527476919976257449
447,1.7633936914615294463706929753380
448,1.7638437187934297358703556757173
449,1.7642927433865208990400825532812
450,1.7647407697072787253579310824218
451,1.7651878021924560055704992550425
452,1.7656338452493445801190457178610
453,1.7660789032560366843968282366203
454,1.7665229805616819797592357560985
455,1.7669660814867438941314999383515
456,1.7674082103232505691848636641568
457,1.7678493713350451097599610541613
458,1.7682895687580315314046869894860
459,1.7687288068004189199226440066895
460,1.7691670896429634452452069298163
461,1.7696044214392060793222317297466
462,1.7700408063157092310513657551446
463,1.7704762483722909019865451411154
464,1.7709107516822545237002791882392
465,1.7713443202926184455040712917783
466,1.7717769582243422031921189673756
467,1.7722086694725488492925123583560
468,1.7726394580067483604341196065046
469,1.7730693277710545984938253977032
470,1.7734982826844033500311137314211
471,1.7739263266407657110837573917945
472,1.7743534635093611149024765617204
473,1.7747796971348653534925135261265
474,1.7752050313376210969214224767705
475,1.7756294699138398331124908337510
476,1.7760530166358077418937787514286
477,1.7764756752520858362628781071312
478,1.7768974494877090468192731451032
479,1.7773183430443831387107278591765
480,1.7777383596006798556367070793704
481,1.7781575028122288417454922247181
482,1.7785757763119099101714493223213
483,1.7789931837100410381705696468024
484,1.7794097285945649085669119010617
485,1.7798254145312354743448673403944
486,1.7802402450637991311378459115702
487,1.7806542237141773463517003508428
488,1.7810673539826453413653666351752
489,1.7814796393480100548628202349925
490,1.7818910832677852502949765177163
491,1.7823016891783659016243851246767
492,1.7827114604952004454085702034597
493,1.7831204006129608740964499712630
494,1.7835285129057117644421824592383
495,1.7839358007270764333932688140957
496,1.7843422674104034657338040438151
497,1.7847479162689292988601053642697
498,1.7851527505959408097971102630193
499,1.7855567736649354016279939034893
500,1.785959988729780719658750088965
501,1.786362399024869743175592395688
502,1.786764007765278707791510857339
503,1.787164818146919326320048219734
504,1.787564833346693151822870182992
505,1.787964056522640930100386859196
506,1.788362490814092671514202183974
507,1.788760139341816289965103118378
508,1.789157005208164448779123475701
509,1.789553091497217844180455417579
510,1.789948401274930979374615423569
511,1.790342937589273660100726532137
512,1.790736703470372111630087385829
513,1.791129701930648332728686577455
514,1.791521935964958362826767066476
515,1.791913408550729836473324826873
516,1.792304122648097035244714902312
517,1.792694081200034511678698054914
518,1.793083287132491070452689453441
519,1.793471743354520888581844236411
520,1.793859452758414631475246226422
521,1.794246418219827359911267335892
522,1.794632642597907503967760143117
523,1.795018128735423340897435884042
