Eigenstate,Potential Energy
1,0.500000000120982653341299582046213895
2,0.64623093844082924019032803560752393
3,0.73633761202471171527756614199727676
4,0.79966528264602172635246758925238700
5,0.8480465836554055572324805081057083
6,0.8870660098218104635716529997417564
7,0.9197208425901474576539815481329354
8,0.9477838683409695548292592461628235
9,0.9723835860827125889134398952356644
10,0.9942802499653741280185588229762702
11,1.0140094301310267711467597493733176
12,1.0319622218851149860910400535098213
13,1.0484327552941368550458006377489853
14,1.0636477280418573759757470531349405
15,1.0777855212435245895294474679904600
16,1.090989004316334344497288097610426
17,1.103374368440947556185080413182334
18,1.115037377567698432204747093074525
19,1.126057891520578202898044001758050
20,1.136503203631175930749258720014431
21,1.146430546820378873976191777346365
22,1.155889004757114987557604921907886
23,1.164920989794879369889135845195363
24,1.173563400372157800166670850793058
25,1.181848537808354207490054003220617
26,1.189804840111379277071428294534520
27,1.197457474940226975503872068369971
28,1.204828822964014952770955754624123
29,1.211938875063936946680411485796200
30,1.218805561175087738730249345223688
31,1.225445024419182705079062364427877
32,1.231871851101294417774177300179522
33,1.238099264834080944496751908296564
34,1.244139291302434226894073190024068
35,1.250002898842281850364008643779354
36,1.255700118973796638482954626585620
37,1.261240150225183955905693687924438
38,1.266631447952797859780572535422753
39,1.271881802365488589711422037850954
40,1.276998406565263102369914032157088
41,1.281987916099590082842285118750210
42,1.286856501265688263054686109021671
43,1.291609893200650532519420168370583
44,1.296253424623162310992738521441582
45,1.300792065955003083520145590398727
46,1.305230457437383715657012850674144
47,1.309572937763695554244144254708102
48,1.313823569672660954808116467410287
49,1.317986162881212332708693059050849
50,1.32206429468230412146071967573526
51,1.32606132848739505915134786839109
52,1.32998043055499300954514929877630
53,1.33382458511420440590006825717858
54,1.33759660806466927404131926528387
55,1.34129915941078729871163724305247
56,1.34493475456806582707731425550919
57,1.34850577466222173813834369086840
58,1.35201447592687192049073085096623
59,1.35546299829289315360449732691757
60,1.35885337325150768007225589874950
61,1.36218753106358652877211967124393
62,1.36546730737936164377037325003297
63,1.36869444932549598476391124389375
64,1.37187062111014828493679513973635
65,1.37499740919113431212949200668888
66,1.37807632704743914016195329752665
67,1.38110881959007264582389301772703
68,1.38409626724450428623492835104832
69,1.38703998973360054054904303520197
70,1.38994124958706013171144688043432
71,1.39280125540074344024494445865560
72,1.39562116486699427966047967388761
73,1.39840208759499919668361709917172
74,1.40114508773841061093401272327326
75,1.40385118644582900759230066948546
76,1.40652136414828983983213378235923
77,1.40915656269659839937749338838422
78,1.41175768736019011536441597453750
79,1.41432560869814692169398227626213
80,1.41686116431206220741848241627462
81,1.41936516048959752322677250345534
82,1.42183837374681276654033305506778
83,1.42428155227666283394273432491087
84,1.42669541731042943794860426454646
85,1.42908066439829750894504508132019
86,1.43143796461476973774886043473422
87,1.43376796569415534342395095395528
88,1.43607129310094577326702090130821
89,1.43834855103950653970905640849290
90,1.44060032340717118215070856129255
91,1.44282717469450188970001202695328
92,1.44502965083619302324101495967771
93,1.44720828001583152020774954208109
94,1.44936357342748523669964847742158
95,1.45149602599686912754614844046457
96,1.45360611706463734281201032187230
97,1.45569431103416497712644726449408
98,1.45776105798601033392373926054673
99,1.45980679426109509449588643471870
100,1.46183194301449344134093905032657
101,1.46383691474159188113770117090278
102,1.46582210777825593795640708881442
103,1.46778790877653197370277844606773
104,1.46973469315730512808375376317786
105,1.47166282554124129662552148890085
106,1.47357266015925030103268818886111
107,1.47546454124362932422207949711555
108,1.47733880340096644281077857915848
109,1.47919577196781549630520899793027
110,1.48103576335009111211275781494207
111,1.48285908534706684430037295979157
112,1.48466603746080995039162404629668
113,1.48645691119183079470005850250279
114,1.48823199032167610894152817753676
115,1.48999155118315489236605611412296
116,1.49173586291883740200255809361305
117,1.49346518772843597060360006427394
118,1.49517978110563535877271566395750
119,1.49687989206490663404122045585931
120,1.49856576335881272742755800382485
121,1.50023763168627555076856654634003
122,1.50189572789225564498022654128392
123,1.50354027715926313647442156582574
124,1.50517149919110109915015633938855
125,1.50678960838921285311620443517955
126,1.50839481402198953400455757004463
127,1.50998732038737368884939028579643
128,1.51156732696907206731692970287874
129,1.51313502858667870383462854084056
130,1.51469061553999100430155775326072
131,1.51623427374778614694527029424599
132,1.51776618488131012969054024463164
133,1.51928652649272001482141659809090
134,1.52079547213870864576250866494561
135,1.52229319149952300246166608394930
136,1.52377985049358367432792519750334
137,1.52525561138789962173687451118673
138,1.52672063290445878512469578684953
139,1.52817507032277299478863391556822
140,1.52961907557874018854455531923151
141,1.53105279735998238690263680578707
142,1.53247638119780980215758390682928
143,1.53388996955595280762084221888404
144,1.53529370191619631358696534017676
145,1.53668771486104690886809552061990
146,1.53807214215355525798143560874368
147,1.53944711481440804110968341854893
148,1.54081276119640476592190707730537
149,1.54216920705642125227062368470264
150,1.54351657562496343070335842379135
151,1.54485498767340736910686314738247
152,1.54618456157901582671642297592460
153,1.54750541338782028524954326060052
154,1.54881765687545235647182033348733
155,1.55012140360600280225440801248744
156,1.55141676298898603355542107131065
157,1.55270384233448113499661316788834
158,1.55398274690652123320846829973210
159,1.5552535799747948818483179917557
160,1.5565164428647258009041488456058
161,1.5577714350059894664776192388304
162,1.5590186539795260122234699287284
163,1.5602581955631042958210598478955
164,1.5614901537754917671525790523201
165,1.5627146209192787384858692537859
166,1.5639316876224075723328201836827
167,1.5651414428784540193873384215031
168,1.5663439740857033955428141365915
169,1.5675393670850666601677631411405
170,1.5687277061968761388456038441116
171,1.5699090742566010851317033746163
172,1.5710835526495209480797875607167
173,1.5722512213443917479646128458610
174,1.5734121589261414038144265177944
175,1.5745664426276279977857155924545
176,1.5757141483604906828369884594691
177,1.5768553507451264943435314165166
178,1.5779901231398222201571523843973
179,1.5791185376690677741665998254682
180,1.5802406652510820198698570764420
181,1.5813565756245736926586917719449
182,1.5824663373747651163178796290399
183,1.5835700179587017631335114485977
184,1.5846676837298718992670937899317
185,1.5857593999621581236455160117411
186,1.5868452308731417691105703455570
187,1.5879252396467839664584988905488
188,1.5889994884554988078140150565057
189,1.5900680384816423405638260923326
190,1.5911309499384330430606995074121
191,1.5921882820903230047889147067529
192,1.5932400932728361933334882972919
193,1.5942864409118921121438766271094
194,1.5953273815426281900189643242278
195,1.5963629708277388348214141571384
196,1.5973932635753448434696962327195
197,1.5984183137564075436833864477432
198,1.5994381745217018296160275474877
199,1.6004528982183609253903279655577
200,1.6014625364060068168962219298092
201,1.6024671398724773284357043644713
202,1.6034667586491632205364231565698
203,1.6044614420259659638248193514949
204,1.6054512385658878040396237733965
205,1.6064361961192640837150037463248
206,1.6074163618376508394562731231060
207,1.6083917821873735456606122540253
208,1.6093625029627512263191691254171
209,1.6103285692990016779658758983718
210,1.6112900256848392996107960133233
211,1.6122469159747728888603374453135
212,1.6131992834011136315958711660052
213,1.6141471705856976633529879909213
214,1.6150906195513381783424764697091
215,1.6160296717330062926019531008309
216,1.6169643679887546159972250346209
217,1.6178947486103874923810726671316
218,1.6188208533338868806308266834222
219,1.6197427213495971497782583091745
220,1.6206603913121812966387731732738
221,1.6215739013503464885187704016581
222,1.6224832890763561286569892457129
223,1.6233885915953220055299105542839
224,1.6242898455142915856217176924774
225,1.6251870869511330065110277352283
226,1.6260803515432213085300143909539
227,1.6269696744559345481618368399927
228,1.6278550903909616037049440179655
229,1.6287366335944288256796180216744
230,1.6296143378648502185524429691047
231,1.6304882365609029433883604027606
232,1.6313583626090385506958968391517
233,1.6322247485109249293212180996802
234,1.6330874263507351178168106346681
235,1.6339464278022761497483711095586
236,1.6348017841359676320833303002984
237,1.6356535262256736771665696320790
238,1.6365016845553899196828000806060
239,1.6373462892257910545796746096954
240,1.6381873699606410497723419446643
241,1.6390249561130703153864566393010
242,1.6398590766717226859088354041074
243,1.6406897602667762464458280077407
244,1.6415170351758396917584612602801
245,1.6423409293297285916291024066569
246,1.6431614703181240815808769264336
247,1.6439786853951153611931119575885
248,1.6447926014846335810409984618058
249,1.6456032451857720872524565693977
250,1.6464106427780034082948342173548
251,1.6472148202262908839181753621845
252,1.6480158031860977346784911672434
253,1.6488136170082986441834321197955
254,1.6496082867439935108625403043768
255,1.6503998371492272492499266218698
256,1.6511882926896157261163034147722
257,1.6519736775448842227755191698383
258,1.6527560156133148682174027616849
259,1.6535353305161098465229860187595
260,1.6543116456016707648842553767643
261,1.6550849839497944959159574579482
262,1.6558553683757902196355394447274
263,1.6566228214345165156541343160133
264,1.6573873654243439564082963947660
265,1.6581490223910417266481588117883
266,1.6589078141315904369191317711664
267,1.6596637621979243442866629869799
268,1.6604168879006030140367076891880
269,1.6611672123124166923001842477674
270,1.6619147562719211137886930056099
271,1.6626595403869110286587187464320
272,1.6634015850378264281455237776114
273,1.6641409103810989121741805363133
274,1.6648775363524354080749210270962
275,1.6656114826700431161117346989200
276,1.6663427688377939603209895172705
277,1.6670714141483360288411267688411
278,1.6677974376861437585614149294607
279,1.6685208583305183674630104686740
280,1.6692416947585306284444439510118
281,1.6699599654479138744014587907821
282,1.6706756886799047317974965131611
283,1.6713888825420347961601559515024
284,1.6720995649308704070503773159365
285,1.6728077535547073307996820289149
286,1.6735134659362163768145611567815
287,1.6742167194150450078227250548864
288,1.6749175311503713469402120868244
289,1.6756159181234152307517340872858
290,1.6763118971399070420886917743134
291,1.6770054848325121646239241780734
292,1.6776966976632139453979740541548
293,1.6783855519256590722855033162897
294,1.6790720637474604045809926242504
295,1.6797562490924593451368459533647
296,1.6804381237629553409391740788752
297,1.6811177034018924451940693942682
298,1.6817950034950122590584730510591
299,1.6824700393729700572861926765759
300,1.6831428262134158498388036524165
301,1.6838133790430407923763434361801
302,1.6844817127395910400706521481341
303,1.6851478420338462194207879744258
304,1.6858117815115660971809552775592
305,1.6864735456154068765477785527018
306,1.6871331486468063854849571809778
307,1.6877906047678353408576886325164
308,1.6884459280030221685592704225136
309,1.6890991322411474706982956265929
310,1.6897502312370084768293587418990
311,1.6903992386131570760180484426712
312,1.6910461678616089447978448910746
313,1.6916910323455251657450361873757
314,1.6923338453008681429631772201396
315,1.6929746198380311361942176096281
316,1.6936133689434427913112529213960
317,1.6942501054811442079734652295098
318,1.6948848421943438979072614055894
319,1.6955175917069477776499179244410
320,1.6961483665250641993469897595951
321,1.6967771790384879409239388177878
322,1.6974040415221592725088186569164
323,1.6980289661376016156492042276339
324,1.6986519649343367750308681673683
325,1.6992730498512795073069154699031
326,1.6998922327181096669610082185362
327,1.7005095252566247527168732478958
328,1.7011249390820700465233488931632
329,1.7017384857044513228692442369741
330,1.7023501765298265630689053964937
331,1.7029600228615781161404632270754
332,1.7035680359016663706229557301919
333,1.7041742267518653190748881205380
334,1.7047786064149782025406047363961
335,1.7053811857960375532660653305557
336,1.7059819757034856971479299919854
337,1.7065809868503385916890557270198
338,1.7071782298553340619208145310517
339,1.7077737152440605025071724255488
340,1.7083674534500721411712253039721
341,1.7089594548159865809287932936740
342,1.7095497295945671222731894917691
343,1.7101382879497895072168596061058
344,1.7107251399578930831046572294973
345,1.7113102956084182098654839201004
346,1.7118937648052273899335209179475
347,1.7124755573675136907618476761833
348,1.7130556830307932763276896571253
349,1.7136341514478855973611460586662
350,1.7142109721898787875719203345960
351,1.7147861547470823585430633454288
352,1.7153597085299668808612378032088
353,1.7159316428700899412051903556136
354,1.7165019670210097953598738376461
355,1.7170706901591870880752912214618
356,1.7176378213848728553547519187419
357,1.7182033697229860541731738932954
358,1.7187673441239798697379580506777
359,1.7193297534646925517373663119976
360,1.7198906065491917239489577072596
361,1.7204499121096039187297827828767
362,1.7210076788069358248192504167321
363,1.7215639152318818510878590466749
364,1.7221186299056230374476072875662
365,1.7226718312806155567164031398066
366,1.7232235277413676927379710453126
367,1.7237737276052081946152331028116
368,1.7243224391230428038712836587161
369,1.7248696704801035953779321460169
370,1.7254154297966868537777930632738
371,1.7259597251288823474965076014369
372,1.7265025644692929658736592516078
373,1.7270439557477446954268114112875
374,1.7275839068319912533155749407819
375,1.7281224255284040794277597621478
376,1.7286595195826591534493349845270
377,1.7291951966804124365848996345287
378,1.7297294644479671160790543697465
379,1.7302623304529345034291925470069
380,1.7307938022048853544489152892057
381,1.7313238871559944983660335680449
382,1.7318525927016759062194579318548
383,1.7323799261812128856793030880130
384,1.7329058948783783788286258416030
385,1.7334305060220489973880280152072
386,1.7339537667868134676659270165825
387,1.7344756842935712486171030980325
388,1.7349962656101252742865880843850
389,1.7355155177517695102448048056741
390,1.7360334476818685285106359190270
391,1.7365500623124294337579910834864
392,1.7370653685046697655460506850922
393,1.7375793730695788669282594779828
394,1.7380920827684713179335680907536
395,1.7386035043135353087482008658442
396,1.7391136443683756219803750204019
397,1.7396225095485508730264940263058
398,1.7401301064221050363967580653074
399,1.7406364415100918441389985952981
400,1.7411415212870963773342262958118
401,1.7416453521817499212754109043349
402,1.7421479405772388519425196151338
403,1.7426492928118103976362171927445
404,1.7431494151792731927578810995338
405,1.7436483139294901138520784072940
406,1.7441459952688695324334550002310
407,1.7446424653608521276677115989704
408,1.7451377303263907893059278402565
409,1.7456317962444265000920857432344
410,1.7461246691523627411954099279522
411,1.7466163550465327107465771221641
412,1.7471068598826629691501652755552
413,1.7475961895763346223819281405661
414,1.7480843500034385003568410627541
415,1.7485713470006286487217793201765
416,1.7490571863657705992869850612018
417,1.7495418738583873043993671730702
418,1.7500254152000999365926699745977
419,1.7505078160750678714637903105392
420,1.7509890821304228765204477949909
421,1.7514692189767015004581834564158
422,1.7519482321882749882377218788295
423,1.7524261273037746034310128914137
424,1.7529029098265160185399930453738
425,1.7533785852249192012810831868732
426,1.7538531589329274541021478985053
427,1.7543266363504231438106586902200
428,1.7547990228436401891564887118588
429,1.7552703237455772749082260465231
430,1.7557405443564047127450542480022
431,1.7562096899438725130050897681845
432,1.7566777657437168794264120729814
433,1.7571447769600605297562910345272
434,1.7576107287658180075891343270580
435,1.7580756263030938790657183352497
436,1.7585394746835817880696433446683
437,1.7590022789889626066718765306806
438,1.7594640442713007412038935075009
439,1.7599247755534393565673492848919
440,1.7603844778293956744721410312318
441,1.7608431560647535932143913689232
442,1.7613008151970572838402917302508
443,1.7617574601362055051836231773827
444,1.7622130957648413556914817938228
445,1.7626677269387468951578780211539
446,1.7631213584872337672700799204019
447,1.7635739952135371029942070440773
448,1.7640256418952060383137187081220
449,1.7644763032844988068350002195553
450,1.7649259841087746846221106748412
451,1.7653746890708904203886014203116
452,1.7658224228495941278070809102698
453,1.7662691900999225240397045418330
454,1.7667149954535980503611003326087
455,1.7671598435194296518264788578971
456,1.7676037388837126725277801774612
457,1.7680466861106327284688944198108
458,1.7684886897426701273600968756142
459,1.7689297543010075301149579958918
460,1.7693698842859406850585717812411
461,1.7698090841772902814081678099254
462,1.7702473584348183405287267091351
463,1.7706847114986479631876998162750
464,1.7711211477896848176460729799658
465,1.7715566717100445712031474777780
466,1.7719912876434836401987841067036
467,1.7724249999558327943165077405140
468,1.7728578129954388976437971465708
469,1.7732897310936075421904995289887
470,1.7737207585650543901236356287157
471,1.7741508997083597970069750135272
472,1.7745801588064313329450271033669
473,1.7750085401269698867125985837142
474,1.7754360479229472066870720426652
475,1.7758626864330841676862888335870
476,1.7762884598823426612195785352471
477,1.7767133724824218442121492812834
478,1.7771374284322638435296852570843
479,1.7775606319185682474569430165955
480,1.7779829871163162419281739770974
481,1.7784044981893034283330508977715
482,1.7788251692906854015670530851321
483,1.7792450045635320035281751084150
484,1.7796640081413936337224698842395
485,1.7800821841488816840683388890946
486,1.7804995367022583026888951809241
487,1.7809160699100429871811711794009
488,1.7813317878736312888968897042466
489,1.7817466946879295767857944281653
490,1.7821607944420044817913336922280
491,1.7825740912197499535737230952859
492,1.7829865891005713573645888345693
493,1.7833982921600874700987809454581
494,1.7838092044708524012848289216535
495,1.7842193301030966127068227975620
496,1.7846286731254913162201196960369
497,1.7850372376059330264896380151949
498,1.7854450276123533653237221389797
499,1.7858520472135528301646557727180
500,1.786258300480061940222491562439
501,1.786663791485026861535146847457
502,1.787068524305128398084554929733
503,1.787472503021527330856597829596
504,1.787875731720845549510984225620
505,1.788278214496177517736161016554
506,1.788679955448139594928845883967
507,1.789080958685956960275191741138
508,1.789481228328589789894404122306
509,1.789880768505899048821224767446
510,1.790279583359860210396478964991
511,1.790677677045820530773665163246
512,1.791075053733806322112394194628
513,1.791471717609881540659255851332
514,1.791867672877561234730476758634
515,1.792262923759283275544516529936
516,1.792657474497939822880728540736
517,1.793051329358473048923778206883
518,1.793444492629540576201775336163
519,1.793836968625251320496945280514
520,1.794228761686978760635672185691
521,1.794619876185252870390765802224
522,1.795010316521739724675127209590
523,1.795400087131310271515268253190
