Eigenstate,Potential Energy
1,0.500000000018450849059080135472443173
2,0.64623093777155209196274705288012584
3,0.73633761005875058239248097522684787
4,0.79966527855111060394617782290008437
5,0.8480465765620964026490133563611637
6,0.8870659988453848968081538873625664
7,0.9197208268386826804235806066645958
8,0.9477838469186952225553199310281912
9,0.9723835580915653729325110500997357
10,0.9942802145057808379174804040822455
11,1.0140093863023243101097028941215321
12,1.0319621687857852335612502802410230
13,1.0484326920219407867687856800035547
14,1.0636476536939111865428649520800589
15,1.0777854349163408175515182116280486
16,1.090988905105841005442702112399301
17,1.103374255442492960636645617987380
18,1.115037249876046395427481844206059
19,1.126057748229896626318437374758344
20,1.136503043835020698571533772761058
21,1.146430369611674364712801197268321
22,1.155888809228132089922443540900929
23,1.164920775037211624248642929136511
24,1.173563165476696107400645910809311
25,1.181848281865260424755862342704825
26,1.189804562210058934932415233137942
27,1.197457174169301290785916107202183
28,1.204828498411292268377634336067781
29,1.211938525816383698196828730607648
30,1.218805186318799024485702897748316
31,1.225444623039352519048625652339117
32,1.231871422282185591645640756348669
33,1.238098807658994835270441475282311
34,1.244138804853680178710743367320053
35,1.250002382201146453290991794808159
36,1.255699571220512802311311193166741
37,1.261239570438899813313353337284032
38,1.266630835211545510271150242057706
39,1.271881155746152693375252791977919
40,1.276997725143549330604727283409459
41,1.281987198949993431618815449122666
42,1.286855747461461233042261998002708
43,1.291609101813771179341159163588127
44,1.296252594724302168014505640161536
45,1.300791196613494958856743320126776
46,1.305229547721189364475796293949541
47,1.309571986739373226938799598263064
48,1.313822576405332821185680162908509
49,1.317985126434531781967814164532580
50,1.32206321411842293742713791425871
51,1.32606020286693046996819146390650
52,1.32997925893699461078427605362958
53,1.33382336655612095585972556615684
54,1.33759534162231535981992905162758
55,1.34129784413830987149381641490984
56,1.34493338951791060493252962543716
57,1.34850435888509947451257135857065
58,1.35201300847172453646382507184843
59,1.35546147820685973189033996324548
60,1.35885179957989031865175669563505
61,1.36218590284981605197063166212583
62,1.36546562366496316851912695701480
63,1.36869270915005433971942969110758
64,1.37186882351127328007144540920545
65,1.37499555320442585634955738297658
66,1.37807441170645220445712612701274
67,1.38110684392628206940240250097987
68,1.38409423028726942305169048685003
69,1.38703789051012974358939267526928
70,1.38993908712237507235115042483673
71,1.39279902871764325996551266712926
72,1.39561887298601957136025046339589
73,1.39839972953439581278619063236513
74,1.40114266251409329545902053151433
75,1.40384869307134484931674328346546
76,1.40651880163478154363541542962598
77,1.40915393005276737282789722772706
78,1.41175498359225936757028499443520
79,1.41432283280982377140859070787270
80,1.41685831530450079735390921381918
81,1.41936223736136113749776661529223
82,1.42183537549383594812594633785443
83,1.42427847789221329901946316697735
84,1.42669226578506978391528564181504
85,1.42907743471984671292577934386902
86,1.43143465576826444232655087230213
87,1.43376457666181092632253471338393
88,1.43606782286211719766649748071048
89,1.43834499857064898184265766757434
90,1.44059668768180043279885277057146
91,1.44282345468315452616001543158285
92,1.44502584550638634831660008853129
93,1.44720438833202326472598531524033
94,1.44935959435103302202677724790884
95,1.45149195848598968453693986964379
96,1.45360196007436548359026105971184
97,1.45569006351631231605604933774130
98,1.45775671888912375409226799304266
99,1.45980236253041495599317742435528
100,1.46182741759191152757651026899305
101,1.46383229456560907940069157622343
102,1.46581739178393965038158563717722
103,1.46778309589547325476532942698422
104,1.46972978231757554470342733862578
105,1.47165781566734950691937506239963
106,1.47356755017209834771237187230060
107,1.47545933006046863858826158566923
108,1.47733348993535355525346677532979
109,1.47919035512956744917351089720220
110,1.48103024204524057077266936331383
111,1.48285345847781690215275820635054
112,1.48466030392548862357561324946127
113,1.48645106988484520215971911092597
114,1.48822604013346633348512024653221
115,1.48998549100014751829816338293933
116,1.49172969162339872485941108831667
117,1.49345890419882487447129503303152
118,1.49517338421595585661650479321891
119,1.49687338068506006642182014991769
120,1.49855913635444961492710516744216
121,1.50023088791874709539495638272659
122,1.50188886621856487576371419394691
123,1.50353329643201569441454250057204
124,1.50516439825845565661462545366994
125,1.50678238609483116273542005725455
126,1.50838746920498610204735503568515
127,1.50997985188226506800594586811025
128,1.51155973360572576375442890873605
129,1.51312730919026169332989895177686
130,1.51468276893091785219267856031660
131,1.51622629874166672658056250877609
132,1.51775808028889693398876769327762
133,1.51927829111985505549251809816089
134,1.52078710478626993467026153101972
135,1.52228469096337060954307935868611
136,1.52377121556450535641548982114190
137,1.52524684085155601655921150537377
138,1.52671172554132816469090629792741
139,1.52816602490809557228927164435698
140,1.52960989088246197282860481814176
141,1.53104347214669857851598817114943
142,1.53246691422670772485216910046321
143,1.53388035958075436916694146065142
144,1.53528394768509998964278670097834
145,1.53667781511666924358152746155607
146,1.53806209563287187491774776313410
147,1.53943692024869415801675500474244
148,1.54080241731117520676153991636182
149,1.54215871257136994985886967102732
150,1.54350592925390241321751497798371
151,1.54484418812420522362772299755516
152,1.54617360755353563288656716636534
153,1.54749430358185701203700075734570
154,1.54880638997866971493645856093783
155,1.55010997830186954712117444907369
156,1.55140517795471170630218753489797
157,1.55269209624095124106906914921078
158,1.55397083841823184587486082533033
159,1.5552415077497866651077634284586
160,1.5565042055545174437593735792331
161,1.5577590312555105207805155326263
162,1.5590060824270491261961260487182
163,1.5602454548401768352485978295372
164,1.5614772425068668161346296565836
165,1.5627015377228454715232673234061
166,1.5639184311091209894139583436516
167,1.5651280116522640356241166558364
168,1.5663303667434832767897130221942
169,1.5675255822165407959395671353848
170,1.5687137423845471437290263811646
171,1.5698949300756762197638440420706
172,1.5710692266678378506421804868393
173,1.5722367121223434670154437079923
174,1.5733974650166007231519452223859
175,1.5745515625758710439063018800553
176,1.5756990807041198054173676378851
177,1.5768400940139924100420029771833
178,1.5779746758559454098908395077531
179,1.5791028983465591238816298141413
180,1.5802248323960626946789894434551
181,1.5813405477350942340764359248906
182,1.5824501129407237521758713053044
183,1.5835535954617619196081677943445
184,1.5846510616433789043005505539734
185,1.5857425767510550908836523975554
186,1.5868282049938846513271351964106
187,1.5879080095472557672705845168460
188,1.5889820525749229403334456432178
189,1.5900503952504951214607666454347
190,1.5911130977783553103484642640316
191,1.5921702194140308474655840322611
192,1.5932218184840307808414529225070
193,1.5942679524051686114300805868669
194,1.5953086777033837577980874182438
195,1.5963440500320796724580907269473
196,1.5973741241899923017100327320243
197,1.5983989541386032642735479954955
198,1.5994185930191119106523041254413
199,1.6004330931689790970456394916587
200,1.6014425061380566139682745351946
201,1.6024468827043132459567258146803
202,1.6034462728891708384735035229763
203,1.6044407259724610266909712242892
204,1.6054302905070142410161439726024
205,1.6064150143328909546682211808718
206,1.6073949445912681920056176885717
207,1.6083701277379871682277187123392
208,1.6093406095567762818557772160982
209,1.6103064351721552028203529549496
210,1.6112676490620315517540772816726
211,1.6122242950699975294459219651951
212,1.6131764164173367235788718355544
213,1.6141240557147454706386600843335
214,1.6150672549737837486768985225902
215,1.6160060556180548071530254691381
216,1.6169404984941274883053443135657
217,1.6178706238822051990863103014476
218,1.6187964715065505061046899946276
219,1.6197180805456686265032534382898
220,1.6206354896422623228922767203332
221,1.6215487369129561046211562215179
222,1.6224578599578069327459525946298
223,1.6233628958695949895162452356888
224,1.6242638812429095716716309590501
225,1.6251608521830326640824311511015
226,1.6260538443146237316672876091315
227,1.6269428927902143724260500220201
228,1.6278280322985146417789804651110
229,1.6287092970725382003473586167667
230,1.6295867208975509714035759328698
231,1.6304603371188450972448132667240
232,1.6313301786493486033946619302244
233,1.6321962779770657561204815843465
234,1.6330586671723642593156927431478
235,1.6339173778951024618301092478111
236,1.6347724414016062739994597511513
237,1.6356238885514994134838018442814
238,1.6364717498143887114081720079420
239,1.6373160552764099143673106855313
240,1.6381568346466361356928770045395
241,1.6389941172633532373125776820455
242,1.6398279321002049981319015142601
243,1.6406583077722120996915754447748
244,1.6414852725416666173164781948048
245,1.6423088543239063898462147547563
246,1.6431290806929717864939308688813
247,1.6439459788871462525976953553296
248,1.6447595758143882147972607094828
249,1.6455698980576493141301772976532
250,1.6463769718800893511462375483069
251,1.6471808232301858424454977074153
252,1.6479814777467409865330328794836
253,1.6487789607637911105867250443068
254,1.6495732973154182543882684614588
255,1.6503645121404677708400069067619
256,1.6511526296871720278273725322785
257,1.6519376741176866021644151249118
258,1.6527196693125354096742003402137
259,1.6534986388749715742475390203447
260,1.6542746061352544215774270514349
261,1.6550475941548429106193626571878
262,1.6558176257305102275024416081459
263,1.6565847233983783917709597507757
264,1.6573489094378783251072503667443
265,1.6581102058756339070610238570514
266,1.6588686344892721848150940367773
267,1.6596242168111629495170603464530
268,1.6603769741320877121735070612171
269,1.6611269275048423483031935041590
270,1.6618740977477691347708715960318
271,1.6626185054482274620353635966396
272,1.6633601709659972006532091158135
273,1.6640991144366221644292203579297
274,1.6648353557746908785083510529994
275,1.6655689146770585272651605108726
276,1.6662998106260083596196932889675
277,1.6670280628923600350703978372920
278,1.6677536905385166643679860826252
279,1.6684767124214620472752966479968
280,1.6691971471957002002590265384871
281,1.6699150133161450629168710609988
282,1.6706303290409578793883305765964
283,1.6713431124343354671758754268289
284,1.6720533813692465298917801494289
285,1.6727611535301228211711965975634
286,1.6734664464155011844769971240532
287,1.6741692773406215280675432490066
288,1.6748696634399771368834044368303
289,1.6755676216698219693973472050360
290,1.6762631688106356719347701323642
291,1.6769563214695441513850411876939
292,1.6776470960826985911900707852337
293,1.6783355089176168163648561674349
294,1.6790215760754820444442512580470
295,1.6797053134934011094811009288376
296,1.6803867369466297446352810700712
297,1.6810658620507548550584205843063
298,1.6817427042638430978054975000596
299,1.6824172788885525716083224271143
300,1.6830896010742093670938774499293
301,1.6837596858188493888624128342192
302,1.6844275479712275423352901976128
303,1.6850932022327914584782765545680
304,1.6857566631596233339069115976165
305,1.6864179451643513148773511325184
306,1.6870770625180296883593214916543
307,1.6877340293519850621416745018714
308,1.6883888596596360123959666665117
309,1.6890415672982822879602731920354
310,1.6896921659908639064866908320274
311,1.6903406693276937373521839500791
312,1.6909870907681610844620139234396
313,1.6916314436424076616916526725322
314,1.6922737411529777652374569098624
315,1.6929139963764419625161339639771
316,1.6935522222649956732517939310939
317,1.6941884316480301813524921847568
318,1.6948226372336814288181966987299
319,1.6954548516103537332388472959817
320,1.6960850872482184301377431850198
321,1.6967133565006913590916034279244
322,1.6973396716058853080547997380589
323,1.6979640446880409299240569173611
324,1.6985864877589351084799156671054
325,1.6992070127192685356828713736469
326,1.6998256313600307375474361010385
327,1.7004423553638453693465822029413
328,1.7010571963062929693377878916770
329,1.7016701656572161458660726332814
330,1.7022812747820036295069214653915
331,1.7028905349428546288216302735875
332,1.7034979573000245509461786685027
333,1.7041035529130524655475505086834
334,1.7047073327419684961497562669161
335,1.7053093076484854537409115394190
336,1.7059094883971707706915262332366
337,1.7065078856566016072085644985794
338,1.7071045100005041891559573218761
339,1.7076993719088734417270093492924
340,1.7082924817690790102873764612113
341,1.7088838498769533819448920441048
342,1.7094734864378646049740399856124
343,1.7100614015677732438624624206400
344,1.7106476052942735636652416453620
345,1.7112321075576207629792738857287
346,1.7118149182117417303111281607394
347,1.7123960470252328891751977424191
348,1.7129755036823419436245349977451
349,1.7135532977839370691173139919515
350,1.7141294388484610910377521636338
351,1.7147039363128727384538418709288
352,1.7152767995335746554555865316563
353,1.7158480377873274544305217419801
354,1.7164176602721512257320741749032
355,1.7169856761082148690032380546555
356,1.7175520943387114559237925779772
357,1.7181169239307228634048899787637
358,1.7186801737760729212178557744572
359,1.7192418526921648191820861411276
360,1.7198019694228117118172784714481
361,1.7203605326390522653153785106047
362,1.7209175509399576284191641337113
363,1.7214730328534244228074421838084
364,1.7220269868369587769680197897157
365,1.7225794212784496399132046708964
366,1.7231303444969302523951644577810
367,1.7236797647433306676198530638894
368,1.7242276902012181101765887530900
369,1.7247741289875298057178228709344
370,1.7253190891532939945528603545976
371,1.7258625786843419824542081043927
372,1.7264046055020101851449933714420
373,1.7269451774638321331727552152772
374,1.7274843023642247456387760777208
375,1.7280219879351595643422914843235
376,1.7285582418468304045456092132781
377,1.7290930717083092115601329010886
378,1.7296264850681932905550922429008
379,1.7301584894152457493804454794358
380,1.7306890921790259111587965265133
381,1.7312183007305125720719068042461
382,1.7317461223827172225016720325963
383,1.7322725643912919061770975931474
384,1.7327976339551266810172287753951
385,1.7333213382169403029146563467981
386,1.7338436842638647911011636081640
387,1.7343646791280196244199324531992
388,1.7348843297870795052911925360466
389,1.7354026431648363660435165975711
390,1.7359196261317528067034020216846
391,1.7364352855055072811696606671925
392,1.7369496280515346401346523717736
393,1.7374626604835595042235671071798
394,1.7379743894641210484329576716995
395,1.7384848216050920547252365208345
396,1.7389939634681918836300018794815
397,1.7395018215654929947438475365939
398,1.7400084023599210242459909600457
399,1.7405137122657469852037194109182
400,1.7410177576490758906082696425028
401,1.7415205448283278480430183099895
402,1.7420220800747123711829558917525
403,1.7425223696126987288477042067305
404,1.7430214196204802246797784811812
405,1.7435192362304298728751670690182
406,1.7440158255295535789832109961469
407,1.7445111935599379424771008792522
408,1.7450053463191901842712644759940
409,1.7454982897608730602440319243811
410,1.7459900297949372752257358990619
411,1.7464805722881456574515366321798
412,1.7469699230644926760498995806790
413,1.7474580879056203806077924739659
414,1.7479450725512271866391697368195
415,1.7484308826994737909011408229670
416,1.7489155240073826461715240305335
417,1.7493990020912338439564641455204
418,1.7498813225269545683451901993991
419,1.7503624908505063995052037047866
420,1.7508425125582654487207121528831
421,1.7513213931073992771393971382009
422,1.7517991379162398798108340305170
423,1.7522757523646505711376839398661
424,1.7527512417943903854451474495888
425,1.7532256115094723720089285855430
426,1.7536988667765193913625071729042
427,1.7541710128251148974930434335533
428,1.7546420548481487195933191273514
429,1.7551119980021617557370337631438
430,1.7555808474076824405617041951297
431,1.7560486081495624905919395274314
432,1.7565152852773090766958583238074
433,1.7569808838054087615490915160327
434,1.7574454087136543000209747308255
435,1.7579088649474621261343887926581
436,1.7583712574181884275655750225235
437,1.7588325910034419690300200298691
438,1.7592928705473926465941067486552
439,1.7597521008610764541921759920846
440,1.7602102867226979335372725851085
441,1.7606674328779272672523900096019
442,1.7611235440401955788427576872166
443,1.7615786248909880871777421932770
444,1.7620326800801297348264014050159
445,1.7624857142260726208775115269803
446,1.7629377319161762625658034775380
447,1.7633887377069878548441399574902
448,1.7638387361245157460740491167265
449,1.7642877316645039703100550000408
450,1.7647357287926999885889309956617
451,1.7651827319451231422877073742851
452,1.7656287455283266598679188358014
453,1.7660737739196589600465029865175
454,1.7665178214675206403105439003256
455,1.7669608924916207746160357702146
456,1.7674029912832278172367950847181
457,1.7678441221054198084378583272840
458,1.7682842891933302778359559100408
459,1.7687234967543923593380996197592
460,1.7691617489685807599666132971134
461,1.7695990499886494322610499730986
462,1.7700354039403681632716060280646
463,1.7704708149227566838798141291625
464,1.7709052870083144593158715146590
465,1.7713388242432501295719866620411
466,1.7717714306477077303716635521538
467,1.7722031102159889751736010848831
468,1.7726338669167766138136573242056
469,1.7730637046933513444432289406230
470,1.7734926274638098032665197673373
471,1.7739206391212778991443044112925
472,1.7743477435341237906364596452232
473,1.7747739445461658563458383527783
474,1.7751992459768831625166005413369
475,1.7756236516216173506010687463167
476,1.7760471652517784585587526445686
477,1.7764697906150450088417050049254
478,1.7768915314355630390123108290153
479,1.7773123914141429643333742042357
480,1.7777323742284546668678276976223
481,1.7781514835332193619175712600877
482,1.7785697229604018105425423062019
483,1.7789870961193982581105686610165
484,1.7794036065972229185851242782809
485,1.7798192579586944813785451320808
486,1.7802340537466172255146295425925
487,1.7806479974819635898324324613911
488,1.7810610926640527956666247139462
489,1.7814733427707287500515608172064
490,1.7818847512585350924402611877315
491,1.7822953215628895190847147462394
492,1.7827050570982559731251484619603
493,1.7831139612583146752560980231918
494,1.7835220374161310888654316163771
495,1.7839292889243220119964363287048
496,1.7843357191152220404050666915386
497,1.7847413313010460870830295704228
498,1.7851461287740519033459410842251
499,1.7855501148067000986522153962945
500,1.785953292651813789465436837514
501,1.786355665542733623010203978943
502,1.786757236693475630909278423562
503,1.787158009298883380632119208582
504,1.787557986534782268392316195097
505,1.787957171558128800754548445306
506,1.788355567507160594831488552642
507,1.788753177501544944884972854722
508,1.789150004642525595075205717049
509,1.789546052013065949027569473807
510,1.789941322677994769231111574977
511,1.790335819684147597118291089719
512,1.790729546060507793793351805955
513,1.791122504818345816918070945065
514,1.791514698951357409986666409787
515,1.791906131435801078059709210740
516,1.792296805230633060114811011236
517,1.792686723277640872575834098617
518,1.793075888501577209228091152201
519,1.793464303810290979286658929194
520,1.793851972094858340443227544408
521,1.794238896229710521943171013462
522,1.794625079072762713716891604591
523,1.795010523465540458545494137688
