Eigenstate,Potential Energy
1,0.500000000022448336532105771707217046
2,0.64623093779764558690737749555722572
3,0.73633761013539802691801887381344439
4,0.79966527871075821821951129660527707
5,0.8480465768386381648310235325949723
6,0.8870659992733076046538673062957304
7,0.9197208274527508284960981041768225
8,0.9477838477538194740307046853814443
9,0.9723835591827412987638407800902849
10,0.9942802158880577320296913534205959
11,1.0140093880107881629569353669884045
12,1.0319621708555489205141309401029323
13,1.0484326944881381842266835958332182
14,1.0636476565916935484033663781832841
15,1.0777854382808745152568664338051980
16,1.090988908972306124505656202438700
17,1.103374259846082454244299877329688
18,1.115037254851965611585898445722110
19,1.126057753813363092264747674135424
20,1.136503050061264086623967991625285
21,1.146430376515936588814820367888507
22,1.155888816845667498134215457509132
23,1.164920783403287262897083476958002
24,1.173563174626592039590907692090765
25,1.181848291834270090717146056822274
26,1.189804573033489544985784675096049
27,1.197457185882474244064435334277942
28,1.204828511049543592110434793238991
29,1.211938539415064503592573232504019
30,1.218805200913275976153500151080428
31,1.225444638665008315568187524865475
32,1.231871438974419455407047956682090
33,1.238098825453223010091794268799901
34,1.244138823785336434040736398751066
35,1.250002402305682594035642686197323
36,1.255699592533399183506058628047801
37,1.261239592995625859005519924626065
38,1.266630859047620236092212147818284
39,1.271881180897105232374080558900590
40,1.276997751644929461986990074454369
41,1.281987226837372112097831980207890
42,1.286855776770431130555678025366339
43,1.291609132579947208928145757794977
44,1.296252626983322029681466564724651
45,1.300791230401019677287153518929831
46,1.305229583072903830462837134288695
47,1.309572023690986740438757856044557
48,1.313822614992579635906332847480751
49,1.317985166693171651419739413987890
50,1.32206325608424166237753956564824
51,1.32606024657574044724675174706484
52,1.32997930442463538339902616302416
53,1.33382341385845976438819139809173
54,1.33759539077524769504708870501899
55,1.34129789517776002827380004087096
56,1.34493344247983223725569222119489
57,1.34850441380547615176362875391444
58,1.35201306538657030086031989314806
59,1.35546153715221965709378644606185
60,1.35885186059184106954655391836795
61,1.36218596596446644560822714456884
62,1.36546568891845473622702917877260
63,1.36869277657856189037653549385823
64,1.37186889315100546455280232938095
65,1.37499562509162573314516862887633
66,1.37807448587739780647070812969681
67,1.38110692041728697193718723846932
68,1.38409430913468331299140967614357
69,1.38703797175033898978355054000084
70,1.38993917079180329721450831989971
71,1.39279911485275191230252214259168
72,1.39561896162330850042583158499478
73,1.39839982071040384359491050467255
74,1.40114275626539880535530290217017
75,1.40384878943456634581925630131082
76,1.40651890064657824356928346762228
77,1.40915403174983978275881539893850
78,1.41175508801134986555502856105786
79,1.41432293998771719007679171228189
80,1.41685842527802500833631805457647
81,1.41936235016738763721654961632299
82,1.42183549116928044496286725872040
83,1.42427859647403630187807860979226
84,1.42669238731027719219356423021387
85,1.42907755922549040791578460694715
86,1.43143478329144288005807869514326
87,1.43376470723966973186781801457188
88,1.43606795653184976092329879524188
89,1.43834513536949705481327423439290
90,1.44059682764705472838274718555973
91,1.44282359785215531847797975482677
92,1.44502599191652407458452857607350
93,1.44720453802073912869650541814285
94,1.44935974735581959901715489026524
95,1.45149211484439152806183416537662
96,1.45360211982397973361805004286496
97,1.45569022669478930890761550985839
98,1.45775688553416763400126091097527
99,1.45980253267978428834693304850786
100,1.46182759128341991385692588675918
101,1.46383247183712577384451773078862
102,1.46581757267339017837970744547478
103,1.46778328044084003302075499050479
104,1.46972997055689850316784532090579
105,1.47165800763872671252824955406795
106,1.47356774591368662993868668287726
107,1.47545952961048421683515965948619
108,1.47733369333207266810613265564144
109,1.47919056241132698553080421412220
110,1.48103045325043870287911305788844
111,1.48285367364491372055163398738802
112,1.48466052309300677400402687079580
113,1.48645129309137052440662640266146
114,1.48822626741764850223343526988005
115,1.48998572240070068597218687686479
116,1.49172992717910216649895392871898
117,1.49345914394852363465397284065897
118,1.49517362819856139844984313375624
119,1.49687362893955092262690227763059
120,1.49855938891987204103562903712615
121,1.50023114483421572508170788764488
122,1.50188912752326337833657541893850
123,1.50353356216519743448429419644882
124,1.50516466845944435596691056495483
125,1.50678266080302156442740208129055
126,1.50838774845984463675169342143112
127,1.50998013572333052262486607881323
128,1.51156002207260995232680243351199
129,1.51312760232265013025436462985377
130,1.51468306676857042778997004222053
131,1.51622660132441838501835579314022
132,1.51775838765665835359250467433326
133,1.51927860331261333146575860627227
134,1.52078742184408926424830348057707
135,1.52228501292639297960371119466946
136,1.52377154247295123357084543067851
137,1.52524717274572503975289829165845
138,1.52671206246159984032467331179185
139,1.52816636689492997190364415301896
140,1.52961023797640043336208881102348
141,1.53104382438836440516751227235570
142,1.53246727165680689657169024412234
143,1.53388072224007624679916396794779
144,1.53528431561451802674925742577181
145,1.53667818835714169996634425283638
146,1.53806247422544253288239137405687
147,1.53943730423449304136969869231921
148,1.54080280673141930260837893717624
149,1.54215910746736393319894285686306
150,1.54350632966703937437311883028182
151,1.54484459409596739853218952344299
152,1.54617401912549513625763338250586
153,1.54749472079567657346206655910877
154,1.54880681287610341789649658670747
155,1.55011040692476357098020401580431
156,1.55140561234500507128943546816731
157,1.55269253644067655628106768959408
158,1.55397128446951606032494031928411
159,1.5552419596948518218505290591868
160,1.5565046634356814371180001079879
161,1.5577594951151878567047882194346
162,1.5590065523077516857794037092265
163,1.5602459307845146414320232747300
164,1.5614777245575488036270884248080
165,1.5627020259226802599658308446432
166,1.5639189255010176598176586820034
167,1.5651285122792329101101211443788
168,1.5663308736486367016612380795034
169,1.5675260954430939281148890216235
170,1.5687142619758187405653068059923
171,1.5698954560750894323016117001693
172,1.5710697591189210203004945136820
173,1.5722372510687309257679974504719
174,1.5733980105020335972145592300696
175,1.5745521146441980609664771509494
176,1.5756996393992981054367112563212
177,1.5768406593800883596626637114633
178,1.5779752479371354204771730557277
179,1.5791034771871304732286032551201
180,1.5802254180404143524190500975148
181,1.5813411402277376908167414634677
182,1.5824507123262838523980212375855
183,1.5835542017849776983628305809565
184,1.5846516749491044277295426003894
185,1.5857431970842603006022884501667
186,1.5868288323996562126998889379484
187,1.5879086440707979216133271315130
188,1.5889826942615583610757831015575
189,1.5900510441456657743021644889769
190,1.5911137539276233174421959789150
191,1.5921708828630793556646588391744
192,1.5932224892786648340410053681874
193,1.5942686305913160270409172019644
194,1.5953093633270960073863372583248
195,1.5963447431395327665861402058501
196,1.5973748248274876790141892067901
197,1.5983996623525686848141541733155
198,1.5994193088561023535722447843792
199,1.6004338166756776625734250370258
200,1.6014432373612754298022517194624
201,1.6024476216909943780670424241856
202,1.6034470196863872063589593165614
203,1.6044414806274173231279386438980
204,1.6054310530670478563371449277090
205,1.6064157848454729056079673782811
206,1.6073957231040040551526430575093
207,1.6083709142986180181199320751253
208,1.6093414042131796337586592507886
209,1.6103072379723459602266966631970
210,1.6112684600541629586445453005145
211,1.6122251143023621273499312452723
212,1.6131772439383673134756173324451
213,1.6141248915730160797384411985236
214,1.6150680992180106021231185605400
215,1.6160069082970973046856225655542
216,1.6169413596569891859266797613836
217,1.6178714935780347957708349247483
218,1.6187973497846428355940815061264
219,1.6197189674554656542289356369743
220,1.6206363852333541480676578943485
221,1.6215496412350819675461781879544
222,1.6224587730608562273668659450956
223,1.6233638178036082812839066876585
224,1.6242648120580796207418919961534
225,1.6251617919297054539025334612311
226,1.6260547930432995029925776978820
227,1.6269438505515486628115739071265
228,1.6278289991433193305909267191715
229,1.6287102730517825593396571436088
230,1.6295877060623627209053096567958
231,1.6304613315205114680044172172268
232,1.6313311823393174041273081342400
233,1.6321972910069464468053784148551
234,1.6330596895939290302903926194652
235,1.6339184097602873187292434997105
236,1.6347734827625121285857884103757
237,1.6356249394603931804198147583776
238,1.6364728103237044110167528060389
239,1.6373171254387497814305017917877
240,1.6381579145147717343381175176686
241,1.6389952068902265820361565215284
242,1.6398290315389296810097874559605
243,1.6406594170760744238281520995068
244,1.6414863917641267365821977197245
245,1.6423099835185994549554952692424
246,1.6431302199137090974751191391206
247,1.6439471281879164177072561689142
248,1.6447607352493583159308190181037
249,1.6455710676811660787834688242158
250,1.6463781517466803309794211254228
251,1.6471820133945605985047729334963
252,1.6479826782637922811838466043435
253,1.6487801716885961062133940586930
254,1.6495745187032397189152453487121
255,1.6503657440467552901304597382745
256,1.6511538721675632250152298136210
257,1.6519389272280083639764843869217
258,1.6527209331088051197993618897416
259,1.6534999134133983538106152249792
260,1.6542758914722403767757210910580
261,1.6550488903469843875803148136978
262,1.6558189328345990744214368418184
263,1.6565860414714032283886545718577
264,1.6573502385370258195864847259444
265,1.6581115460582900603236392700957
266,1.6588699858130236223997253182111
267,1.6596255793337982210193006836802
268,1.6603783479115985983304285356066
269,1.6611283125994251757847344257585
270,1.6618754942158260987411169661875
271,1.6626199133483679565472419546991
272,1.6633615903570391569407076057969
273,1.6641005453775933971617044584304
274,1.6648367983248304400722669360531
275,1.6655703688958180701387151989861
276,1.6663012765730535069068414815831
277,1.6670295406275717592610396978646
278,1.6677551801219926743916406100553
279,1.6684782139135181839163960302021
280,1.6691986606568718400023033772297
281,1.6699165388071885302919720223423
282,1.6706318666228518678835643645017
283,1.6713446621682824687912124950572
284,1.6720549433166742734021352159902
285,1.6727627277526857191716461573263
286,1.6734680329750817892819662313584
287,1.6741708762993319965368690132833
288,1.6748712748601607042486280157822
289,1.6755692456140544321623070950057
290,1.6762648053417268799252939713319
291,1.6769579706505395090229416041628
292,1.6776487579768805680675592186522
293,1.6783371835885064671959380987047
294,1.6790232635868405384707073067814
295,1.6797070139092312694107428784091
296,1.6803884503311775951913911614356
297,1.6810675884685111812196608964672
298,1.6817444437795450128164696392055
299,1.6824190315671850948416103781777
300,1.6830913669810070118448344375115
301,1.6837614650192977601592463510012
302,1.6844293405310649448471514391419
303,1.6850950082180105146051845964209
304,1.6857584826364726121358885092817
305,1.6864197781993369684899442041030
306,1.6870789091779171045764834477292
307,1.6877358897038005217926558898111
308,1.6883907337706683601988446004316
309,1.6890434552360846135021370898385
310,1.6896940678232552359927442617335
311,1.6903425851227607363335206295443
312,1.6909890205942597713327522561645
313,1.6916333875681651324468965133509
314,1.6922756992472939292843871197919
315,1.6929159687084912897512797505456
316,1.6935542089042289524785981028023
317,1.6941904326641762901339855932348
318,1.6948246526967491148602148458260
319,1.6954568815906334074006245754118
320,1.6960871318162839711672710821317
321,1.6967154157274019301838505988269
322,1.6973417455623871853322754159727
323,1.6979661334457693429396625053521
324,1.6985885913896160928431442901444
325,1.6992091312949207979113591959033
326,1.6998277649529675322467992571830
327,1.7004445040466763888220950007605
328,1.7010593601519262457430830611372
329,1.7016723447388599659944623908124
330,1.7022834691731684623318378769508
331,1.7028927447173550658943614786519
332,1.7035001825319812597591672373290
333,1.7041057936768941559732618868097
334,1.7047095891124339000657725345869
335,1.7053115797006253179530146430211
336,1.7059117762063498632675135945533
337,1.7065101892985007373367951797735
338,1.7071068295511222406434612821575
339,1.7077017074445294202530670143137
340,1.7082948333664141045299591604999
341,1.7088862176129330386977841827059
342,1.7094758703897806183741013141700
343,1.7100638018132458588474904553670
344,1.7106500219112535937838655092908
345,1.7112345406243917226756227579433
346,1.7118173678069219818081518179585
347,1.7123985132277778040815920343925
348,1.7129779865715460793915308387601
349,1.7135557974394363604726774130576
350,1.7141319553502350565256285186994
351,1.7147064697412467022103283303411
352,1.7152793499692219843510398100323
353,1.7158506053112718107108838792563
354,1.7164202449657688352929026316509
355,1.7169882780532368054312950305972
356,1.7175547136172259404421298837684
357,1.7181195606251775808591998405751
358,1.7186828279692773522426911379134
359,1.7192445244672925886870039991715
360,1.7198046588634029539346032087345
361,1.7203632398290160049521359145811
362,1.7209202759635741795575593369258
363,1.7214757757953478036994326597606
364,1.7220297477822191423709513048672
365,1.7225822003124557305151467138445
366,1.7231331417054718615795220663822
367,1.7236825802125811257207604232202
368,1.7242305240177367863779692678372
369,1.7247769812382646277502938187520
370,1.7253219599255839863441963265424
371,1.7258654680659198198909753968200
372,1.7264075135810047701040857999427
373,1.7269481043287711859832021223322
374,1.7274872481040374161358130192581
375,1.7280249526391790616775573085726
376,1.7285612256047966459182871239068
377,1.7290960746103714900363210641988
378,1.7296295072049129621435181280016
379,1.7301615308775989395348829131076
380,1.7306921530584062408789978981564
381,1.7312213811187339037765727751145
382,1.7317492223720164258488168382862
383,1.7322756840743316440086670498123
384,1.7328007734249982156070058002447
385,1.7333244975671663226997693036385
386,1.7338468635884022580796790041577
387,1.7343678785212626423988181407809
388,1.7348875493438622091705644718799
389,1.7354058829804358323250461157584
390,1.7359228863018919854128736662809
391,1.7364385661263579493852641173638
392,1.7369529292197203773145806563766
393,1.7374659822961586895287152674076
394,1.7379777320186698802421057374215
395,1.7384881849995875925423119252291
396,1.7389973478010951125852131295465
397,1.7395052269357319128920641792696
398,1.7400118288668937528681900782209
399,1.7405171600093249023193793574765
400,1.7410212267296067879085057085827
401,1.7415240353466391114565872846548
402,1.7420255921321141852893818559953
403,1.7425259033109873053539492204114
404,1.7430249750619410551789319473012
405,1.7435228135178410061083454801383
406,1.7440194247661889228275621984882
407,1.7445148148495705908855059105230
408,1.7450089897660957693914327370564
409,1.7455019554698331299472267536924
410,1.7459937178712426962774994111314
411,1.7464842828376000445594510956634
412,1.7469736561934158470256849171495
413,1.7474618437208518378835068197834
414,1.7479488511601296253800657521628
415,1.7484346842099366339594753099633
416,1.7489193485278256061293949255818
417,1.7494028497306105125070297937491
418,1.7498851933947560332652929953099
419,1.7503663850567648894742760558764
420,1.7508464302135580062442784972534
421,1.7513253343228514598372196713819
422,1.7518031028035294903336066889646
423,1.7522797410360114159779974904528
424,1.7527552543626160629119704312143
425,1.7532296480879200896371910164071
426,1.7537029274791138130323903090873
427,1.7541750977663520205365080030344
428,1.7546461641430997821687097460946
429,1.7551161317664771747548497502309
430,1.7555850057575957804480284690725
431,1.7560527912018944631794802548051
432,1.7565194931494715725347018501044
433,1.7569851166154089129333682073019
434,1.7574496665800985760301225351610
435,1.7579131479895604599910298313418
436,1.7583755657557583766158322730432
437,1.7588369247569129076543350543101
438,1.7592972298378099923610365285536
439,1.7597564858101059275701223556247
440,1.7602146974526298514831140266451
441,1.7606718695116808709990785403383
442,1.7611280067013233962117016546532
443,1.7615831137036803297448663377013
444,1.7620371951692187302748797049148
445,1.7624902557170372808737106310330
446,1.7629422999351465864980830147973
447,1.7633933323807494697685822537916
448,1.7638433575805144832144462491680
449,1.7642923800308504784636319418158
450,1.7647404041981743847927552721876
451,1.7651874345191797001051267874370
452,1.7656334754010985356575555496434
453,1.7660785312219629575814333022081
454,1.7665226063308620141180393510156
455,1.7669657050481980724134832792721
456,1.7674078316659377618427394078118
457,1.7678489904478622195418113679937
458,1.7682891856298130340145866980125
459,1.7687284214199364007098554027371
460,1.7691667019989251318812089272438
461,1.7696040315202563704244607833083
462,1.7700404141104282207119040328341
463,1.7704758538691939001635418722414
464,1.7709103548697915724295009990262
465,1.7713439211591738308872424715336
466,1.7717765567582339631184337117403
467,1.7722082656620282768490024216975
468,1.7726390518399995029602686449249
469,1.7730689192361937522349654245660
470,1.7734978717694785503450172269042
471,1.7739259133337562181538872169841
472,1.7743530477981768949110571048309
473,1.7747792790073465552058434493045
474,1.7752046107815375236394936518906
475,1.7756290469168904099342227212783
476,1.7760525911856199782487260558078
477,1.7764752473362152836596398768439
478,1.7768970190936387517600566327704
479,1.7773179101595230907212452322577
480,1.7777379242123664303598180341634
481,1.7781570649077242390459554220885
482,1.7785753358784015871995420847127
483,1.7789927407346411373304870986014
484,1.7794092830643096803361391095468
485,1.7798249664330846948895830554271
486,1.7802397943846355146688998266518
487,1.7806537704408059521648310175613
488,1.7810668981017929755091692856802
489,1.7814791808463246663766256918747
490,1.7818906221318353219582711917455
491,1.7823012253946398351592952187959
492,1.7827109940501059410752140497981
493,1.7831199314928243046210265025493
494,1.7835280410967775432163918432782
495,1.7839353262155063768834116536527
496,1.7843417901822761500365635361469
497,1.7847474363102394103418799585106
498,1.7851522678925984897521585274181
499,1.7855562882027655848908458960153
500,1.785959500494522467104653923419
501,1.786361908002175568042546710040
502,1.786763513940713895755930972254
503,1.787164321505961249258300884313
504,1.787564333874730575188948621856
505,1.787963554204973313849820046376
506,1.788361985635929464503141445178
507,1.788759631288276217752958051378
508,1.789156494264274794761440053198
509,1.789552577647913723978900410219
510,1.789947884505054608409049561852
511,1.790342417883573614267900386483
512,1.790736180813502581012296043572
513,1.791129176307168368255429423910
514,1.791521407359331115809934448675
515,1.791912876947321790936975863990
516,1.792303588031177232969077745982
517,1.792693543553773769876586361192
518,1.793082746440961191995294269930
519,1.793471199601693864691112850822
520,1.793858905928161836797689586033
521,1.794245868295918739886965852556
522,1.794632089564010754408019827971
523,1.795017572575103079683365983045
