Eigenstate,Potential Energy
1,0.500000000021165057111948901639764229
2,0.64623093778926901247169911887375202
3,0.73633761011079253755696406277018707
4,0.79966527865950785659766009973933413
5,0.8480465767498621901963470327162274
6,0.8870659991359349388787789658830018
7,0.9197208272556212096947062349670481
8,0.9477838474857256723589156943385951
9,0.9723835588324487748805133079821673
10,0.9942802154443146404996940885653890
11,1.0140093874623308105100221048813066
12,1.0319621701911049081828606924834848
13,1.0484326936964282885946091272445606
14,1.0636476556614328772241550899173152
15,1.0777854372007732253297985366412042
16,1.090988907731069864596374902916286
17,1.103374258432412629164747194638066
18,1.115037253254559526352414571221640
19,1.126057752020914013660167854115413
20,1.136503048062461246506209262237545
21,1.146430374299465145461387161314195
22,1.155888814400208466776643755128002
23,1.164920780717517423242101254410103
24,1.173563171689183825880611259869720
25,1.181848288633891468349218161172564
26,1.189804569558803876650652693355861
27,1.197457182122140147604229015608298
28,1.204828506992214791764869577771657
29,1.211938535049389675903998491733395
30,1.218805196227898591513600458273950
31,1.225444633648566476172537307347220
32,1.231871433615545730220456725060622
33,1.238098819740544267302849247912864
34,1.244138817707473671388039193760895
35,1.250002395851250767313695697071207
36,1.255699585691007033500336621149900
37,1.261239585753875737060100622578959
38,1.266630851395107928476602432534270
39,1.271881172822419783586425133295987
40,1.276997743136652997107084173997079
41,1.281987217884079658284069865014626
42,1.286855767360690437764303750989057
43,1.291609122702318569920231008948644
44,1.296252616626358099372349615411897
45,1.300791219553265291484200474383326
46,1.305229571722895824029990525777314
47,1.309572011827253764920135485382596
48,1.313822602603641976635922542509099
49,1.317985153767541044139829892247899
50,1.32206324261042110938478528533138
51,1.32606023254222403308158226809668
52,1.32997928981990809009138790707112
53,1.33382339867099728627027404005040
54,1.33759537499351625314167292897788
55,1.34129787879021618426512543857032
56,1.34493342547492270704823949718330
57,1.34850439617163761863289859821572
58,1.35201304711222922819854735329202
59,1.35546151822579210075253132543810
60,1.35885184100173248977723261031740
61,1.36218594569907151860087513112284
62,1.36546566796615716524690552473526
63,1.36869275492773421649757746619048
64,1.37186887079000887698640778506831
65,1.37499560200880987916229554706824
66,1.37807446206110060091487490823765
67,1.38110689585583440632555857436914
68,1.38409428381638926420082867705124
69,1.38703794566350502831805491712920
70,1.38993914392471849505061097138549
71,1.39279908719369265030826754117769
72,1.39561893316053827534942381943254
73,1.39839979143217307461850263015913
74,1.40114272615994464020934393766267
75,1.40384875849011246645261965236330
76,1.40651886885133467137024652387129
77,1.40915399909200268332181385489224
78,1.41175505447910135298797499037592
79,1.41432290556922513084361943768258
80,1.41685838996144282462929980641888
81,1.41936231394085410985283323228702
82,1.42183545402091951579956543997788
83,1.42427855839195687574016456052496
84,1.42669234828257293830872494710263
85,1.42907751924023956085031104406263
86,1.43143474233670804014778419513151
87,1.43376466530349766513790708028725
88,1.43606791360227119849103213131068
89,1.43834509143452649176721248751389
90,1.44059678269469022213228658445536
91,1.44282355187037828656683805532450
92,1.44502594489329909196176266358967
93,1.44720448994401372443860238968464
94,1.44935969821352405249466920128985
95,1.45149206462443866454399296166191
96,1.45360206851426471930869785956479
97,1.45569017428318944540581220745409
98,1.45775683200854215217979851171817
99,1.45980247802797414164198638418760
100,1.46182753549324757096200681086424
101,1.46383241489639501080184103849908
102,1.46581751456988587006205395082843
103,1.46778322116232794399684116196403
104,1.46972991009112507794418430543044
105,1.47165794597341886516042871940240
106,1.47356768303655153300495196059301
107,1.47545946550920908976513781579653
108,1.47733362799432456485749719186837
109,1.47919049582475258160662323559650
110,1.48103038540266408167858698920186
111,1.48285360452354415904688557341154
112,1.48466045268562652773555414924276
113,1.48645122138554261178998489741316
114,1.48822619440091448816968154985400
115,1.48998564806058046475456017400634
116,1.49172985150309374400822633431365
117,1.49345906692410290983486646928561
118,1.49517354981318194406085123913573
119,1.49687354918064376525581090051605
120,1.49855930777484544037300171747616
121,1.50023106229045495244453548044058
122,1.50188904356813049443424760180278
123,1.50353347678603106641901278270121
124,1.50516458164355947346060989273024
125,1.50678257253770925526720048359574
126,1.50838765873237188144583993567739
127,1.50998004452093996826112182843700
128,1.51155992938251968562511838851072
129,1.51312750813205344980569554198931
130,1.51468297106463561547300030351777
131,1.51622650409428847658587113472587
132,1.51775828888745090841908328277920
133,1.51927850299142020144842289711711
134,1.52078731995797636185170643428570
135,1.52228490946240004504138433051011
136,1.52377143741809160111399820998520
137,1.52524706608698540315817809743515
138,1.52671195418594001737227916497178
139,1.52816625698928266803710231909502
140,1.52961012642767100442094653328380
141,1.53104371118343061920420958003916
142,1.53246715678251869474370443939980
143,1.53388060568325550332760178896569
144,1.53528419736195830793487677768957
145,1.53667806839560802225404935547497
146,1.53806235254167111996511096760082
147,1.53943718081519108032253550082519
148,1.54080268156326469904386629596291
149,1.54215898053700506543414554201756
150,1.54350620096109484659930946175054
151,1.54484446360102579297774116049102
152,1.54617388682811476433469619247074
153,1.54749458668238522588757963781193
154,1.54880667693339811377799154909038
155,1.55011026913911030585679626408423
156,1.55140547270283856411836064034222
157,1.55269239492839999536001979255917
158,1.55397114107350084814044558351466
159,1.5552418144014373188425093312523
160,1.5565045162311747043505789502769
161,1.5577593459858633974334010004936
162,1.5590064012398511859041479626667
163,1.5602457777642467088271278081997
164,1.5614775695710887063363398609004
165,1.5627018689561696632536848385715
166,1.5639187665405643620657482490644
167,1.5651283513109105775487668684362
168,1.5663307106584846019254712492249
169,1.5675259304171166626145148250111
170,1.5687140948999859756583672021282
171,1.5698952869353356292605815399673
172,1.5710695879011451640604886683980
173,1.5722370777587962524461460846989
174,1.5733978350857673203896668566933
175,1.5745519371073910967079934227632
176,1.5756994597277047960719838784849
177,1.5768404775594261962713250349739
178,1.5779750639530847641014668424334
179,1.5791032910253342747884083961544
180,1.5802252296864778713201916313185
181,1.5813409496672282122411758772740
182,1.5824505195447304032644053213736
183,1.5835540067678707619458167244972
184,1.5846514776818956569261402706525
185,1.5857429975523622298335709670343
186,1.5868286305884419684361217986572
187,1.5879084399656009315106414686449
188,1.5889824878476720617123228636909
189,1.5900508354083433175016407698305
190,1.5911135428520772751726381413303
191,1.5921706694344814235000706018718
192,1.5932222734821455331735682747713
193,1.5942684124119644048312475921631
194,1.5953091427499593364392684470599
195,1.5963445201496162423393703596123
196,1.5973745994097541158270751389921
197,1.5983994344919382105437808747916
198,1.5994190785374521026238389122032
199,1.6004335838838414674121464345562
200,1.6014430020810435109131590235962
201,1.6024473839071130323500755543100
202,1.6034467793835584939455828216983
203,1.6044412377902987526060314755301
204,1.6054308076802520683706202880657
205,1.6064155368935673549375157721686
206,1.6073954725715106909638340646130
207,1.6083706611700129627648758170673
208,1.6093411484728928598172859180420
209,1.6103069796047609658935983504642
210,1.6112681990436164414272552348860
211,1.6122248506331436560643535946712
212,1.6131769775947189985242830892221
213,1.6141246225391322416570619065033
214,1.6150678274780374383808795313999
215,1.6160066338351325547245312272413
216,1.6169410824570817944251061498348
217,1.6178712136241845741163573894542
218,1.6187970670608001215505429171510
219,1.6197186819455309697826140822257
220,1.6206360969211778554372209980642
221,1.6215493501044639233409891264719
222,1.6224584790955454348782202940416
223,1.6233635209873025408934359600430
224,1.6242645123744251784314341273411
225,1.6251614893622966478495802463293
226,1.6260544875756784082352394573276
227,1.6269435421672047339669153964625
228,1.6278286878256890426104625442023
229,1.6287099587842490462855150556529
230,1.6295873888282554127305620049252
231,1.6304610113031057253209410966488
232,1.6313308591218341509443292515957
233,1.6321969647725518012217555855430
234,1.6330593603257339331235909944986
235,1.6339180774413471600637878821917
236,1.6347731473758263722238283411274
237,1.6356246009889049862162883998412
238,1.6364724687503002550815588955628
239,1.6373167807462590741798726297172
240,1.6381575666859664363772657469953
241,1.6389948559078208178551149405975
242,1.6398286773855793504742486051813
243,1.6406590597343768114469484417179
244,1.6414860312166201185328457357394
245,1.6423096197477627038491833877286
246,1.6431298529019612848422852841074
247,1.6439467579176164141847617691424
248,1.6447603617028043891316190336611
249,1.6455706908405954888294442633986
250,1.6463777715942689236779039943686
251,1.6471816299124223961491680647821
252,1.6479822914339790709585779553729
253,1.6487797814930970261831406019903
254,1.6495741251239808415784500121979
255,1.6503653470655992035167568726246
256,1.6511534717663086113063416369419
257,1.6519385233883895756299468956233
258,1.6527205258124917531543028060470
259,1.6534995026419948201545734402627
260,1.6542754772072854708513648291116
261,1.6550484725699508535106715712213
262,1.6558185115268931690321772125137
263,1.6565856166143642819056789551297
264,1.6573498101119257936869230038738
265,1.6581111140463331035182135232339
266,1.6588695501953456227241502346301
267,1.6596251400914663560123198578618
268,1.6603779050256108822758024406206
269,1.6611278660507100041943383052201
270,1.6618750439852417900560850911126
271,1.6626194594167022910339345825618
272,1.6633611327050089127580572841554
273,1.6641000839858438835762725856876
274,1.6648363331739350277971383724340
275,1.6655698999662777187721980444519
276,1.6663008038452962894466999900647
277,1.6670290640819523836697268959924
278,1.6677546997387920021879304066726
279,1.6684777296729427457683713370253
280,1.6691981725390533482966599671689
281,1.6699160467921833886541915754726
282,1.6706313706906406776234336057150
283,1.6713441622987695322479492163428
284,1.6720544394896870941629213833118
285,1.6727622199479744991374282443167
286,1.6734675211723189225540351416878
287,1.6741703604781115600973563965825
288,1.6748707549999979454080379155361
289,1.6755687216943852527469249251749
290,1.6762642773419073171768887411315
291,1.6769574385498452131831737217193
292,1.6776482217545062766190323669902
293,1.6783366432235654757318655869789
294,1.6790227190583641681644882218464
295,1.6797064651961683310569604572304
296,1.6803878974123938497891828042007
297,1.6810670313227887970692649661494
298,1.6817438823855820190993670466633
299,1.6824184659035948316545433214442
300,1.6830907970263175766577426715313
301,1.6837608907519514506667006664881
302,1.6844287619294176981827897878610
303,1.6850944252603313428882555678985
304,1.6857578953009430343187961136692
305,1.6864191864640504384752463583034
306,1.6870783130208784355717913769408
307,1.6877352891029253068714451303239
308,1.6883901287037823890345949664842
309,1.6890428456809232852435648506038
310,1.6896934537574629682470699879758
311,1.6903419665238903702244652829384
312,1.6909883974397719726000135080280
313,1.6916327598354277885530371760888
314,1.6922750669135815424951566864101
315,1.6929153317509843661548567765720
316,1.6935535673000133869090760189124
317,1.6941897863902427469638665485879
318,1.6948240017299924046266163422593
319,1.6954562259078518592294008646706
320,1.6960864713941788009588925036412
321,1.6967147505425766045249039774820
322,1.6973410755913467810953939045834
323,1.6979654586649199025351388542171
324,1.6985879117752639750845892758634
325,1.6992084468232720244576401410178
326,1.6998270756001271295820457008833
327,1.7004438097886477257354211667635
328,1.7010586609646103662689293513584
329,1.7016716405980549177742446650211
330,1.7022827600545686203576605770686
331,1.7028920305965504515942643419818
332,1.7034994633844568553838754472083
333,1.7041050694780292142436342943696
334,1.7047088598375012490395363150073
335,1.7053108453247906610694954180220
336,1.7059110367046710745283001105422
337,1.7065094446459271515799400064450
338,1.7071060797224939388684848678932
339,1.7077009524145765099536942822704
340,1.7082940731097559949907258453828
341,1.7088854521040777112107497310887
342,1.7094750996031238913311610012114
343,1.7100630257230706476633311267003
344,1.7106492404917291656043426511861
345,1.7112337538495729458258654502038
346,1.7118165756507485699340041325369
347,1.7123977156640735549379712110170
348,1.7129771835740181082305212694594
349,1.7135549889816743279837156869913
350,1.7141311414057103912799436036697
351,1.7147056502833118175610491374593
352,1.7152785249711094897398598574199
353,1.7158497747460937173322740292791
354,1.7164194088065157560654014517347
355,1.7169874362727771492257777222881
356,1.7175538661883051005161617539299
357,1.7181187075204171174458558509499
358,1.7186819691611741692420626209318
359,1.7192436599282181044079160128232
360,1.7198037885656022658334841125785
361,1.7203623637446070483156270142754
362,1.7209193940645468800749849715586
363,1.7214748880535632238702860265398
364,1.7220288541694086216925498186543
365,1.7225813008002200193944750766083
366,1.7231322362652802489134866669141
367,1.7236816688157705600877228609065
368,1.7242296066355109907834200915026
369,1.7247760578416932078685285034414
370,1.7253210304856015321978670371941
371,1.7258645325533250009089963564852
372,1.7264065719664594234984021218868
373,1.7269471565827993983842182603651
374,1.7274862941970245984255149565253
375,1.7280239925413710169585948483922
376,1.7285602592862986305572872398370
377,1.7290951020411472677182893244912
378,1.7296285283547838508740754819883
379,1.7301605457162428515263242933291
380,1.7306911615553567152553067405750
381,1.7312203832433791320321259214480
382,1.7317482180935982699948396381006
383,1.7322746733619446473404359581990
384,1.7327997562475886060245898019704
385,1.7333234738935310085142651753487
386,1.7338458333871878162358938551386
387,1.7343668417609642990452751913396
388,1.7348865059928228125061536410153
389,1.7354048330068448176517260245969
390,1.7359218296737843323226005658626
391,1.7364375028116131310087432309412
392,1.7369518591860613015585591700168
393,1.7374649055111506322280066569597
394,1.7379766484497194101516851655822
395,1.7384870946139414880938145807766
396,1.7389962505658392703315995976155
397,1.7395041228177902475635143483381
398,1.7400107178330270889611930369600
399,1.7405160420261298571404158172811
400,1.7410201017635146459926989539158
401,1.7415229033639146902810151910862
402,1.7420244530988546921999759530082
403,1.7425247571931211856236082759150
404,1.7430238218252268311142197335215
405,1.7435216531278661071208149365030
406,1.7440182571883685063850338287859
407,1.7445136400491463542576197711331
408,1.7450078077081347521032279717347
409,1.7455007661192265068529989462648
410,1.7459925211927045611668539621331
411,1.7464830787956661842060407186475
412,1.7469724447524425055885379970848
413,1.7474606248450144715696735686294
414,1.7479476248134216472762636870314
415,1.7484334503561681489399039502683
416,1.7489181071306221357449932454335
417,1.7494016007534117097615025332402
418,1.7498839368008143871813885066479
419,1.7503651208091444193531470655939
420,1.7508451582751329455194425593983
421,1.7513240546563049294241063891488
422,1.7518018153713521613738449889835
423,1.7522784458005001618772185845175
424,1.7527539512858726005680820259233
425,1.7532283371318496097557794313515
426,1.7537016086054235994240377957750
427,1.7541737709365500582902474836331
428,1.7546448293184933545941653075985
429,1.7551147889081714489847232994608
430,1.7555836548264923815915777716846
431,1.7560514321586900369159285007554
432,1.7565181259546563360348206273937
433,1.7569837412292651939958166089228
434,1.7574482829626993403182156731216
435,1.7579117561007678262542196329469
436,1.7583741655552221197786508060213
437,1.7588355162040689496547701756262
438,1.7592958128918788806185236821193
439,1.7597550604300913009623614380664
440,1.7602132635973168937091391261203
441,1.7606704271396347512051780574321
442,1.7611265557708876967550557852108
443,1.7615816541729754609684130012426
444,1.7620357269961403321655896176343
445,1.7624887788592546114748587183822
446,1.7629408143501008969450506060399
447,1.7633918380256523658156504446629
448,1.7638418544123462731191486129500
449,1.7642908680063585070931577372728
450,1.7647388832738713538159880037355
451,1.7651859046513419741317628756764
452,1.7656319365457644341846365045788
453,1.7660769833349310326056265557699
454,1.7665210493676893132708615537665
455,1.7669641389641983874746226645701
456,1.7674062564161798624852275757257
457,1.7678474059871680721609850488452
458,1.7682875919127560054912938235147
459,1.7687268184008394469561888277147
460,1.7691650896318589710160788067339
461,1.7696024097590376404235758287948
462,1.7700387829086176213760030407981
463,1.7704742131800943192460330387109
464,1.7709087046464461957633509879268
465,1.7713422613543642363487603398855
466,1.7717748873244781982641678427808
467,1.7722065865515789200596744281261
468,1.7726373630048417079238867130389
469,1.7730672206280432755993127778576
470,1.7734961633397797623675728462815
471,1.7739241950336800961756095047775
472,1.7743513195786189994778754690172
473,1.7747775408189249886605080863708
474,1.7752028625745908710030207273278
475,1.7756272886414756618957462977784
476,1.7760508227915104360787811403752
477,1.7764734687728984458608828951536
478,1.7768952303103141822666707200547
479,1.7773161111051002684562764245708
480,1.7777361148354625799573813823536
481,1.7781552451566621425429526807802
482,1.7785735057012073764990903585539
483,1.7789909000790420672371753869571
484,1.7794074318777318819606513492992
485,1.7798231046626509092179260705334
486,1.7802379219771628060887503243283
487,1.7806518873428034017396688913988
488,1.7810650042594593537874695913869
489,1.7814772762055460855216855820458
490,1.7818887066381828669811849994504
491,1.7822992989933671740348787436819
492,1.7827090566861469135185563532740
493,1.7831179831107904892991350683578
494,1.7835260816409558031670939981482
495,1.7839333556298563829102752817505
496,1.7843398084104278818467691987232
497,1.7847454432954906351901106820232
498,1.7851502635779122183515327580320
499,1.7855542725307675043484443734271
500,1.785957473407498350636568572603
501,1.786359869442068661220154114175
502,1.786761463849122279032374643112
503,1.787162259824135176520451514080
504,1.787562260543569788077894451853
505,1.787961469165024331588983014451
506,1.788359888827382848970403939258
507,1.788757522650963813529321912033
508,1.789154373737666943886587227645
509,1.789550445171116455139136841110
510,1.789945740016806800281208208932
511,1.790340261322244132738212000342
512,1.790734012117087389986315631409
513,1.791126995413287613771481064438
514,1.791519214205226183164899758427
515,1.791910671469852334529730945167
516,1.792301370166818178562819970510
517,1.792691313238612288978035208349
518,1.793080503610693648044638901840
519,1.793468944191622730752961985497
520,1.793856637873192584438655557276
521,1.794243587530556698923289160632
522,1.794629796022357943200320862327
523,1.795015266190855005653349433753
