Eigenstate,Potential Energy
1,0.500000000012647525219959179475686979
2,0.64623093773367107451212361210609860
3,0.73633760994747840675063097807021370
4,0.79966527831934409947992278898535242
5,0.8480465761606310043290225551047436
6,0.8870659982241559260147504861831289
7,0.9197208259472229524037915720529112
8,0.9477838457063261218518969948507093
9,0.9723835565074859187753992979746655
10,0.9942802124991130870438718390066754
11,1.0140093838221382053698525212048238
12,1.0319621657811129785330672469806804
13,1.0484326884417855184139268824830358
14,1.0636476494872523664967623931396357
15,1.0777854300321376439459762040531897
16,1.090988899493034581441373987090550
17,1.103374249050007654342917370930861
18,1.115037242652790657619484650625013
19,1.126057740124763434816438796243025
20,1.136503034796887739329159020463887
21,1.146430359589404023305681717970068
22,1.155888798170571303884382838003927
23,1.164920762893191631523183285826338
24,1.173563152195032116025904889364889
25,1.181848267394751221975763033887992
26,1.189804546499486449115242242469960
27,1.197457157167430116130266464611362
28,1.204828480066869159945068727902502
29,1.211938506078137043033836523101517
30,1.218805165135438293287300320927109
31,1.225444600359567701837837854443425
32,1.231871398054646620204830155704494
33,1.238098781832350994497319569230954
34,1.244138777376559508638202688550287
35,1.250002353022155143172834716401377
36,1.255699540288234577911780871864551
37,1.261239537701895318329656047299325
38,1.266630800618351682652045552600951
39,1.271881119245282137165641268343158
40,1.276997686683489683838719193754993
41,1.281987158479206730696552157881451
42,1.286855704928383273954510728600352
43,1.291609057166810876047189420566548
44,1.296252547911840908230450334068512
45,1.300791147583885957471553107528971
46,1.305229496422757014778461469595074
47,1.309571933120412449812516724765320
48,1.313822520414108412401073317733080
49,1.317985068019277757687422234372485
50,1.32206315322734187801649496378208
51,1.32606013944819286219444636425417
52,1.32997919293873818847101945520057
53,1.33382329792645003905615430267523
54,1.33759527030930019253341214144616
55,1.34129777008998595802709822752132
56,1.34493331268227804486003185330969
57,1.34850427921012229632437001338482
58,1.35201292590533002990073458859269
59,1.35546139269693777898907350653529
60,1.35885171107429272351519412920236
61,1.36218581129635586927478296423851
62,1.36546552901141403076532792280190
63,1.36869261134414978323763764960874
64,1.37186872250070606977812712041930
65,1.37499544893684730926153403743100
66,1.37807430412947151196088688518425
67,1.38110673298746561827671334563476
68,1.38409411593414011523983523292400
69,1.38703777269016631471602603670912
70,1.38993896578301140897757316885769
71,1.39279890380626771557605486463576
72,1.39561874444997428107150808258349
73,1.39839959732097600676994629713857
74,1.40114252657054661106890404247191
75,1.40384855334487064190792846029845
76,1.40651865807253019606602038693522
77,1.40915378260183960363012763807643
78,1.41175483219970553777881388186383
79,1.41432267742264319003314987339864
80,1.41685815586964102548261652729380
81,1.41936207382571729101727436252263
82,1.42183520780424999904408749330209
83,1.42427830599547337537572030164416
84,1.42669208962790946826406363401287
85,1.42907725424894433937712639310243
86,1.43143447093024239212870244846996
87,1.43376438740323492197035076551463
88,1.43606762912949559551960996654511
89,1.43834480031043206323691113203327
90,1.44059648484037969363437595473039
91,1.44282324720686196494904606085134
92,1.44502563334149375267397734969444
93,1.44720417142474149628502796287095
94,1.44935937264751129976307799827182
95,1.45149173193231486648241649377808
96,1.45360172861656134691965452349672
97,1.45568982710033883552785874308328
98,1.45775647746087637882599877186572
99,1.45980211603572388456457564368590
100,1.46182716597654098141234238538241
101,1.46383203777525657445447494593139
102,1.46581712976423526707152165822353
103,1.46778282859197890615558543332192
104,1.46972950967578424290973378266284
105,1.47165753763268462771981884001167
106,1.47356726668991289334411332961848
107,1.47545904107604449871078331990867
108,1.47733319539390076605884602791986
109,1.47919005497622345062406910571409
110,1.48102993622506946194624509386988
111,1.48285314693580869467573581773847
112,1.48465998660655849312370502614344
113,1.48645074673383273800639999596274
114,1.48822571109513478607748697949841
115,1.48998515601918304483988172018287
116,1.49172935064440963288029579162631
117,1.49345855716634086336296457193087
118,1.49517303107442725711342028621713
119,1.49687302137885707800693370452326
120,1.49855877082786154114119821981253
121,1.50023051611598157702866242442753
122,1.50188848808374712191109217002228
123,1.50353291190918771136696282222038
124,1.50516400729157547457361621277855
125,1.50678198862777206032301115819462
126,1.50838706518153582859233185657859
127,1.50997944124612506358433221922038
128,1.51155931630051037696238226971768
129,1.51312688515949739676710987618785
130,1.51468233811804245563423914881812
131,1.51622586109002858781514969891993
132,1.51775763574175416730086892926934
133,1.51927783962037473776634582049714
134,1.52078664627752730909283528470348
135,1.52228422538834828688385727001258
136,1.52377074286609251385984336578346
137,1.52524636097254759407286630414675
138,1.52671123842442405889238733005911
139,1.52816553049589982780726000218997
140,1.52960938911748197112097913943423
141,1.53104296297134422412724119979227
142,1.53246639758329062908571709687987
143,1.53387983541148703114875160105865
144,1.53528341593209497475260420393839
145,1.53667727572193835922789119358232
146,1.53806154853832534363280667986826
147,1.53943636539613978784680216448729
148,1.54080185464231755892906299936947
149,1.54215814202780950367173510846836
150,1.54350535077713472820083378207119
151,1.54484360165562009885378523334591
152,1.54617301303441626347808394280764
153,1.54749370095337914281875448890780
154,1.54880577918190079121041373748894
155,1.55010935927776786253982369527162
156,1.55140455064412554781487077542626
157,1.55269146058461803091583261739217
158,1.55397019435677728060228404465454
159,1.5552408552237238515810397818475
160,1.5565035445042460321447929698223
161,1.5577583616213158344723528449984
162,1.5590054041491012886617559440005
163,1.5602447678585298937655926567049
164,1.5614765467614578623933738680243
165,1.5627008331534937590684697121714
166,1.5639177176555270478983777563731
167,1.5651272892540087818475791184078
168,1.5663296353400271224963492870992
169,1.5675248417472227523461098752165
170,1.5687129927885839227567767393257
171,1.5698941712921613319468119115792
172,1.5710684586357406996836996948743
173,1.5722359347805084409654495968629
174,1.5733966783037462821768975707213
175,1.5745507664305888046236070516281
176,1.5756982750648736217659415457047
177,1.5768392788191174506605223551818
178,1.5779738510436472319749781659686
179,1.5791020638549127434914851871084
180,1.5802239881630116534676589945990
181,1.5813396936984496624105863426445
182,1.5824492490381634286189526817649
183,1.5835527216308293267367373742059
184,1.5846501778214822808240057563621
185,1.5857416828754664800374727167181
186,1.5868273010017389455095887486522
187,1.5879070953755497488926535468614
188,1.5889811281605143188515220919535
189,1.5900494605301015665615031277537
190,1.5911121526885534812549861451129
191,1.5921692638912554183340565708940
192,1.5932208524645734622168327387811
193,1.5942669758251771677296430397647
194,1.5953076904988610207911823619117
195,1.5963430521388825507103572726928
196,1.5973731155438307859600923598371
197,1.5983979346750394287100102204562
198,1.5994175626735589100587249251736
199,1.6004320518767001597808437277078
200,1.6014414538341640307492725152225
201,1.6024458193237673544112468460788
202,1.6034451983667790034289328801921
203,1.6044396402428766161662944667492
204,1.6054291935047355978832495959074
205,1.6064139059922603639488025738128
206,1.6073938248464708437695290272980
207,1.6083689965230501160585746682969
208,1.6093394668055673968492959740265
209,1.6103052808183821230806903195311
210,1.6112664830392406273532519248586
211,1.6122231173115727628111489651878
212,1.6131752268564987052724191354956
213,1.6141228542845503104945766936508
214,1.6150660416071220022587749469218
215,1.6160048302476503974966773418395
216,1.6169392610525366229100853973071
217,1.6178693743018152821182328480821
218,1.6187952097195790457751769597682
219,1.6197168064841621375855977090863
220,1.6206342032380952243391474955671
221,1.6215474380978296122453431212518
222,1.6224565486632479469265666580389
223,1.6233615720269549778923333756166
224,1.6242625447833634467849091669273
225,1.6251595030375776559304930314302
226,1.6260524824140782551285241679941
227,1.6269415180652168895171541381426
228,1.6278266446795225187056706317354
229,1.6287078964898265593087115681745
230,1.6295853072812115371100359931871
231,1.6304589103987850381097630972726
232,1.6313287387552893673590425475798
233,1.6321948248385419010697882972065
234,1.6330572007187222780483130596367
235,1.6339158980554996015357233167477
236,1.6347709481050093502059706354289
237,1.6356223817266836184308732197480
238,1.6364702293899364168052686793103
239,1.6373145211807094684938026756959
240,1.6381552868078806547974316190355
241,1.6389925556095393912688315888259
242,1.6398263565591317903071199055860
243,1.6406567182714796409845354461269
244,1.6414836690086748943207793677536
245,1.6423072366858540270946799649076
246,1.6431274488768548027395100893325
247,1.6439443328197568110860549739697
248,1.6447579154223133674858169027896
249,1.6455682232672697398080671709164
250,1.6463752826175780874093777878370
251,1.6471791194215070114805545438242
252,1.6479797593176485146638286222834
253,1.6487772276398274415362252092335
254,1.6495715494219130562089794243117
255,1.6503627494025366364653066305494
256,1.6511508520297151691958888373337
257,1.6519358814653875378692838623581
258,1.6527178615898596460886470731873
259,1.6534968160061652800779067297468
260,1.6542727680443430957943969425936
261,1.6550457407656300437177624132016
262,1.6558157569665759560396624053217
263,1.6565828391830781461336723440634
264,1.6573470096943414704557373942796
265,1.6581082905267623774000015484282
266,1.6588667034577391101396327129318
267,1.6596222700194112759817975693040
268,1.6603750115023288152328836641830
269,1.6611249489590546387701777411545
270,1.6618721032076966577411881089633
271,1.6626164948353784886238731937407
272,1.6633581442016428124886432439202
273,1.6640970714417948308531138901621
274,1.6648332964701830264236507192136
275,1.6655668389834211035795028022474
276,1.6662977184635493862279805293601
277,1.6670259541811431563208564306724
278,1.6677515651983596869555400189733
279,1.6684745703719354725055808334058
280,1.6691949883561257486260216468598
281,1.6699128376055941909365921582211
282,1.6706281363782502886307437512325
283,1.6713409027380376054366236377331
284,1.6720511545576700844449319984435
285,1.6727589095213232040437376323504
286,1.6734641851272760096854388880194
287,1.6741669986905090807564243178163
288,1.6748673673452548343051075262213
289,1.6755653080475048136721650587212
290,1.6762608375774746945296775150426
291,1.6769539725420248492491319518132
292,1.6776447293770393544842300203524
293,1.6783331243497673477226738406115
294,1.6790191735611217697006855741808
295,1.6797028929479375798050107966213
296,1.6803842982851970300013812354840
297,1.6810634051882119289937105879429
298,1.6817402291147722133447645706243
299,1.6824147853672576283927892976403
300,1.6830870890947142695464287314323
301,1.6837571552948963953725904520767
302,1.6844249988162756053863808387588
303,1.6850906343600145556487097475267
304,1.6857540764819087896772786451244
305,1.6864153395942981131738535981709
306,1.6870744379679467757642583784277
307,1.6877313857338896417006293005057
308,1.6883861968852518279509839014314
309,1.6890388852790378989377870405507
310,1.6896894646378909530683360032146
311,1.6903379485518251959561420346646
312,1.6909843504799295134617679533376
313,1.6916286837520434372986725835104
314,1.6922709615704073074737200433246
315,1.6929111970112859512015976698623
316,1.6935494030265672539316331925178
317,1.6941855924453331610881258747282
318,1.6948197779754084617654729799636
319,1.6954519722048844959363259300244
320,1.6960821876036177864273295831937
321,1.6967104365247075145930567423070
322,1.6973367312059479541151158172508
323,1.6979610837712593769621340032342
324,1.6985835062320964086461355650651
325,1.6992040104888355947526589406820
326,1.6998226083321404159671950897753
327,1.7004393114443065723497640913193
328,1.7010541314005847260481530770137
329,1.7016670796704856773045972202928
330,1.7022781676190644054178398344335
331,1.7028874065081844132329864919713
332,1.7034948074977634363790274316147
333,1.7041003816470008957874386934146
334,1.7047041399155852774935177946916
335,1.7053060931648857546309245552768
336,1.7059062521591241096489528506071
337,1.7065046275665298289763706501931
338,1.7071012299604794289617043006309
339,1.7076960698206160775747884654874
340,1.7082891575339556031874729674456
341,1.7088805033959746039888787383709
342,1.7094701176116831551623102344227
343,1.7100580102966817515906466718908
344,1.7106441914782024797748674317917
345,1.7112286710961362382774082974103
346,1.7118114590040434814629400553126
347,1.7123925649701520518725067468878
348,1.7129719986783389129327045230163
349,1.7135497697290993269020031393098
350,1.7141258876405010203720989146583
351,1.7147003618491254249060101618143
352,1.7152732017109956751556453117137
353,1.7158444165024906488148477633367
354,1.7164140154212464628624604040195
355,1.7169820075870457913572885661900
356,1.7175484020426932145520484117982
357,1.7181132077548798383493753012231
358,1.7186764336150364280859422118435
359,1.7192380884401708017684546750611
360,1.7197981809736984206659412783473
361,1.7203567198862579221129379358216
362,1.7209137137765180761093408513895
363,1.7214691711719707613161462103035
364,1.7220231005297149844271935576624
365,1.7225755102372301792707091743729
366,1.7231264086131376632971405386161
367,1.7236758039079531434508636305657
368,1.7242237043048270601420013568995
369,1.7247701179202774018516683248727
370,1.7253150528049107035337446395188
371,1.7258585169441340821105891629133
372,1.7264005182588572655302291310101
373,1.7269410646061845820891674526134
374,1.7274801637801012184890035074175
375,1.7280178235121444381854007452026
376,1.7285540514720712162338448757866
377,1.7290888552685140798315583619627
378,1.7296222424496283219561684089368
379,1.7301542205037324278913524230597
380,1.7306847968599384713934116058917
381,1.7312139788887753559230786519095
382,1.7317417739028020191014321145075
383,1.7322681891572152750400571714107
384,1.7327932318504472582347555812280
385,1.7333169091247560902656569797255
386,1.7338392280668104279444575432996
387,1.7343601957082636422322191672873
388,1.7348798190263215647127420161964
389,1.7353981049443044762932989601304
390,1.7359150603322005272236181852782
391,1.7364306920072109053585945363968
392,1.7369450067342903610253820209679
393,1.7374580112266805619650595300903
394,1.7379697121464348594286356978915
395,1.7384801161049373222826325204812
396,1.7389892296634156899742846422311
397,1.7394970593334478742462677736719
398,1.7400036115774620177170746461498
399,1.7405088928092286750999850566001
400,1.7410129093943494169993637629886
401,1.7415156676507379051851691440630
402,1.7420171738490941845433843791807
403,1.7425174342133750124227590152033
404,1.7430164549212581184484661432714
405,1.7435142421045978602284664960112
406,1.7440108018498783839676568414601
407,1.7445061401986614066901739186991
408,1.7450002631480261232443145177045
409,1.7454931766510040991471338651886
410,1.7459848866170116637272072959215
411,1.7464753989122740635636007336146
412,1.7469647193602449587902772019023
413,1.7474528537420223413053505455454
414,1.7479398077967572987105531750247
415,1.7484255872220599079231494577736
416,1.7489101976743986880731066744277
417,1.7493936447694964611519987168886
418,1.7498759340827197836294885030836
419,1.7503570711494662275286726119996
420,1.7508370614655444928617948047930
421,1.7513159104875513035894940407805
422,1.7517936236332443686852879235187
423,1.7522702062819092444247074810333
424,1.7527456637747237116028121132263
425,1.7532200014151160470186196775371
426,1.7536932244691207960452990152412
427,1.7541653381657295308939670867276
428,1.7546363476972366082365315880174
429,1.7551062582195838385528557635934
430,1.7555750748526969292849616315502
431,1.7560428026808212054292192490989
432,1.7565094467528537570569285003452
433,1.7569750120826673516363208217529
434,1.7574395036494372090685504690441
435,1.7579029263979584630868033638477
436,1.7583652852389622099835082444719
437,1.7588265850494283060092863756537
438,1.7592868306728938954814948809234
439,1.7597460269197583508798360408201
440,1.7602041785675856961154973680816
441,1.7606612903614016727983936692720
442,1.7611173670139890131209163854523
443,1.7615724132061805670247641516562
444,1.7620264335871449029925607353334
445,1.7624794327746737130932851679195
446,1.7629314153554620466005150551619
447,1.7633823858853885413214541921519
448,1.7638323488897888708067424244162
449,1.7642813088637302479141657699648
450,1.7647292702722791371352700666541
451,1.7651762375507696787461428948811
452,1.7656222151050656660978549259046
453,1.7660672073118218190841923005056
454,1.7665112185187407427020072708867
455,1.7669542530448291945412108168204
456,1.7673963151806489581689647139597
457,1.7678374091885670180791990066195
458,1.7682775393030014320678903778688
459,1.7687167097306654149226300996375
460,1.7691549246508092757322524994569
461,1.7695921882154580585041199425773
462,1.7700285045496480991015049032733
463,1.7704638777516611022336788615265
464,1.7708983118932538993660873885016
465,1.7713318110198878562465619968547
466,1.7717643791509550607051866118992
467,1.7721960202800005712038639007086
468,1.7726267383749457417356387036956
469,1.7730565373783050997300842778733
470,1.7734854212074043014638025831701
471,1.7739133937545934320408682881462
472,1.7743404588874599475129050820965
473,1.7747666204490366099979193508326
474,1.7751918822580119197484593667545
475,1.7756162481089319668798174871264
476,1.7760397217724062165190455956395
477,1.7764623069953075603260749652835
478,1.7768840075009713103293014408726
479,1.7773048269893920244130439668740
480,1.7777247691374185579905682740426
481,1.7781438375989458926891039966227
482,1.7785620360051073107847367720978
483,1.7789793679644622953343497594367
484,1.7793958370631829757083952602576
485,1.7798114468652405953486797946076
486,1.7802262009125865864919411043175
487,1.7806401027253351005870256680609
488,1.7810531558019415908379672406095
489,1.7814653636193806749166303605905
490,1.7818767296333211408322427527079
491,1.7822872572783002301008136508932
492,1.7826969499678957862583763712032
493,1.7831058110948962435821405700904
494,1.7835138440314695499122103628799
495,1.7839210521293292159198210255120
496,1.7843274387199007350907449923806
497,1.7847330071144840597903367508118
498,1.7851377606044160785058703232789
499,1.7855417024612305914273847340542
500,1.785944835936817914676453183219
501,1.786347164263579859028270202984
502,1.786748690654587538111079372810
503,1.787149418303733474008692182526
504,1.787549350385885843899387279738
505,1.787948490057037714988034658388
506,1.788346840454456997606851629468
507,1.788744404696834964295398712857
508,1.789141185884432974598746038942
509,1.789537187099225636249287471314
510,1.789932411405046455741483911598
511,1.790326861847729209144646672340
512,1.790720541455248933116849319846
513,1.791113453237861151623377928399
514,1.791505600188240014587585574678
515,1.791896985281615722538444287502
516,1.792287611475909447408495286016
517,1.792677481711866824038276820290
518,1.793066598913191797590622186358
519,1.793454965986677608636148815386
520,1.793842585822337772730741441245
521,1.794229461293533849531575832268
522,1.794615595257104277470340040277
523,1.795000990553490710958746760878
