Eigenstate,Potential Energy
1,0.500000000044284276194185385573163682
2,0.64623093794017934400924981569167533
3,0.73633761055407999611804896502965536
4,0.79966527958282654785636621675353522
5,0.8480465783492424887670477778526410
6,0.8870660016108401247901696880891333
7,0.9197208308071260957470483688176845
8,0.9477838523157570403481740729321520
9,0.9723835651434321996807819617105267
10,0.9942802234389952579257990708745111
11,1.0140093973436759701081709617541228
12,1.0319621821622485534778431295179930
13,1.0484327079606380540627176468835832
14,1.0636476724220902589238018541221942
15,1.0777854566613616387759596116407491
16,1.090988930095167657177127301692680
17,1.103374283903689315600115101843015
18,1.115037282036774185793030321096408
19,1.126057784317915176041677410897165
20,1.136503084078187829681365498485184
21,1.146430414237948149714832566599854
22,1.155888858465573225846507245620182
23,1.164920829113986271456486625703612
24,1.173563224621079081453606303379011
25,1.181848346305638660468620200156982
26,1.189804632174935163161105519387174
27,1.197457249887297883638421762605561
28,1.204828580111155219399506343428072
29,1.211938613726986711995737933708419
30,1.218805280669147696090580535677225
31,1.225444724058588587653973580890242
32,1.231871530199591256678414258939913
33,1.238098922703997125224101012337436
34,1.244138927255855365122078137717087
35,1.250002512190224503736168176555450
36,1.255699709026381867473956286761248
37,1.261239716291610744106992562724430
38,1.266630989341316401738178296871562
39,1.271881318383373452677732556917742
40,1.276997896518786266901006463936625
41,1.281987379293993866008625761099231
42,1.286855937005158127080542123036764
43,1.291609300788287780881755894290719
44,1.296252803360956673360371408412339
45,1.300791415143805190372192542770305
46,1.305229776376877462965659196546038
47,1.309572225752370358224415120039289
48,1.313822826007783896413060833484128
49,1.317985386858800191272374077925319
50,1.32206348559709529665502847353246
51,1.32606048563282138021881921899803
52,1.32997955322315143059375341277527
53,1.33382367259582858589242485981954
54,1.33759565964910103997622585803278
55,1.34129817438594799037748470949106
56,1.34493373222042752165199139686855
57,1.34850471427677835281695029209070
58,1.35201337678711019123823837625712
59,1.35546185968076348805533491588839
60,1.35885219444739488252992515311861
61,1.36218631134628039519937603406932
62,1.36546604602602742460277119610141
63,1.36869314561164471332639509647535
64,1.37186927430960696919342496934221
65,1.37499601857601598744975152959370
66,1.37807489188811278074355519810659
67,1.38110733915513293237049274963767
68,1.38409474080074122744764166239923
69,1.38703841654596894595262764508994
70,1.38993962891864893330003137684530
71,1.39279958651274486039632863100342
72,1.39561944701867284273433260649648
73,1.39840032004366058168491451450465
74,1.40114326973937034259067619807446
75,1.40384931725238098316337538645828
76,1.40651944301167468893140247692050
77,1.40915458886597167406563182418350
78,1.41175566008259030773158725193802
79,1.41432352721846330612361135104802
80,1.41685902787300250469216203612459
81,1.41936296833165538359880909282573
82,1.42183612510823506887983728491156
83,1.42427924639341679800965002361620
84,1.42669305341616954683906847537365
85,1.42907824172433223870983427282375
86,1.43143548239002809115719650011955
87,1.43376542314515318481275309532474
88,1.43606868945175196138375764194670
89,1.43834588551170885542370957751939
90,1.44059759521984204787968028078562
91,1.44282438306416387735118066939871
92,1.44502679497678414745611389234851
93,1.44720535913867031364380334358331
94,1.44936058674123560405691529208380
95,1.45149297270750497501512415391680
96,1.45360299637540697957678813463398
97,1.45569112214555528552555266687945
98,1.45775780009571070483374129369000
99,1.45980346656396112446560825354409
100,1.46182854470251038796717181407992
101,1.46383344500383787313505484051739
102,1.46581856580086493633558836107054
103,1.46778429374265648043251973448629
104,1.46973100424707863857148952446985
105,1.47165906193174049231217103578574
106,1.47356882102445697835559957373716
107,1.47546062575439205615863790389424
108,1.47733481072496196917314934569983
109,1.47919170126950983891343888367271
110,1.48103161379070041093025432955840
111,1.48285485608451791057132307442050
112,1.48466172764970053277486525484904
113,1.48645251998338955434838572994264
114,1.48822751686372229942892428401250
115,1.48998699462005774031810136069344
116,1.49173122239147518423740997243154
117,1.49346046237415478354219381033237
118,1.49517497005820757582730390174721
119,1.49687499445448904664120935247243
120,1.49856077831190436529031100898357
121,1.50023255832567517697094328459242
122,1.50189056533701892133384818673240
123,1.50353502452465945465398880789995
124,1.50516615558857007296977800639566
125,1.50678417292632046729285144277278
126,1.50838928580238394469192588735026
127,1.50998169851074067116785787899319
128,1.51156161053109010504727427214150
129,1.51312921667897371638394212982775
130,1.51468470725009070598984317232173
131,1.51622826815907403359985815912566
132,1.51776008107297908747341247968843
133,1.51928032353972554615191417971031
134,1.52078916911172170713273658723350
135,1.52228678746488244887759251622278
136,1.52377334451324830504266140904648
137,1.52524900251939982187483721306949
138,1.52671392020084775772731545039349
139,1.52816825283257757774252056533244
140,1.52961215234591125078199570257764
141,1.53104576742384479819281049802896
142,1.53246924359301197073341779005248
143,1.53388272331241577981206079570128
144,1.53528634605906242955448918725052
145,1.53668024841062800845797744004276
146,1.53806456412528043063849084298157
147,1.53943942421877091371131379630207
148,1.54080495703891032231236406496260
149,1.54216128833753217819319605858642
150,1.54350854134004597774537243127426
151,1.54484683681267673118652533609879
152,1.54617629312748102255517759520120
153,1.54749702632522854018546107021335
154,1.54880915017623297688028669082786
155,1.55011277623921053575224504002954
156,1.55140801391824390807140116401930
157,1.55269497051792276969871951912361
158,1.55397375129673261418204276131579
159,1.5552444595187555953231449577445
160,1.5565071965037497167288866785163
161,1.5577620616756648644408178232760
162,1.5590091526096551437177622678172
163,1.5602485650776423732441820526995
164,1.5614803930924853733327182876939
165,1.5627047289508036483121153896866
166,1.5639216632745059786623565864897
167,1.5651312850510711551902933374766
168,1.5663336816726235441328292753821
169,1.5675289389738485452514710698726
170,1.5687171412687876860080785587260
171,1.5698983713865535462556769419881
172,1.5710727107060023800763666926967
173,1.5722402391893998370703905770172
174,1.5734010354151156265844233890571
175,1.5745551766093811097855477850632
176,1.5757027386771395259076675394103
177,1.5768437962320221131815206135026
178,1.5779784226254792788183275155488
179,1.5791066899750932629667430322083
180,1.5802286691921032430158641536603
181,1.5813444300081655268042865959580
182,1.5824540410013765300945012221730
183,1.5835575696215815875603791697387
184,1.5846550822149938387977804030550
185,1.5857466440481449974553912175445
186,1.5868323193311889720788037546313
187,1.5879121712405821391392870151515
188,1.5889862619411557045350776273986
189,1.5900546526076038846266533385549
190,1.5911174034454035578541433188334
191,1.5921745737111846094589522061696
192,1.5932262217325673514821006094615
193,1.5942724049274853218563170940615
194,1.5953131798230068033430088158326
195,1.5963486020736729946407157497596
196,1.5973787264793665255324047564609
197,1.5984036070027246913597661806913
198,1.5994232967861115687700708305100
199,1.6004378481681618465565126704450
200,1.6014473126999103117573150208326
201,1.6024517411605179673976364008760
202,1.6034511835726081579907980599421
203,1.6044456892172233574855332946482
204,1.6054353066484142345262831642995
205,1.6064200837074709603433424135266
206,1.6074000675368097779755512676147
207,1.6083753045935207034558787966643
208,1.6093458406625905803701908776433
209,1.6103117208698072306221035234623
210,1.6112729896943561970085542656325
211,1.6122296909811174365680125885609
212,1.6131818679526721918289350200692
213,1.6141295632210244178526250224501
214,1.6150728187990517407590493637138
215,1.6160116761116851539668487407194
216,1.6169461760068314066035052424507
217,1.6178763587660420431272752321499
218,1.6188022641149380666097194408227
219,1.6197239312333934986139225650682
220,1.6206413987654903437952015530138
221,1.6215547048292428615131486087887
222,1.6224638870261083418191757285909
223,1.6233689824502779466500191051022
224,1.6242700276977626755240544140281
225,1.6251670588752770122820265941083
226,1.6260601116089237908118050130676
227,1.6269492210526889226022180617807
228,1.6278344218967477963248885838385
229,1.6287157483755905015855897219954
230,1.6295932342759705630808180624100
231,1.6304669129446789744211843247117
232,1.6313368172961539405331692784638
233,1.6322029798199213141349066679035
234,1.6330654325878818723425526730136
235,1.6339242072614386044982406183402
236,1.6347793350984737099786698529859
237,1.6356308469601789261018167292429
238,1.6364787733177409171333330273733
239,1.6373231442588871599622208411573
240,1.6381639894942944798531895063912
241,1.6390013383638645176126077501476
242,1.6398352198428689841075176263176
243,1.6406656625479687328997852639635
244,1.6414926947431083392187979510772
245,1.6423163443452905583728191665371
246,1.6431366389302331821536114322822
247,1.6439536057379096750079716960669
248,1.6447672716779811705179210961224
249,1.6455776633351147966927840956008
250,1.6463848069741987141815247919224
251,1.6471887285454517668200500324526
252,1.6479894536894305424158953860699
253,1.6487870077419389153764523234353
254,1.6495814157388397274408856512394
255,1.6503727024207724859477620977609
256,1.6511608922377771644088524816550
257,1.6519460093538304961361858389165
258,1.6527280776512912049846633230815
259,1.6535071207352609760639785572247
260,1.6542831619378615521279800880252
261,1.6550562243224282687023463032749
262,1.6558263306876247526858166974843
263,1.6565935035714776343162624982080
264,1.6573577652553367226629768790897
265,1.6581191377677591691818107826299
266,1.6588776428883197863745789830684
267,1.6596333021513507340934934249598
268,1.6603861368496106064991777644007
269,1.6611361680378871888802238531926
270,1.6618834165365296077681880157196
271,1.6626279029349191575934491455261
272,1.6633696475948727827360217870636
273,1.6641086706539866573742837136782
274,1.6648449920289170714395504029073
275,1.6655786314186024975444995022913
276,1.6663096083074251165282736802391
277,1.6670379419683192849208794767955
278,1.6677636514658186982649858579711
279,1.6684867556590537527527586416093
280,1.6692072732046911980377817958281
281,1.6699252225598239700390951786595
282,1.6706406219848086999997344892710
283,1.6713534895460541122402116596172
284,1.6720638431187574671367508305969
285,1.6727717003895958565798376891498
286,1.6734770788593683766522359765140
287,1.6741799958455942368133615683998
288,1.6748804684850632073610588482595
289,1.6755785137363430532295111824717
290,1.6762741483822446866470515475945
291,1.6769673890322428795892506061698
292,1.6776582521248554209297082586878
293,1.6783467539299846240592755535722
294,1.6790329105512162218846732309038
295,1.6797167379280777363472640579682
296,1.6803982518382639080190262566583
297,1.6810774678998191174973478151368
298,1.6817544015732861153465995286438
299,1.6824290681638178634390979998207
300,1.6831014828232542382962743832645
301,1.6837716605521640078625672141284
302,1.6844396162018541746400348910903
303,1.6851053644763438583079072026357
304,1.6857689199343062953524252780053
305,1.6864302969909803842287538500408
306,1.6870895099200510392710616815171
307,1.6877465728554955353206511778788
308,1.6884014997934033215165365776931
309,1.6890543045937653935316162684906
310,1.6897050009822335594168305080176
311,1.6903536025518531939742668402010
312,1.6910001227647669948088632935973
313,1.6916445749538911328252690415201
314,1.6922869723245656014616313834739
315,1.6929273279561780843221540717196
316,1.6935656548037627168684413805312
317,1.6942019656995712807942794743370
318,1.6948362733546221823475056900881
319,1.6954685903602243561811469892074
320,1.6960989291894760960116275213459
321,1.6967273021987427310385697610326
322,1.6973537216291092625782455581411
323,1.6979781996078114749696856033451
324,1.6986007481496444979152146720570
325,1.6992213791583505822575630663768
326,1.6998401044279843264415281948912
327,1.7004569356442581744386593302736
328,1.7010718843858653743510959569021
329,1.7016849621257853725770727534655
330,1.7022961802325680752260007764766
331,1.7029055499715984153841143746651
332,1.7035130825063422874774457611585
333,1.7041187888995742272946420812978
334,1.7047226801145850216993905762518
335,1.7053247670163735629720888497832
336,1.7059250603728190058397288119529
337,1.7065235708558360994481814884289
338,1.7071203090425147531362556212910
339,1.7077152854162399005272642058297
340,1.7083085103677977532874478445888
341,1.7088999941964641581383071147126
342,1.7094897471110775542814111226699
343,1.7100777792310961690354021536235
344,1.7106641005876394454026341038582
345,1.7112487211245155209106980598752
346,1.7118316506992322325350898243871
347,1.7124128990839952130733527944435
348,1.7129924759666898907075748737343
349,1.7135703909518509366917780532257
350,1.7141466535616167035194243719444
351,1.7147212732366707411875492200591
352,1.7152942593371700739379804115132
353,1.7158656211436595218690813185306
354,1.7164353678579734819101274891251
355,1.7170035086041255334590820437893
356,1.7175700524291840784896289196378
357,1.7181350083041372551902055758026
358,1.7186983851247463691615636780546
359,1.7192601917123835873367383253595
360,1.7198204368148628325701971431329
361,1.7203791291072556237917363662784
362,1.7209362771926983433542879035579
363,1.7214918896031855272175668404475
364,1.7220459748003542019914421673886
365,1.7225985411762575052380904916748
366,1.7231495970541264667336108824561
367,1.7236991506891228427328902446000
368,1.7242472102690797920006784973131
369,1.7247937839152350261891050194078
370,1.7253388796829521477725081549303
371,1.7258825055624330288856161583607
372,1.7264246694794201875821691369365
373,1.7269653792958891282681266783103
374,1.7275046428107349548280497081702
375,1.7280424677604439480549734533264
376,1.7285788618197615636403552949783
377,1.7291138326023486399778399715726
378,1.7296473876614289832326415250511
379,1.7301795344904301695242626745507
380,1.7307102805236143210303424856797
381,1.7312396331367017314930735098683
382,1.7317675996474844593439168718547
383,1.7322941873164345631550451298630
384,1.7328194033473019431655667512774
385,1.7333432548877054101859105127672
386,1.7338657490297176405810595234305
387,1.7343868928104397667179120345678
388,1.7349066932125695397255016204429
389,1.7354251571649637393020408918817
390,1.7359422915431920197249795716385
391,1.7364581031700825090556097654353
392,1.7369725988162627699645857800398
393,1.7374857852006935957168787551596
394,1.7379976689911942224643878164601
395,1.7385082568049618147709455146092
396,1.7390175552090848752915009939967
397,1.7395255707210502085662232910000
398,1.7400323098092434471195271523001
399,1.7405377788934417057107741680545
400,1.7410419843453026637512922241004
401,1.7415449324888461248643737716020
402,1.7420466296009287988646503416943
403,1.7425470819117151269555576575887
404,1.7430462956051420432961733511748
405,1.7435442768193751384442236917095
406,1.7440410316472623337742422055749
407,1.7445365661367821836541128164513
408,1.7450308862914843086407880521192
409,1.7455239980709248208388446141305
410,1.7460159073910992559686364966675
411,1.7465066201248672722318908903980
412,1.7469961421023726986345036827868
413,1.7474844791114600118992801543944
414,1.7479716368980836658879174300276
415,1.7484576211667145575693791232637
416,1.7489424375807400592460638316908
417,1.7494260917628604656001651959896
418,1.7499085892954790188801848246036
419,1.7503899357210897908174531090286
420,1.7508701365426584032803340442266
421,1.7513491972239995399322877097578
422,1.7518271231901505305847740803376
423,1.7523039198277388444712942198736
424,1.7527795924853471062586339536181
425,1.7532541464738720142447397979256
426,1.7537275870668807676768647668453
427,1.7541999195009624879149249960849
428,1.7546711489760746472221748153859
429,1.7551412806558884176700635935571
430,1.7556103196681258023602627198336
431,1.7560782711048960527203630335768
432,1.7565451400230285214894377726215
433,1.7570109314443972893949123615727
434,1.7574756503562486635633515309326
435,1.7579393017115193714473144925112
436,1.7584018904291533513686690639807
437,1.7588634213944153011579499836841
438,1.7593238994591999670685622455348
439,1.7597833294423378543839940031118
440,1.7602417161298984310499331245019
441,1.7606990642754879843015157878172
442,1.7611553786005456940549092189137
443,1.7616106637946375708796584598086
444,1.7620649245157428780500676423559
445,1.7625181653905423684606224805357
446,1.7629703910146993608840745173712
447,1.7634216059531408248735615939479
448,1.7638718147403316926444317150714
449,1.7643210218805502385760806599129
450,1.7647692318481566789140087581734
451,1.7652164490878624949099694976297
452,1.7656626780149933208897959327407
453,1.7661079230157511404690245517752
454,1.7665521884474721800150521004362
455,1.7669954786388841233786560803730
456,1.7674377978903579450505262677797
457,1.7678791504741590576073943640988
458,1.7683195406346941695033617431858
459,1.7687589725887563672987497108794
460,1.7691974505257680648327079443543
461,1.7696349786080196692380278450304
462,1.7700715609709071770182825928597
463,1.7705072017231673041389118989737
464,1.7709419049471083112159095299155
465,1.7713756746988404927222067460307
466,1.7718085150085034610962678124101
467,1.7722404298804895064593755384806
468,1.7726714232936680477780941889785
469,1.7731014992016036523671736745428
470,1.7735306615327751484753036281403
471,1.7739589141907900982682897381152
472,1.7743862610545989290314882673694
473,1.7748127059787040737079450768662
474,1.7752382527933716249860887614225
475,1.7756629053048344259142702017888
476,1.7760866672954991110748932131520
477,1.7765095425241474315472515666149
478,1.7769315347261365398839351588385
479,1.7773526476135971247242337287449
480,1.7777728848756297898727357101347
481,1.7781922501784982289680915077677
482,1.7786107471658227647827889310042
483,1.7790283794587696334118525925000
484,1.7794451506562388333697344591146
485,1.7798610643350520167404550369753
486,1.7802761240501350074497963111117
487,1.7806903333347017957224860151275
488,1.7811036957004346054951060011580
489,1.7815162146376632631755719051779
490,1.7819278936155417310915493508141
491,1.7823387360822239401290920178720
492,1.7827487454650375099726376674209
493,1.7831579251706553321862609247553
494,1.7835662785852661104087359808310
495,1.7839738090747420503971348809747
496,1.7843805199848069445857081218323
497,1.7847864146412003369284582772720
498,1.7851914963498417135343813240471
499,1.7855957683969922166758216775804
500,1.785999234049416012908507817877
501,1.786401896554537061584927565357
502,1.786803759140598739189527387180
503,1.787204825016817787877907801672
504,1.787605097373540432313371866835
505,1.788004579382393512531983827740
506,1.788403274196436363194266830686
507,1.788801184950311287522231555333
508,1.789198314760392266164431191707
509,1.789594666724930132165843378460
510,1.789990243924200265571229780309
511,1.790385049420646039041638975847
512,1.790779086259021914989021856612
513,1.791172357466534810285080400373
514,1.791564866052984405339673674045
515,1.791956615010902772187335068252
516,1.792347607315691532326077782435
517,1.792737845925757619463994045411
518,1.793127333782649432989363616113
519,1.793516073811190164552140108900
520,1.793904068919611155216785420740
521,1.794291321999682078880780662718
522,1.794677835926842228649070086461
523,1.795063613560329343811314379728
