Eigenstate,Potential Energy
1,0.500000000080869101166511452609023551
2,0.64623093817898695657779815730068830
3,0.73633761125556237978996875776341615
4,0.79966528104394650027156330019786330
5,0.8480465808802282737548082341398681
6,0.8870660055273665035742823995912045
7,0.9197208364274357315741616901424907
8,0.9477838599594621580050050097067047
9,0.9723835751309593340952158643576717
10,0.9942802360913052625433050500443242
11,1.0140094129821136073175381055054326
12,1.0319622011084581203768667581880549
13,1.0484327305365149604115639326793497
14,1.0636476989497532979625404125269895
15,1.0777854874631377440106914883175308
16,1.090988965493584504629506119232439
17,1.103374324221473031862754645183535
18,1.115037327596850482634463886154991
19,1.126057835443412847911848444753474
20,1.136503141092443920617638668918967
21,1.146430477464514325738979218769721
22,1.155888928228223035353295116583562
23,1.164920905736723071810195089711075
24,1.173563308428144474000165582432077
25,1.181848437621521319829345472881076
26,1.189804731324379977014079951028616
27,1.197457357195315340636148401861632
28,1.204828695903030998261217464942135
29,1.211938738328291436015987612625580
30,1.218805414405746825568626374123033
31,1.225444867256652428916877998550062
32,1.231871683185605071027583104124241
33,1.238099085804771324687487622619611
34,1.244139100798535784630875441101048
35,1.250002696502302741472189187249542
36,1.255699904435705686801818113228815
37,1.261239923126394531823536422752732
38,1.266631207930151678421364717031642
39,1.271881549055239431759296748713952
40,1.276998139603060459767160695366829
41,1.281987635120462730985705545977201
42,1.286856205904027760614440402547036
43,1.291609583090194649591747585845076
44,1.296253099396978385955400919369579
45,1.300791725245471308673439086648697
46,1.305230100876180351493069671974836
47,1.309572564981776071984529094084636
48,1.313823180300243106677202680865048
49,1.317985756547759149263119936608202
50,1.32206387101650683516852704266896
51,1.32606088711715595330474601296019
52,1.32997997110740819149558617256627
53,1.33382410721554650352069688186093
54,1.33759611134037005424833727024294
55,1.34129864348542020681067145944515
56,1.34493421906532844564267452337682
57,1.34850521920491816408062736730122
58,1.35201390013689505892062848906401
59,1.35546240179120692705758828145035
60,1.35885275565812915161979565989017
61,1.36218689199756793750620827908044
62,1.36546664645877235111770686409233
63,1.36869376616740433005050799475843
64,1.37186991533060334859597331096201
65,1.37499668040514758491676542532335
66,1.37807557486896609671340454062559
67,1.38110804363199422086843482866686
68,1.38409546711860825174570466113889
69,1.38703916505056278209470247659842
70,1.38994039995642582224447158921228
71,1.39280038043090810954068488700616
72,1.39562026416518477759800276765399
73,1.39840116076725454853664923382487
74,1.40114413438956276281827232149814
75,1.40385020617948346019317551980609
76,1.40652035656680616851491659455485
77,1.40915552740107065876032135159786
78,1.41175662395042712641221309973277
79,1.41432451677265243936971752624353
80,1.41686004346801496690621790748540
81,1.41936401032283116271861346343931
82,1.42183719385179562455749128109206
83,1.42428034224647761913815443162662
84,1.42669417673675276931631434405697
85,1.42907939287137932433842477924268
86,1.43143666172341256858706463871927
87,1.43376663102569345344228777389245
88,1.43606992624122415914372159797866
89,1.43834715157285979137686541052234
90,1.44059889091640220057769409692717
91,1.44282570876086045989925529352938
92,1.44502815103935424024426830418590
93,1.44720674593387406571290134925159
94,1.44936200463686950407617802846361
95,1.45149442207241519285692432544276
96,1.45360447757950277948352610368740
97,1.45569263555982251187264983765044
98,1.45775934609222534150185749210585
99,1.45980504551590292884465991421479
100,1.46183015698417660062401750115641
101,1.46383509099065700418637059501464
102,1.46582024586941062957699933111540
103,1.46778600827066145628473092074351
104,1.46973275361344871691436574171110
105,1.47166084651656869628732631613337
106,1.47357064120903772022841647911370
107,1.47546248192123540634079012889462
108,1.47733670325780800951716921836974
109,1.47919363055334310140135716978091
110,1.48103358021176440288903456965211
111,1.48285686003032972755855947829943
112,1.48466376950906556028928051220540
113,1.48645460014641625953075749780169
114,1.48822963572183711393023745822748
115,1.48998915256602003552329146918316
116,1.49173341981939234004456890103775
117,1.49346269967949735190885999305270
118,1.49517724763782454030746726375103
119,1.49687731270662317914848904819532
120,1.49856313763620768133540829450907
121,1.50023495912322449063358016149839
122,1.50189300801033150124216513364671
123,1.50353750947770878225714253128203
124,1.50516868322680170440233295130547
125,1.50678674365666800014303934598268
126,1.50839190003328509099877907192754
127,1.50998435665215343798608271532819
128,1.51156431299450908393237246234847
129,1.51313196387744648316394458240317
130,1.51468749959823433220429122283646
131,1.51623110607309171100085241139704
132,1.51776296497067686699846912101352
133,1.51928325384052919279245760091787
134,1.52079214623669367213782986031094
135,1.52228981183673896074709258655752
136,1.52377641655637658077970679535458
137,1.52525212265987539998310910306303
138,1.52671708886645195445449865227539
139,1.52817147045281506808729725007316
140,1.52961541935202777579848186439058
141,1.53104908424884500014270369646036
142,1.53247261067167735765300856541372
143,1.53388614108132282107847615066763
144,1.53528981495660078405258250824437
145,1.53668376887701888696707189459440
146,1.53806813660259509407583400422982
147,1.53944304915094930888735364497835
148,1.54080863487177985687105960593828
149,1.54216501951882663642962205263744
150,1.54351232631942457901107917555184
151,1.54485067604174333261311396851210
152,1.54618018705980346784524650455046
153,1.54750097541635815624030144574918
154,1.54881315488372422005351474641572
155,1.55011683702264078953879532081738
156,1.55141213123923343406230335572046
157,1.55269914484015481365243436379154
158,1.55397798308597366908485338947598
159,1.5552487492428758233323084701932
160,1.5565115446327435319143343613383
161,1.5577664686816716782631089024025
162,1.5590136189669802752029161044650
163,1.5602530912627781258381613930612
164,1.5614849795841322804423100621654
165,1.5627093762298918895619182324707
166,1.5639263718242169689216088459689
167,1.5651360553568593084473755440161
168,1.5663385142222382143203069506795
169,1.5675338342573561461486248853429
170,1.5687220997785939923741431399839
171,1.5699033936174261783719526921425
172,1.5710777971550934739017967560408
173,1.5722453903562689022415351916985
174,1.5734062518017525945175643472235
175,1.5745604587202295741660947654388
176,1.5757080870191201778793985914102
177,1.5768492113145563735765567926920
178,1.5779839049605131297969311101174
179,1.5791122400771212814650892723548
180,1.5802342875781928384294384746333
181,1.5813501171979813853639760398057
182,1.5824597975172052684227415268649
183,1.5835633959883566179259002754684
184,1.5846609789603204486176827246704
185,1.5857526117023256456263823274759
186,1.5868383584272488047494360395630
187,1.5879182823142947275696124468473
188,1.5889924455310690077219725754267
189,1.5900609092550664394071740152995
190,1.5911237336945908992328599877226
191,1.5921809781091259239403709522072
192,1.5932327008291723662240857475270
193,1.5942789592755714324960401366353
194,1.5953198099783264433830181327238
195,1.5963553085949412493200618936794
196,1.5973855099282889931441086672426
197,1.5984104679440255950146784906185
198,1.5994302357875621216449052683780
199,1.6004448658006088737033861911103
200,1.6014544095373051315916790617985
201,1.6024589177799455360209974341137
202,1.6034584405543164795469432716782
203,1.6044530271446531637887958991780
204,1.6054427261082289372438311441437
205,1.6064275852895868790553725053484
206,1.6074076518344266474811674974909
207,1.6083829722031524637365471281795
208,1.6093535921840964526669780863506
209,1.6103195569064230831292228199488
210,1.6112809108527262037310369546925
211,1.6122376978713260329385071511425
212,1.6131899611882763307268890542756
213,1.6141377434190861297166782247833
214,1.6150810865801710015329517633266
215,1.6160200321000330646690076384336
216,1.6169546208301836883614382314744
217,1.6178848930558128515687977676222
218,1.6188108885062141295557063787356
219,1.6197326463649685810708865348581
220,1.6206502052799000442987457026632
221,1.6215636033727997439291246781675
222,1.6224728782489374067649574672473
223,1.6233780670063524467543891780369
224,1.6242792062449402788020869830636
225,1.6251763320753363179597516609118
226,1.6260694801276012019941709367664
227,1.6269586855597158802387425063625
228,1.6278439830658883789886145079303
229,1.6287254068846793956422539499059
230,1.6296029908069514078898466272295
231,1.6304767681836430872727127079544
232,1.6313467719333794260917475956254
233,1.6322130345499125632261708823203
234,1.6330755881094094549866882043880
235,1.6339344642775795621627722195463
236,1.6347896943166522520918997249156
237,1.6356413090922075359399621441634
238,1.6364893390798618722653541398445
239,1.6373338143718144725099346797761
240,1.6381747646832562618979691151834
241,1.6390122193586457771559100007862
242,1.6398462073778548570685195540907
243,1.6406767573621881567118669165253
244,1.6415038975802781736653203625239
245,1.6423276559538601593834349282354
246,1.6431480600634294343641662018291
247,1.6439651371537824889697724050020
248,1.6447789141394494505274650872577
249,1.6455894176100128852979909634488
250,1.6463966738353233195088452316586
251,1.6472007087706093789550161978168
252,1.6480015480614853451601644326803
253,1.6487992170488611997960288140672
254,1.6495937407737548137139485251777
255,1.6503851439820101601151429141394
256,1.6511734511289216367265670172510
257,1.6519586863837708878280832940173
258,1.6527408736342725702923124838865
259,1.6535200364909358665927834670402
260,1.6542961982913421305921022393510
261,1.6550693821043389792746177830108
262,1.6558396107341555552674784398549
263,1.6566069067244378101478409979303
264,1.6573712923622092588096503175834
265,1.6581327896817557295380386322979
266,1.6588914204684362769468731851603
267,1.6596472062624234704367889622951
268,1.6604001683623730913003218293419
269,1.6611503278290275078019431498409
270,1.6618977054887484517897397037350
271,1.6626423219369884802076371220511
272,1.6633841975416951004898206602739
273,1.6641233524466550023680590836839
274,1.6648598065747756045317300910937
275,1.6655935796313077911409669167065
276,1.6663246911070081159717756840880
277,1.6670531602812479576338923706183
278,1.6677790062250613799390495705412
279,1.6685022478041432000207698742411
280,1.6692229036817893572112442203460
281,1.6699409923217874716395564138221
282,1.6706565319912550889642947640035
283,1.6713695407634288238348240136721
284,1.6720800365204015587662654384910
285,1.6727880369558145058424507748557
286,1.6734935595775001561480959058235
287,1.6741966217100811763809636753352
288,1.6748972404975216545819666433925
289,1.6755954329056353432137089235475
290,1.6762912157245516322832315510716
291,1.6769846055711370936211741881498
292,1.6776756188913754814002695664422
293,1.6783642719627100948459707092104
294,1.6790505808963435402367518832412
295,1.6797345616394969795245377369513
296,1.6804162299776364513257042736180
297,1.6810956015366561962003148354352
298,1.6817726917850283031681939996725
299,1.6824475160359154805182411406793
300,1.6831200894492487017198961344922
301,1.6837904270337701380797683283937
302,1.6844585436490434712877714575675
303,1.6851244540074287591959733916999
304,1.6857881726760254325787846053389
305,1.6864497140785848516245739146861
306,1.6871090924973916856051629075058
307,1.6877663220751112979304955651671
308,1.6884214168166106152737522830978
309,1.6890743905907485702933986287952
310,1.6897252571321364533662535539036
311,1.6903740300428717685046903878243
312,1.6910207227942431068696140154854
313,1.6916653487284074309068246605903
314,1.6923079210600415736699437508068
315,1.6929484528779672732646235378383
316,1.6935869571467511183538998574625
317,1.6942234467082769436340325445434
318,1.6948579342832960268347836751414
319,1.6954904324729522291216617894555
320,1.6961209537602820804800490964665
321,1.6967495105116937293421627100665
322,1.6973761149784208712224873953385
323,1.6980007792979551707399870529543
324,1.6986235154954561545140371664431
325,1.6992443354851403372683139089322
326,1.6998632510716478187281429668937
327,1.7004802739513891724352062825638
328,1.7010954157138698160472050157077
329,1.7017086878429968383629843675503
330,1.7023201017183647151275053388006
331,1.7029296686165213525887403334888
332,1.7035373997122155204348822096294
333,1.7041433060796260530617185988101
334,1.7047473986935710035941219829086
335,1.7053496884307010660055391882743
336,1.7059501860706733238057678340893
337,1.7065489022973081979697563630923
338,1.7071458476997306533950851245117
339,1.7077410327734917288410251675449
340,1.7083344679216764821418364514862
341,1.7089261634559940647374443444952
342,1.7095161295978524231440088497469
343,1.7101043764794172656332999127641
344,1.7106909141446552883255551992156
345,1.7112757525503634805298981591637
346,1.7118589015671819846421929635526
347,1.7124403709805940764833407488022
348,1.7130201704919100783387583695591
349,1.7135983097192387501666810325030
350,1.7141747981984437018798628696095
351,1.7147496453840869148699209880259
352,1.7153228606503590557245708390483
353,1.7158944532919958671090931361773
354,1.7164644325251820508984437104785
355,1.7170328074884430094617079770712
356,1.7175995872435226555246614418952
357,1.7181647807762505303011688041614
358,1.7187283969973974745622208316481
359,1.7192904447435155984661464112867
360,1.7198509327777714887632235375611
361,1.7204098697907643989592345845455
362,1.7209672644013359047622193842608
363,1.7215231251573656211728462613215
364,1.7220774605365580059687576881246
365,1.7226302789472184867284490180665
366,1.7231815887290177898579175785250
367,1.7237313981537473644359331494246
368,1.7242797154260626904451908812532
369,1.7248265486842191047717623750425
370,1.7253719060007958590189412402715
371,1.7259157953834112633268456606026
372,1.7264582247754278735821967478805
373,1.7269992020566476896549756510883
374,1.7275387350440016740888973944241
375,1.7280768314922242837755092527172
376,1.7286134990945244718183824293670
377,1.7291487454832449498041655354380
378,1.7296825782305128789203727759525
379,1.7302150048488838307764823110826
380,1.7307460327919757757671790233152
381,1.7312756694550959755173690343178
382,1.7318039221758578986990466341373
383,1.7323307982347928360348919052101
384,1.7328563048559511793635064927470
385,1.7333804492074969872215339510099
386,1.7339032384022964968254149133735
387,1.7344246794984963330441269322724
388,1.7349447795000953524438302321993
389,1.7354635453575107984032220436871
390,1.7359809839681359577459691202881
391,1.7364971021768896372041107411525
392,1.7370119067767610694871455072836
393,1.7375254045093477238844480855276
394,1.7380376020653846039574723475903
395,1.7385485060852678907003946362390
396,1.7390581231595725835709585988687
397,1.7395664598295637708654565116152
398,1.7400735225877015391890911189642
399,1.7405793178781380894472157607727
400,1.7410838520972113610071349673769
401,1.7415871315939312146673710409043
402,1.7420891626704589214181013262497
403,1.7425899515825827795363354667913
404,1.7430895045401877549528155078199
405,1.7435878277077166122322160431351
406,1.7440849272046286471351460519093
407,1.7445808091058531394664408428112
408,1.7450754794422350314381794735367
409,1.7455689442009756947020627148720
410,1.7460612093260713026640216836951
411,1.7465522807187430702797909637619
412,1.7470421642378629461560562147673
413,1.7475308657003758383114149759762
414,1.7480183908817147997857596543029
415,1.7485047455162134604682957785422
416,1.7489899352975121372380484050663
417,1.7494739658789604734311934953598
418,1.7499568428740137734582443240507
419,1.7504385718566273137357072851864
420,1.7509191583616436145701226859113
421,1.7513986078851766279664347534000
422,1.7518769258849921258194715672031
423,1.7523541177808821275556440248106
424,1.7528301889550369839512009941779
425,1.7533051447524114995674248249682
426,1.7537789904810887037953872811797
427,1.7542517314126387583789427783788
428,1.7547233727824730184215512977902
429,1.7551939197901971626682468364738
430,1.7556633775999562586597208505712
431,1.7561317513407792699936203710507
432,1.7565990461069201588805749425614
433,1.7570652669581909256630511280033
434,1.7575304189202976870980433314767
435,1.7579945069851676210461076319843
436,1.7584575361112746826332712857597
437,1.7589195112239622574253619729685
438,1.7593804372157617379786971240642
439,1.7598403189467077094649331319971
440,1.7602991612446508201081559697759
441,1.7607569689055655009232457534833
442,1.7612137466938561031707564963649
443,1.7616694993426611061083949186906
444,1.7621242315541500194398348698004
445,1.7625779479998223162757103056124
446,1.7630306533207994262549937094023
447,1.7634823521281169634370692105724
448,1.7639330490030104127648012827149
449,1.7643827484972021213373917033405
450,1.7648314551331817528482349530767
451,1.7652791734044877143400678292258
452,1.7657259077759824028642469334600
453,1.7661716626841270215231881233892
454,1.7666164425372523604295059258972
455,1.7670602517158291732279574424928
456,1.7675030945727334531378455840430
457,1.7679449754335113113835345951186
458,1.7683858985966398612659632621108
459,1.7688258683337866293769680056903
460,1.7692648888900671440771016404938
461,1.7697029644842985589770717863461
462,1.7701400993092525327082060650084
463,1.7705762975319059772348786466533
464,1.7710115632936878443299861094797
465,1.7714459007107259279325421768096
466,1.7718793138740908223192830881110
467,1.7723118068500363261114208246973
468,1.7727433836802413175554161445722
469,1.7731740483820455878409756421868
470,1.7736038049486871673809846125246
471,1.7740326573495354228414113546409
472,1.7744606095303242335368781119480
473,1.7748876654133806094272928837592
474,1.7753138288978562663841064953585
475,1.7757391038599510935091686412256
476,1.7761634941531410387000450803110
477,1.7765870036084007582296487272569
478,1.7770096360344257194869562731126
479,1.7774313952178526598225452359963
480,1.7778522849234788100621583254812
481,1.7782723088944784479773452181157
482,1.7786914708526203653525485766824
483,1.7791097744984816439768083267434
484,1.7795272235116605761082383105908
485,1.7799438215509902225914116874176
486,1.7803595722547472102293946170578
487,1.7807744792408626345396363156455
488,1.7811885461071296822740158765449
489,1.7816017764314112202725597333614
490,1.7820141737718452327528627554411
491,1.7824257416670502609096305780512
492,1.7828364836363294532407403627731
493,1.7832464031798732224905314060272
494,1.7836555037789616248126576517169
495,1.7840637888961646759329996604118
496,1.7844712619755438717362371235511
497,1.7848779264428506225665543269470
498,1.7852837857057255710653681376369
499,1.7856888431538963162351437190365
500,1.786093102159375700445222644083
501,1.786496566076656432500963108816
502,1.786899238242909529959635781669
503,1.787301121978178077777357806796
504,1.787702220585574177068866052964
505,1.788102537351471962412939703455
506,1.788502075545702449827350401726
507,1.788900838421748096586670490771
508,1.789298829216936747136793690160
509,1.789696051152633231489109735453
510,1.790092507434434706065853804638
511,1.790488201252363006109793116888
512,1.790883135781057949234078425961
513,1.791277314179970246632118504985
514,1.791670739593554740648917951841
515,1.792063415151464386787390758673
516,1.792455343968743235870120376943
517,1.792846529146019538144072479790
518,1.793236973769700803470565113435
519,1.793626680912167650080837808224
520,1.794015653631969351302346200827
521,1.794403894974017929815342516228
522,1.794791407969785131997792734924
523,1.795178195637498777958086440238
