Eigenstate,Potential Energy
1,0.500000000029271513006401673442858188
2,0.64623093784218372509121503298790966
3,0.73633761026622520480568555885488157
4,0.79966527898325626504631630569332789
5,0.8480465773106604869754461284273250
6,0.8870660000037200743268258467976849
7,0.9197208285008940656185121381105760
8,0.9477838491792844996570182069258528
9,0.9723835610452651256165453830985822
10,0.9942802182474702909157447069214527
11,1.0140093909269833957322900974132361
12,1.0319621743884681879157854753707666
13,1.0484326986977603779273158020727424
14,1.0636476615380290613202991010611925
15,1.0777854440239615394382203578740481
16,1.090988915572208411053706976115223
17,1.103374267362888024246131459866797
18,1.115037263345786104786775676115154
19,1.126057763344333555030277673528656
20,1.136503060689543069769526265479576
21,1.146430388301706468698867103830970
22,1.155888829849134961717126716431193
23,1.164920797684683915317610510196261
24,1.173563190246175104746301952632974
25,1.181848308852323183474806639614558
26,1.189804591510323499312282548340735
27,1.197457205878427985356394463527791
28,1.204828532624985044881539331374945
29,1.211938562630391527759980552005965
30,1.218805225828917326707575087451082
31,1.225444665341424621559500612061108
32,1.231871467472104215052678382494501
33,1.238098855832703599465135127581876
34,1.244138856107175127318977235657495
35,1.250002436630477593675460825876633
36,1.255699628921785659028711382608569
37,1.261239631508276993317981874167929
38,1.266630899745248278466365656408212
39,1.271881223840462557362581821571419
40,1.276997796894809633680806790368563
41,1.281987274454610953233068261623002
42,1.286855826815907796061118602299440
43,1.291609185114585263573819823022446
44,1.296252682068090529545385703438512
45,1.300791288096934254804582873893974
46,1.305229643441027782861837327545562
47,1.309572086792432121398717639681292
48,1.313822680888508350303987399277874
49,1.317985235444796553050637599365287
50,1.32206332775282765456084494717766
51,1.32606032122260558623823809559523
52,1.32997938211115198455164334976847
53,1.33382349464605551101204098584382
54,1.33759547472540674993137757848516
55,1.34129798235202414784263294521249
56,1.34493353293980188833759927904596
57,1.34850450761281163096172677427108
58,1.35201316260299285651614186151029
59,1.35546163783951261384313590321185
60,1.35885196481185095547046370766052
61,1.36218607377910412198623299297699
62,1.36546580038969652990364608436642
63,1.36869289176845072875505705003061
64,1.37186901212165201323341947140183
65,1.37499574790520953622701029008481
66,1.37807461259616842953966878672403
67,1.38110705110356514776349542782627
68,1.38409444385086208996273425845372
69,1.38703811055888488310114415902623
70,1.38993931375525744288134693296102
71,1.39279926203373122393386250454549
72,1.39561911308450682891377357895174
73,1.39839997651459313965977234615360
74,1.40114291647543028501762291236319
75,1.40384895411337165882722985085601
76,1.40651906985717064481730743044498
77,1.40915420555531530673366759291436
78,1.41175526647488850384696700325034
79,1.41432312317258407199357653236511
80,1.41685861324757158465881302045961
81,1.41936254298505286713521665421417
82,1.42183568889859198623503798147459
83,1.42427879917861170424645843619050
84,1.42669259505382509410694054120218
85,1.42907777207181173659344340866659
86,1.43143500130443205493987368623189
87,1.43376493048331587149234148623568
88,1.43606818507023789327702114152969
89,1.43834536926680933119394844260188
90,1.44059706696757164082078976464116
91,1.44282384266025692075994694185968
92,1.44502624227669120692318189008074
93,1.44720479399755464609234563513974
94,1.44936000901396960335668059373748
95,1.45149238224866660399813097908639
96,1.45360239303927618827966752856310
97,1.45569050578611041548207497353024
98,1.45775717056662487923981359713584
99,1.45980282371859862403761287651227
100,1.46182788839392301231319825467345
101,1.46383277508476128745721569996110
102,1.46581788212371500328025044396076
103,1.46778359615952557690396308259396
104,1.46973029260973195732304084616230
105,1.47165833609161232812759493850720
106,1.47356808083264699863208437756304
107,1.47545987106166155570133792270391
108,1.47733404138173010900987517396389
109,1.47919091712584986893661697274406
110,1.48103081469633587617191392159683
111,1.48285404188881884091541236206446
112,1.48466089820167961590974134373511
113,1.48645167513169829176090503672072
114,1.48822665645664714524001383630275
115,1.48998611850551622275833108814767
116,1.49173033041701200955944635946823
117,1.49345955438693792216557692326447
118,1.49517404590502433050951040160842
119,1.49687405398174210246729070481449
120,1.49855982136560782127189830897379
121,1.50023158475145055904384244409694
122,1.50188957498009117654188359971261
123,1.50353401722985292630504115022955
124,1.50516513120030445654842004519695
125,1.50678313128860674691230365855900
126,1.50838822675882030986636448694383
127,1.50998062190450841368446706427979
128,1.51156051620494949571566462973911
129,1.51312810447525986143888126935457
130,1.51468357701070938292149131958644
131,1.51622711972549750618392755971083
132,1.51775891428624189977181781908895
133,1.51927913824042029525282857825185
134,1.52078796513999479439698266716663
135,1.52228556466042980945646413925979
136,1.52377210271531111543053900085278
137,1.52524774156676018525786003124129
138,1.52671263993182436688761925832926
139,1.52816695308502135527551850867286
140,1.52961083295720096638220483724196
141,1.53104442823088266276184761463706
142,1.53246788443221920706162266171228
143,1.53388134401972816958331012792163
144,1.53528494646992583642153826185540
145,1.53667882835999387693380992137919
146,1.53806312344760126054680349051822
147,1.53943796274799570993728038453247
148,1.54080347460848001959259883959681
149,1.54215978478037504068166439871483
150,1.54350701648857297308984598815564
151,1.54484529049877687884771717201031
152,1.54617472518251671609873501853554
153,1.54749543658003084327441765741816
154,1.54880753846109689269346251593576
155,1.55011114238389024955161761220826
156,1.55140635775194800263901595548210
157,1.55269329186930941336149929618331
158,1.55397204999390472114026398558341
159,1.5552427353892559579959374296666
160,1.5565054493745561098275981946603
161,1.5577602913731851204784846132780
162,1.5590073589597221996605686520906
163,1.5602467479055092880079753059168
164,1.5614785522228203158251847089077
165,1.5627028642076848557183622924478
166,1.5639197744814166846692674099430
167,1.5651293720308944878420760711860
168,1.5663317442476373930074083527366
169,1.5675269769657203976447995662920
170,1.5687151544985694318103414316201
171,1.5698963596746762512007672988211
172,1.5710706738722710270429348359402
173,1.5722381770529880351100254400169
174,1.5733989477945602873493244828844
175,1.5745530633225770910253003389502
176,1.5757005995413342417015231787139
177,1.5768416310638101105696166580192
178,1.5779762312407967804921388959512
179,1.5791044721892126756759133418853
180,1.5802264248196276313453811678404
181,1.5813421588630230519727798436948
182,1.5824517428968148534210944370641
183,1.5835552443701622382444027083006
184,1.5846527296285865456520460022192
185,1.5857442639379219842306196666953
186,1.5868299115076192160132314870729
187,1.5879097355134255923640161938473
188,1.5889837981194574779622942525504
189,1.5900521604996883939442101385699
190,1.5911148828588686312464950226031
191,1.5921720244528955566707045257248
192,1.5932236436086509938368553463818
193,1.5942697977433239828397522354875
194,1.5953105433832322593552391755716
195,1.5963459361821603855193063031460
196,1.5973760309392282244435497265356
197,1.5984008816163041336510569969415
198,1.5994205413549770393746713648101
199,1.6004350624931002255340532122313
200,1.6014444965809207775532489465879
201,1.6024488943968056573984532207159
202,1.6034483059625777859482742038600
203,1.6044427805584727873791726872473
204,1.6054323667377280104287088716764
205,1.6064171123408137918492706973211
206,1.6073970645093199807502973169786
207,1.6083722696995035944552434280734
208,1.6093427736955118272789507813535
209,1.6103086216222861550537975852030
210,1.6112698579581590310047161753719
211,1.6122265265471505319303567663807
212,1.6131786706109751818134254756200
213,1.6141263327607633307491934080772
214,1.6150695550085120648765401184854
215,1.6160083787782648535372653146021
216,1.6169428449170338881151735920093
217,1.6178729937054690715912814704515
218,1.6187988648682826312590568597078
219,1.6197204975844326275296118147845
220,1.6206379304970778669484312467541
221,1.6215512017233021217071440764667
222,1.6224603488636248530096098549724
223,1.6233654090112919991168814641494
224,1.6242664187613618873628017253773
225,1.6251634142195888266760957308876
226,1.6260564310111079185430818869009
227,1.6269455042889297292506195611807
228,1.6278306687422466336019411508360
229,1.6287119586045579822416726439463
230,1.6295894076616187788196157183357
231,1.6304630492592136562488830654355
232,1.6313329163107665609640888328804
233,1.6321990413047811306689239310078
234,1.6330614563121279116238668416269
235,1.6339201929931715865584218053332
236,1.6347752826047479119607862719569
237,1.6356267560069939848561009857914
238,1.6364746436700335700680710347432
239,1.6373189756805229235274711107091
240,1.6381597817480592650275990936938
241,1.6389970912114561817575227080499
242,1.6398309330448888185455124507671
243,1.6406613358639128855674922415210
244,1.6414883279313591717377375068616
245,1.6423119371631079368738149795686
246,1.6431321911337457011840079136442
247,1.6439491170821058138432079905228
248,1.6447627419167003811918334333955
249,1.6455730922210385230535212179783
250,1.6463801942588413412722628506829
251,1.6471840739791514998761164510010
252,1.6479847570213402147624280484615
253,1.6487822687200167245024434765931
254,1.6495766341098398985177480610696
255,1.6503678779302358620525829447672
256,1.6511560246300217227041150359418
257,1.6519410983719417892496951879451
258,1.6527231230371127268249118789456
259,1.6535021222293844512978280575690
260,1.6542781192796171485388277063005
261,1.6550511372498747316382830318638
262,1.6558211989375394607985521722777
263,1.6565883268793465757825898906348
264,1.6573525433553443910715270337728
265,1.6581138703927783782587951610106
266,1.6588723297699014027127041145151
267,1.6596279430197133270390765901846
268,1.6603807314336300143428355919747
269,1.6611307160650860004868531591665
270,1.6618779177330665587722523090598
271,1.6626223570255784402758406140469
272,1.6633640543030532686881181782279
273,1.6641030297016910320455592816232
274,1.6648393031367408796539175749346
275,1.6655728943057230990609707600397
276,1.6663038226915905507100165314046
277,1.6670321075658370435670301465682
278,1.6677577679915444056478153053174
279,1.6684808228263797518924711364226
280,1.6692012907255350422357080802165
281,1.6699191901446168186788700953517
282,1.6706345393424836176144382951778
283,1.6713473563840342698322296492368
284,1.6720576591429442447250105489133
285,1.6727654653043568459371298977092
286,1.6734707923675252831836614487514
287,1.6741736576484106795143051060436
288,1.6748740782822324157806553753254
289,1.6755720712259754603536561807949
290,1.6762676532608554166013294062679
291,1.6769608409947391290498714931808
292,1.6776516508645237331174613122736
293,1.6783400991384780541778073319565
294,1.6790262019185413928513894357582
295,1.6797099751425817836513050301454
296,1.6803914345866213125272065758866
297,1.6810705958670184250145264996090
298,1.6817474744426165417230874059414
299,1.6824220856168557840033550436881
300,1.6830944445398495603762244619283
301,1.6837645662104264251444631841640
302,1.6844324654781393020986470318887
303,1.6850981570452392464267066650208
304,1.6857616554686173223366683871452
305,1.6864229751617160248993646995923
306,1.6870821303964095093110067296326
307,1.6877391353048498095292896901248
308,1.6883940038812865247117569573564
309,1.6890467499838560627222835997646
310,1.6896973873363407758521627531217
311,1.6903459295299015836590171846886
312,1.6909923900247815960566228567503
313,1.6916367821519821294043940600646
314,1.6922791191149129198709092869813
315,1.6929194139910158537148981162088
316,1.6935576797333635901261895052734
317,1.6941939291722306152321243933400
318,1.6948281750166420785151921619077
319,1.6954604298558975532043637657705
320,1.6960907061610697218990489726645
321,1.6967190162864819063607786238369
322,1.6973453724711605559045800219172
323,1.6979697868402662084293963707060
324,1.6985922714065019012287235630817
325,1.6992128380715007935627571444453
326,1.6998314986271912382199683996058
327,1.7004482647571421228239752426985
328,1.7010631480378856700818899585723
329,1.7016761599402226718332422496535
330,1.7022873118305065885667545150518
331,1.7028966149719079529821143821612
332,1.7035040805256601388218401283317
333,1.7041097195522868735117503483287
334,1.7047135430128096786169333271770
335,1.7053155617699395530289202992305
336,1.7059157865892489569187560373041
337,1.7065142281403269686855098445869
338,1.7071108969979186737352310305666
339,1.7077058036430448495805866286368
340,1.7082989584641080385850360685186
341,1.7088903717579807219122910933123
342,1.7094800537310780918139712310911
343,1.7100680145004150600276554190421
344,1.7106542640946474959764849996783
345,1.7112388124550995140873299411499
346,1.7118216694367742850062841551319
347,1.7124028448093519360534801570790
348,1.7129823482581713526250912347578
349,1.7135601893851994254501818984250
350,1.7141363777099852860276336401129
351,1.7147109226706016178302533364172
352,1.7152838336245727256253592707071
353,1.7158551198497886472746618265873
354,1.7164247905454067224742066270072
355,1.7169928548327409837027845131968
356,1.7175593217561375791530700024002
357,1.7181242002838394666748526133987
358,1.7186874993088396227232740278238
359,1.7192492276497185114432790269597
360,1.7198093940514747518011399017356
361,1.7203680071863407276249333913087
362,1.7209250756545896221470418850808
363,1.7214806079853284726551466751702
364,1.7220346126372822692389422450873
365,1.7225870979995673339942209562304
366,1.7231380723924528583478951265497
367,1.7236875440681134905094144754876
368,1.7242355212113697617726446118048
369,1.7247820119404209842090115861362
370,1.7253270243075663329231507452071
371,1.7258705662999169661762780544880
372,1.7264126458400981398531782884830
373,1.7269532707869412829848402932989
374,1.7274924489361703428033525491540
375,1.7280301880210730908959185637726
376,1.7285664957131688466710482847577
377,1.7291013796228644073449504844675
378,1.7296348473001013518569997928193
379,1.7301669062349965585135926236291
380,1.7306975638584726931233620960405
381,1.7312268275428815430568148399920
382,1.7317547046026173153985501308784
383,1.7322812022947245738514374540290
384,1.7328063278194957780910848562281
385,1.7333300883210620468236131456446
386,1.7338524908879778031961482826025
387,1.7343735425537950518937916517379
388,1.7348932502976312247179305703484
389,1.7354116210447312693269749888493
390,1.7359286616670211702413168184875
391,1.7364443789836532190472059591837
392,1.7369587797615466421717974689136
393,1.7374718707159210597084772850666
394,1.7379836585108213563840857867215
395,1.7384941497596368215332399255262
396,1.7390033510256142089407475157511
397,1.7395112688223643464534153860174
398,1.7400179096143623034878072208081
399,1.7405232798174396822185456211931
400,1.7410273857992733323972568242891
401,1.7415302338798665387145437630920
402,1.7420318303320234259142379429959
403,1.7425321813818194023922818947677
404,1.7430312932090655353627006647280
405,1.7435291719477643230286987573416
406,1.7440258236865629727861193981059
407,1.7445212544692013021721859982429
408,1.7450154702949517657462310134247
409,1.7455084771190544689728082714148
410,1.7460002808531496835780392550825
411,1.7464908873657021243905374735810
412,1.7469803024824205702492879170009
413,1.7474685319866739080315471422338
414,1.7479555816199000236392678819349
415,1.7484414570820118239004731585768
416,1.7489261640317968190120613142033
417,1.7494097080873131140045143605069
418,1.7498920948262789724589475213275
419,1.7503733297864602309823779458717
420,1.7508534184660505463565697831438
421,1.7513323663240484275393760458093
422,1.7518101787806303341149730123464
423,1.7522868612175176773273691714109
424,1.7527624189783413374169202993969
425,1.7532368573690000766134483247682
426,1.7537101816580164546211250303448
427,1.7541823970768877312183997618353
428,1.7546535088204317696555397899670
429,1.7551235220471318532308709404638
430,1.7555924418794732771450990692677
431,1.7560602734042792192819564705867
432,1.7565270216730430394224312959704
433,1.7569926917022523447831351501978
434,1.7574572884737159198085700851904
435,1.7579208169348813438849420034674
436,1.7583832819991511979577779553302
437,1.7588446885461960214157832271961
438,1.7593050414222630012972200816579
439,1.7597643454404810751149671249948
440,1.7602226053811635185056137309087
441,1.7606798259921051775468518649511
442,1.7611360119888779093809702104308
443,1.7615911680551238788304840041944
444,1.7620452988428413303680518723875
445,1.7624984089726721660899387716485
446,1.7629505030341823540327041477313
447,1.7634015855861423359916095491888
448,1.7638516611568006530326837509377
449,1.7643007342441586291921496816964
450,1.7647488093162382657944976089973
451,1.7651958908113508494725720149555
452,1.7656419831383591152268753242024
453,1.7660870906769387075854784807316
454,1.7665312177778353288014018733900
455,1.7669743687631211979491382371248
456,1.7674165479264461179076412345086
457,1.7678577595332878459248302450027
458,1.7682980078211981636490695763423
459,1.7687372970000471605394218370033
460,1.7691756312522653729868537968936
461,1.7696130147330816288578352308346
462,1.7700494515707598104995140486238
463,1.7704849458668331399644595073293
464,1.7709195016963341473486217205745
465,1.7713531231080242909657071040658
466,1.7717858141246203600419159995726
467,1.7722175787430169404348696625104
468,1.7726484209345099590051019033207
469,1.7730783446450137833237208727542
470,1.7735073537952794012444858746698
471,1.7739354522811079474340775436060
472,1.7743626439735638744595030339974
473,1.7747889327191831193216746768212
474,1.7752143223401837694160805271772
475,1.7756388166346681506620756008813
476,1.7760624193768288515922330771880
477,1.7764851343171490163846915655918
478,1.7769069651826015828137397513009
479,1.7773279156768463544873996744287
480,1.7777479894804253019386521719613
481,1.7781671902509546434312575756628
482,1.7785855216233172742509340872729
483,1.7790029872098509244637739393793
484,1.7794195906005348648804116513340
485,1.7798353353631766380858236037616
486,1.7802502250435933993106362822731
487,1.7806642631657947159097206149225
488,1.7810774532321614219147771935694
489,1.7814897987236237557447968560188
490,1.7819013030998366440980761062746
491,1.7823119697993542662071457445777
492,1.7827218022398024865410207591627
493,1.7831308038180491308573207399670
494,1.7835389779103731995377533616013
495,1.7839463278726312105932578020455
496,1.7843528570404239166499954357637
497,1.7847585687292590813235866923823
498,1.7851634662347142601203623441637
499,1.7855675528325970830707436310266
500,1.785970831779105169446579336103
501,1.786373306310981420454410872388
502,1.786774979645672144932527005906
503,1.787175854981479486024060804234
504,1.787575935497715992506190772034
505,1.787975224354854182079148370920
506,1.788373724694676826539101369046
507,1.788771439640425806693279291997
508,1.789168372296949176807686171272
509,1.789564525750844669300628752498
510,1.789959903070605692744086690454
511,1.790354507306763054069320108868
512,1.790748341492026304992756825828
513,1.791141408641423328217610050782
514,1.791533711752438839694927071735
515,1.791925253805152181062144887610
516,1.792316037762372612469433825493
517,1.792706066569773180406366097722
518,1.793095343156024945789313723712
519,1.793483870432928354129968498792
520,1.793871651295544604665315409747
521,1.794258688622323813554622703496
522,1.794644985275234247225294105887
523,1.795030544099889062902460359662
