Eigenstate,Potential Energy
1,0.500000000020722691518747591920217054
2,0.64623093778638148242763452195023279
3,0.73633761010231066023737358387672300
4,0.79966527864184110085717574823633283
5,0.8480465767192598118576770321320181
6,0.8870659990885805880221713135210529
7,0.9197208271876678014606703158036523
8,0.9477838473933099410060115137548896
9,0.9723835587116980519926244410735089
10,0.9942802152913503049517239668055780
11,1.0140093872732701716556643476285407
12,1.0319621699620622906420634599653841
13,1.0484326934235156823947378713122123
14,1.0636476553407603378072558909445758
15,1.0777854368284491226644438131472080
16,1.090988907303201037509925002183281
17,1.103374257945104478028020341954024
18,1.115037252703916064427104360797484
19,1.126057751403037889975872351263356
20,1.136503047373453748658385979926812
21,1.146430373535426187945539296347802
22,1.155888813557236568703791895893773
23,1.164920779791709678123304474605356
24,1.173563170676635865394598143932641
25,1.181848287530697421479334486675695
26,1.189804568361056325210515170694165
27,1.197457180825930078912232614962006
28,1.204828505593631549041645817972705
29,1.211938533544520906831485979999533
30,1.218805194612830195294508835781432
31,1.225444631919382549354429769965845
32,1.231871431768328511492394228346147
33,1.238098817771374081429616057548638
34,1.244138815612428872413904935881218
35,1.250002393626407681141977230097332
36,1.255699583332439899934881475357213
37,1.261239583257656651378905255635215
38,1.266630848757306782595111112062940
39,1.271881170039104206857906227898042
40,1.276997740203888296799290790167502
41,1.281987214797928759764736857958959
42,1.286855764117213824422603949726019
43,1.291609119297574222846850418399751
44,1.296252613056401436817157003721826
45,1.300791215814149108107429586736203
46,1.305229567810670229960300646285666
47,1.309572007737966124630782813531204
48,1.313822598333336847648473434556448
49,1.317985149312260115563330454660121
50,1.32206323796620314029701148322742
51,1.32606022770510479075789715974168
52,1.32997928478592028808579306686806
53,1.33382339343617052235244035403936
54,1.33759536955387694709303470074245
55,1.34129787314178751553653580832777
56,1.34493341961372455228115152196862
57,1.34850439009368648904559783665328
58,1.35201304081353820683855849512767
59,1.35546151170237077961598472401916
60,1.35885183424958690679567078509520
61,1.36218593871420409449571281370043
62,1.36546566074456664025152870205298
63,1.36869274746541558694685025234193
64,1.37186886308295333177318219249107
65,1.37499559405300473606034881435364
66,1.37807445385252924276755359181433
67,1.38110688739047621709928278114274
68,1.38409427509021956490249015568702
69,1.38703793667249501277523701157951
70,1.38993913466483516555346331799991
71,1.39279907766089875311178369611606
72,1.39561892335079223603479642090998
73,1.39839978134142893331215261824513
74,1.40114271578415198665815816946904
75,1.40384874782521637495387783341200
76,1.40651885789327563555466080956068
77,1.40915398783671655078805298560643
78,1.41175504292251925978699806676603
79,1.41432289370727343581111352935979
80,1.41685837779004304356445832582560
81,1.41936230145592284954169377547320
82,1.42183544121836840788108118754207
83,1.42427854526769251041315044462590
84,1.42669233483249679787779586045773
85,1.42907750546024795310889956989610
86,1.43143472822269203159630034445696
87,1.43376465085134301403506773138346
88,1.43606789880785828773637950966686
89,1.43834507629373026161280557615612
90,1.44059676720338010272153472820012
91,1.44282353602441813029841786237287
92,1.44502592868854710567655145332785
93,1.44720447337632240142753001528427
94,1.44935968127874010432537722892353
95,1.45149204731840295270417251973081
96,1.45360205083281218666395355573287
97,1.45569015622214904746989433296343
98,1.45775681356373678819501606815914
99,1.45980245919522058546760979976921
100,1.46182751626835640176843696077842
101,1.46383239527517054356832623720499
102,1.46581749454812608587569679019017
103,1.46778320073582442015064764390607
104,1.46972988925566291783187201636564
105,1.47165792472477662796570579188082
106,1.47356766137050116318295991601456
107,1.47545944342151584631374407769448
108,1.47733360548074695037609658010647
109,1.47919047288104227114009688294421
110,1.48103036202456585134406999948354
111,1.48285358070679581444094699201538
112,1.48466042842595883211940833590537
113,1.48645119667867921405032808024676
114,1.48822616924257185055272560242835
115,1.48998562244646779037083231041815
116,1.49172982542891290410568591113692
117,1.49345904038554837083787445462786
118,1.49517352280594069437250861494847
119,1.49687352170039524182118344590051
120,1.49855927981726145500071278340579
121,1.50023103385119961788420423607611
122,1.50188901464286015020724699386102
123,1.50353344737039420439998192576552
124,1.50516455173319666320716637422553
125,1.50678254212825306909525783379638
126,1.50838762781944681924794546841793
127,1.50998001310016238206518971161831
128,1.51155989744949770389094622430811
129,1.51312747568238690145660772470693
130,1.51468293809391595365996888889309
131,1.51622647059809870218143656816022
132,1.51775825486136549323838185683374
133,1.51927846843100501119462496146922
134,1.52078728485878857878313358170403
135,1.52228487381998809035757524784919
136,1.52377140122799505705796388805202
137,1.52524702934473493483208295686804
138,1.52671191688705729426375161412598
139,1.52816621912928028525338131346735
140,1.52961008800205240362803413965463
141,1.53104367218769000926819588560978
142,1.53246711721214097207140984134650
143,1.53388056553371617190367716816184
144,1.53528415662872339905243873812161
145,1.53667802707413401393597963094048
146,1.53806231062740485607307431277302
147,1.53943713830356968935077675120911
148,1.54080263844971551259482664151234
149,1.54215893681694553637292452226486
150,1.54350615662993246688396035675867
151,1.54484441865415801116238722569004
152,1.54617384126092890274244868444939
153,1.54749454049025839745017741081821
154,1.54880663011169713853910327078276
155,1.55011022168319162713588494637783
156,1.55140542460804816433201032775500
157,1.55269234619007331149756193797584
158,1.55397109168696268689076643006505
159,1.5552417643620017713688498393582
160,1.5565044655341450607101216282961
161,1.5577592946265320606384468251929
162,1.5590063492134995856216401828948
163,1.5602457250661452147132664446932
164,1.5614775161964965410030082441415
165,1.5627018149003348148633977748496
166,1.5639187117987234965517816751441
167,1.5651282958782889504571479668101
168,1.5663306545302959698754495613945
169,1.5675258735885631943741279350762
170,1.5687140373662581628317016747074
171,1.5698952286916121965832867488075
172,1.5710695289425929793000875928036
173,1.5722370180805702359036675536024
174,1.5733977746830103539990980946733
175,1.5745518759752339327300187445380
176,1.5756993978612659653784676650737
177,1.5768404149538119162169631509771
178,1.5779750006033888459790092208437
179,1.5791032269266380308638112810360
180,1.5802251648338500214440800459761
181,1.5813408840557247900329242514596
182,1.5824504531693946618651311467835
183,1.5835539396237330793365882666509
184,1.5846514097639734408076300983593
185,1.5857429288556598220633657535430
186,1.5868285611079505490199016010666
187,1.5879083696962984221434042924637
188,1.5889824167845230288657842003397
189,1.5900507635462988750539297378927
190,1.5911134701860749865763696146309
191,1.5921705959594452034848560921407
192,1.5932221991929855489790045072785
193,1.5942683373035769769663928052085
194,1.5953090668172268389645598625240
195,1.5963444433874070026669483119795
196,1.5973745218129223140354159075503
197,1.5983993560553237782025170423072
198,1.5994189992558806211246815472200
199,1.6004335037521240658016591838678
200,1.6014429210939767632232161402329
201,1.6024473020594788544217883770576
202,1.6034466966701240397423919955933
203,1.6044411542058163100116968701152
204,1.6054307232194589544677735905663
205,1.6064154515511858107624092201979
206,1.6073953863422477757328836410034
207,1.6083705740485604475686164181310
208,1.6093410604539271207772289234285
209,1.6103068906829428767775359671021
210,1.6112681092135912657184556974407
211,1.6122247598895409384801333555776
212,1.6131768859321524559793040717963
213,1.6141245299521996536667782855408
214,1.6150677339613205369004711429697
215,1.6160065393831969134185579907205
216,1.6169409870644767173632349770094
217,1.6178711172854429838903322409337
218,1.6187969697704384468076525082800
219,1.6197185836980490321707285748653
220,1.6206359977110587559565903445064
221,1.6215492499261739280978839989687
222,1.6224583779435338602353742355081
223,1.6233634188560016380124254516901
224,1.6242644092582500172018722780528
225,1.6251613852556450002000700540072
226,1.6260543824729306308209863069297
227,1.6269434360627236502288708533367
228,1.6278285807138198242007622340622
229,1.6287098506593190938540052648166
230,1.6295872796845742360671595400006
231,1.6304609011349648228484744137409
232,1.6313307479235068885565194869534
233,1.6321968525382932904609658179377
234,1.6330592470497809086928746936713
235,1.6339179631179178566677475040092
236,1.6347730319991204007328108491990
237,1.6356244845531032091482628002611
238,1.6364723512495646613961339560512
239,1.6373166621747326533787556819068
240,1.6381574470377730519054745223217
241,1.6389947351770650797971910282589
242,1.6398285555663464875396597502642
243,1.6406589368207325422388328755169
244,1.6414859072026105220942485622387
245,1.6423094946274140894807984165987
246,1.6431297266692800611857341951237
247,1.6439466305665889575653946667867
248,1.6447602332273969111547251799855
249,1.6455705612347539032237202745545
250,1.6463776408519187123800583765469
251,1.6471814980274684746233955107725
252,1.6479821584003056527445639683633
253,1.6487796473045674866663648903791
254,1.6495739897744375809763251411801
255,1.6503652105488635090741544900929
256,1.6511533340761805186940480436137
257,1.6519383845186477295395105042887
258,1.6527203857568932670826231508161
259,1.6534993613942751353715838501439
260,1.6542753347611582145441317061030
261,1.6550483289191076960971083351571
262,1.6558183666650036806375435778306
263,1.6565854705350757879950087663517
264,1.6573496628088632298464193314966
265,1.6581109655130988693786196853951
266,1.6588694004255194350190285483368
267,1.6596249890786051007641519953877
268,1.6603777527632484661026941283186
269,1.6611277125323572047300976604253
270,1.6618748892043861054764225688712
271,1.6626193033668077886813559828054
272,1.6633609753795160768580802119742
273,1.6640999253781694620374387932591
274,1.6648361732774718780872980377881
275,1.6655697387743946528634336484259
276,1.6663006413513379178212589288466
277,1.6670289002792389583791300218648
278,1.6677545346206192589574972062124
279,1.6684775632325817451392945658999
280,1.6691980047697503157976701826607
281,1.6699158776871595539947667645397
282,1.6706312002430921129005261456870
283,1.6713439905018669891579863320914
284,1.6720542663365758402109507242813
285,1.6727620454317741528350770828305
286,1.6734673452861232875978274039169
287,1.6741701832149884585191355498962
288,1.6748705763529890496888075011098
289,1.6755685416565059168855513345273
290,1.6762640959061464067050577669119
291,1.6769572557091649341178330909785
292,1.6776480375018420033434847890051
293,1.6783364575518255777966312703788
294,1.6790225319604298359989871789972
295,1.6797062766648934005828762080978
296,1.6803877074406046259264253480027
297,1.6810668399032838761253939339314
298,1.6817436895111321100330759507983
299,1.6824182715669425762038363801391
300,1.6830906012201773683234154792590
301,1.6837606934690092525414702901831
302,1.6844285631623308596165603996946
303,1.6850942250017284149796815697593
304,1.6857576935434235842234424909744
305,1.6864189832001848625204426244689
306,1.6870781082432077711681163604164
307,1.6877350828039610432108390504128
308,1.6883899208760062765648818855231
309,1.6890426363167871439092778043049
310,1.6896932428493884944860051892817
311,1.6903417540642689427097508874810
312,1.6909881834209644567170217577429
313,1.6916325442497643396005153297000
314,1.6922748497533614075998861644536
315,1.6929151130084756848891275736234
316,1.6935533469674529905997684622764
317,1.6941895644598359566823816138983
318,1.6948237781939128278484403524018
319,1.6954560007582411851520853895077
320,1.6960862446231465944671389783885
321,1.6967145221422000987911804065716
322,1.6973408455536706688048500393390
323,1.6979652269819561257227795882398
324,1.6985876784389915135733977162100
325,1.6992082118256366828854403267437
326,1.6998268389330413230052980488125
327,1.7004435714439902637977891629248
328,1.7010584209342262359224813126234
329,1.7016713988737550645411320410607
330,1.7022825166281297281194359581660
331,1.7028917854597147208968112890828
332,1.7034992165289317802449450251735
333,1.7041048208954873574502851775965
334,1.7047086095195800159227663435634
335,1.7053105932630920717428334427714
336,1.7059107828907615345773224503899
337,1.7065091890713372211894609376625
338,1.7071058223787181003741073677471
339,1.7077006932930729338039986332441
340,1.7082938122019463041066480041214
341,1.7088851894013467437284874007604
342,1.7094748350968194617143007458226
343,1.7100627594045033061706658055592
344,1.7106489723521719560989228007418
345,1.7112334838802611619109804909758
346,1.7118163038428795094018670660010
347,1.7123974420088062725163764567775
348,1.7129769080624731666127846627900
349,1.7135547116049335471271101260782
350,1.7141308621548165959576819575898
351,1.7147053691492685831524499243775
352,1.7152782419448808862437628255130
353,1.7158494898186040515879696564834
354,1.7164191219686493121656775353073
355,1.7169871475153779271063621222993
356,1.7175535755021765527056352903606
357,1.7181184148963218839599018845531
358,1.7186816745898338106060615973225
359,1.7192433634003128327915510345146
360,1.7198034900717706742805771740308
361,1.7203620632754458380529923162873
362,1.7209190916106105858829711101125
363,1.7214745836053639374984141367917
364,1.7220285477174157133029169288924
365,1.7225809923348598570157187153497
366,1.7231319257769359158876548408548
367,1.7236813562947815704925149941750
368,1.7242292920721730028119512927657
369,1.7247757412262577351484885728714
370,1.7253207118082756530321427035740
371,1.7258642118042710654190862738004
372,1.7264062491357947586523515571339
373,1.7269468316605960108900811449153
374,1.7274859671733088754716112392501
375,1.7280236634061234247814459243904
376,1.7285599280294534108178343081942
377,1.7290947686525921316669624394076
378,1.7296281928243596712850897387390
379,1.7301602080337433523812385425715
380,1.7306908217105281591557626308118
381,1.7312200412259200053216188246000
382,1.7317478738931589655688809473631
383,1.7322743269681271451244413601047
384,1.7327994076499461510987879887842
385,1.7333231230815677868643177532125
386,1.7338454803503586281079791049924
387,1.7343664864886742298840411302378
388,1.7348861484744269014539630364376
389,1.7354044732316477235870171153571
390,1.7359214676310399974154025120423
391,1.7364371384905244417705927380310
392,1.7369514925757797473645896914140
393,1.7374645366007759612879882380493
394,1.7379762772282992829070135045025
395,1.7384867210704711280172784752170
396,1.7389958746892611121060677233535
397,1.7395037445969935826158705040479
398,1.7400103372568477083274588865498
399,1.7405156590833496916377571102401
400,1.7410197164428614036735512972518
401,1.7415225156540614911448379676632
402,1.7420240629884197001372839143983
403,1.7425243646706672375671222316992
404,1.7430234268792610633714340590504
405,1.7435212557468395788621461158185
406,1.7440178573606758202614015780393
407,1.7445132377631252741212795516133
408,1.7450074029520658178047757665933
409,1.7455003588813326460879592077472
410,1.7459921114611506983444331894392
411,1.7464826665585588463125835206180
412,1.7469720299978294250179054949232
413,1.7474602075608841858923761474035
414,1.7479472049877030959191060409320
415,1.7484330279767302667471225689877
416,1.7489176821852734433924100502340
417,1.7494011732298999009939344692924
418,1.7498835066868259128439739043418
419,1.7503646880923040681865576795621
420,1.7508447229430034216887593589811
421,1.7513236166963864267509504567128
422,1.7518013747710819342406030970050
423,1.7522780025472520927724470729555
424,1.7527535053669567642413762748399
425,1.7532278885345118339502759687558
426,1.7537011573168450221544646432077
427,1.7541733169438466816337216112489
428,1.7546443726087155949610039500047
429,1.7551143294683036838359966105296
430,1.7555831926434524925697916588033
431,1.7560509672193289493548448121819
432,1.7565176582457575548140007937015
433,1.7569832707375443357053207935503
434,1.7574478096748036616982728597040
435,1.7579112800032757488744402566849
436,1.7583736866346427509209091946220
437,1.7588350344468415993636228228684
438,1.7592953282843725748823076566814
439,1.7597545729586042909882584472536
440,1.7602127732480761612544877393698
441,1.7606699338987955099274562780273
442,1.7611260596245328895418907368143
443,1.7615811551071152532095235935511
444,1.7620352249967116009270847656329
445,1.7624882739121204305365783119981
446,1.7629403064410500176609478239086
447,1.7633913271403986937567901717718
448,1.7638413405365283404585881865360
449,1.7642903511255389406913145111704
450,1.7647383633735363389649313108384
451,1.7651853817169007139157928674486
452,1.7656314105625486044151205612767
453,1.7660764542881942322862876731289
454,1.7665205172426065105504867339482
455,1.7669636037458653610425753490952
456,1.7674057180896126383655633475729
457,1.7678468645373023558597483189938
458,1.7682870473244466094515091961667
459,1.7687262706588597132747145495543
460,1.7691645387209001893750741319795
461,1.7696018556637084611901601979634
462,1.7700382256134434638217297913993
463,1.7704736526695167748385304996071
464,1.7709081409048224264808856992447
465,1.7713416943659663679688777402630
466,1.7717743170734927085762323733705
467,1.7722060130221060219507850939319
468,1.7726367861808947272875311908506
469,1.7730666404935480240146623148839
470,1.7734955798785739044978868203673
471,1.7739236082295125118323878736386
472,1.7743507294151491402978334398416
473,1.7747769472797222293408381419728
474,1.7752022656431338550411078409188
475,1.7756266883011516417773814706064
476,1.7760502190256146078595026265034
477,1.7764728615646332780837149669479
478,1.7768946196427887391591792134023
479,1.7773154969613295273491089380247
480,1.7777354971983667428657674146225
481,1.7781546240090659418522289971528
482,1.7785728810258393746940349713744
483,1.7789902718585339506150885789135
484,1.7794068000946177482664606156257
485,1.7798224692993665491398232330356
486,1.7802372830160449785512736428542
487,1.7806512447660891029311357931516
488,1.7810643580492850798574622845307
489,1.7814766263439470888837697545940
490,1.7818880531070924061551835314009
491,1.7822986417746157569622729876360
492,1.7827083957614615342838410419127
493,1.7831173184617938581890394671808
494,1.7835254132491655699989024338812
495,1.7839326834766843535597912049815
496,1.7843391324771792279052624687736
497,1.7847447635633630966791366043043
498,1.7851495800279952994234163424772
499,1.7855535851440416618994303691143
500,1.785956782164834175758964347529
501,1.786359174324226053418470472851
502,1.786760764836749613128196301737
503,1.787161556897768462169221294407
504,1.787561553683631821820329313626
505,1.787960758351823841358664566312
506,1.788359174041113630978215832955
507,1.788756803871703861444822720589
508,1.789153650945377570234402377974
509,1.789549718345641404828994036960
510,1.789945009137871356187612851291
511,1.790339526369454213246023527154
512,1.790733273069928638417073521596
513,1.791126252251124479603763498442
514,1.791518466907300994961872125690
515,1.791909920015284364485018929556
516,1.792300614534602698575851735699
517,1.792690553407619618167624425278
518,1.793079739559668191609771419699
519,1.793468175899182010087509587953
520,1.793855865317826258406272990149
521,1.794242810690625576197485071827
522,1.794629014876092985573317632844
523,1.795014480716356322216320744015
