Eigenstate,Potential Energy
1,0.500000000044434690112350434587287829
2,0.64623093794116116976423233224806740
3,0.73633761055696403955231519909595852
4,0.79966527958883370813512467477669955
5,0.8480465783596481795096514436355051
6,0.8870660016269421188047202463781305
7,0.9197208308302326814813589675816896
8,0.9477838523471820864882295740430811
9,0.9723835651844928637195581480598161
10,0.9942802234910108264183228372717085
11,1.0140093974079672316768419001303712
12,1.0319621822401374433031993444101531
13,1.0484327080534474461758913108150152
14,1.0636476725311438435631159469815401
15,1.0777854567879838510652164267486074
16,1.090988930240683638045854691927455
17,1.103374284069424893681097247967575
18,1.115037282224055873392129508839981
19,1.126057784528070174805925642100198
20,1.136503084312544043113110769245199
21,1.146430414497834200623645216523897
22,1.155888858752318477432488042737535
23,1.164920829428920851112133681064614
24,1.173563224965533906634482332907084
25,1.181848346680945466162551326596755
26,1.189804632582426530610374941008394
27,1.197457250328307270057576175692853
28,1.204828580587016988494658508855942
29,1.211938614239036165137306395719490
30,1.218805281218721104025371658064608
31,1.225444724647023222667868716391133
32,1.231871530828225425140065350136440
33,1.238098923374170200454635701864162
34,1.244138927968907820547065346104379
35,1.250002512947497946284833090884630
36,1.255699709829219071197487822647510
37,1.261239717141355683993198764218000
38,1.266630990239314287704058879824548
39,1.271881319330970763724986804856646
40,1.276997897517330785422296787757773
41,1.281987380344834712234670303955749
42,1.286855938109645793659971031313096
43,1.291609301947774167587176766523195
44,1.296252804576795121915368313258685
45,1.300791416417350519394997110577734
46,1.305229777709486003026134317369534
47,1.309572227145399987011705738793149
48,1.313822827462594074011883266239008
49,1.317985388376751995546451494763947
50,1.32206348717955145873660642088255
51,1.32606048728114632010358353506234
52,1.32997955493871129284080019681800
53,1.33382367437999127542920033412869
54,1.33759566150323625800861102768718
55,1.34129817631142727040539924447939
56,1.34493373421862426559107323080045
57,1.34850471634906786722703185967686
58,1.35201337893486972365948786727098
59,1.35546186190537226345303194054520
60,1.35885219675023413984897088602361
61,1.36218631372873342402973542195569
62,1.36546604848947960195711187404347
63,1.36869314815748354053128021705882
64,1.37186927693922210889549916129670
65,1.37499602129079930073837775333225
66,1.37807489468945836439149017690899
67,1.38110734204443715619415195894548
68,1.38409474377940277178863527430148
69,1.38703841961538883928223322595312
70,1.38993963208023058994834840288343
71,1.39279958976789411840786950499038
72,1.39561945036879800185186019639905
73,1.39840032349017244146335429262646
74,1.40114327328368224064297451057388
75,1.40384932089590883354018968501454
76,1.40651944675583702063655859125945
77,1.40915459271218966970928139265205
78,1.41175566403228784232304138335498
79,1.41432353127306698600586295636903
80,1.41685903203394170662009015884257
81,1.41936297260036229396313663829229
82,1.42183612948614472307887490457349
83,1.42427925088196711997094141151082
84,1.42669305801680138869302711884567
85,1.42907824643848942061749198424899
86,1.43143548721915744129423267702395
87,1.43376542809070457951193746905842
88,1.43606869451517836543802506612343
89,1.43834589069446636255204537964425
90,1.44059760052338992135805029136260
91,1.44282438848996459081075137963956
92,1.44502680052630342585100991943043
93,1.44720536481337717439068951713421
94,1.44936059254260239834870853610107
95,1.45149297863700742931113448346998
96,1.45360300243452423727163412275599
97,1.45569112833576994879920944912445
98,1.45775780641850887668507564014589
99,1.45980347302083245093181575426226
100,1.46182855129494810053150847270072
101,1.46383345173333883132529095752018
102,1.46581857266892967051565506782039
103,1.46778430075078923478978460304045
104,1.46973101139678741430217156256557
105,1.47165906922453709100739457882559
106,1.47356882846185704559060593761094
107,1.47546063333791512528771015085742
108,1.47733481845613150533281163436102
109,1.47919170914985328323651920784932
110,1.48103162182174922497341179144034
111,1.48285486426780762095868153731411
112,1.48466173598677077606037783719071
113,1.48645252847578412209962552625740
114,1.48822752551298918353497123622096
115,1.48998700342774917852426028445569
116,1.49173123135914770590946026577054
117,1.49346047150336925566296004013563
118,1.49517497935052924922831491406626
119,1.49687500391148760247223374426422
120,1.49856078793515396172963515514835
121,1.50023256811675449617916684971861
122,1.50189057529751121665413947871343
123,1.50353503465615259806166554981772
124,1.50516616589265660277411607685018
125,1.50678418340459763609409737882403
126,1.50838929645645376759645669681180
127,1.50998170934220997426447947725169
128,1.51156162154157057414770505495505
129,1.51312922787008194603049045557851
130,1.51468471862344824873335791614202
131,1.51622827971630744955106287657364
132,1.51776009281571999413072582815507
133,1.51928033546961066850890926483474
134,1.52078918123039292806844372287602
135,1.52228679977398685983278271617004
136,1.52377335701443825698540634542919
137,1.52524901521433297655859354697954
138,1.52671393309118713924476484293107
139,1.52816826591999162437859467911088
140,1.52961216563207386716927516059159
141,1.53104578091043540777284924335002
142,1.53246925728171556852724433265400
143,1.53388273720492298550342889703253
144,1.53528636015706954088918501018770
145,1.53668026271583705496286101783380
146,1.53806457863939922766366502261347
147,1.53943943894351311679905236094602
148,1.54080497197599548189634271179861
149,1.54216130348868579463173076851960
150,1.54350855670699955669224873536573
151,1.54484685239716783930312350649200
152,1.54617630893125334356769839740265
153,1.54749704235003193129090549318895
154,1.54880916642382352550505628451233
155,1.55011279271135061666719662810193
156,1.55140803061670224086719345728558
157,1.55269498744447447662537950411248
158,1.55397376845315927835667658664064
159,1.5552444769068453193097785915530
160,1.5565072141252971814945317817512
161,1.5577620795324713886916088340670
162,1.5590091707035287436195321137254
163,1.5602485834103978225313836579208
164,1.5614804116659442638100485261814
165,1.5627047477667944507528556679300
166,1.5639216823348641041078661981151
167,1.5651313043576390166548783381530
168,1.5663337012272506187182735741535
169,1.5675289587783914366757328017239
170,1.5687171613251101875524336992416
171,1.5698983916965267041349044559538
172,1.5710727312715045572363571541169
173,1.5722402600123167774179091927327
174,1.5734010564973405196534146743135
175,1.5745551979528146558448020315048
176,1.5757027602836900015144547108738
177,1.5768438181036054371859340639038
178,1.5779784447640190788231764366174
179,1.5791067123825209422477656449606
180,1.5802286918703580479071706630896
181,1.5813444529591946145540096182051
182,1.5824540642271350371955132471342
183,1.5835575931240326985612952855980
184,1.5846551059961088555991124616058
185,1.5857466681099034090961987392709
186,1.5868323436755785250188902650908
187,1.5879121958695989080422486266799
188,1.5889862868568041635574692571277
189,1.5900546778118969792186290043873
190,1.5911174289403627770770545117962
191,1.5921745994988400588251954790856
192,1.5932262478149578263228977875702
193,1.5942724313066583812229364654157
194,1.5953132065010188444471104277459
195,1.5963486290525893278393803272279
196,1.5973787537612614498638055498766
197,1.5984036345896815706350680058659
198,1.5994233246802229082277250448031
199,1.6004378763715293700845508113204
200,1.6014473412146450396899191499205
201,1.6024517699887402948918733145824
202,1.6034512127164479339897767124004
203,1.6044457186788199642740864942691
204,1.6054353364299166678854433968476
205,1.6064201138110379103100396036618
206,1.6074000979646097102138034746691
207,1.6083753353477319412460303360048
208,1.6093458717454013872226738545841
209,1.6103117522834158935223814986509
210,1.6112730214409711102999140576108
211,1.6122297230629571864788428740234
212,1.6131819003719656416516304269179
213,1.6141295959800107937805570223492
214,1.6150728518999807183890351893495
215,1.6160117095568169454738250653076
216,1.6169462097984368485947638220354
217,1.6178763929064026851833319402632
218,1.6188022986063462605190885329034
219,1.6197239660781524883094588046762
220,1.6206414339659143559989400061874
221,1.6215547403876571970976599521334
222,1.6224639229448494678927925539221
223,1.6233690187316935893736803424969
224,1.6242700643442119136676348128850
225,1.6251670958891303715279971166045
226,1.6260601489925633388139906801584
227,1.6269492588085083648081795046449
228,1.6278344600271525725694934315486
229,1.6287157868829978834644444844229
230,1.6295932731628097521116403608391
231,1.6304669522133912010017193627934
232,1.6313368569491925637041265654513
233,1.6322030198597519221563838005691
234,1.6330654730169823840928384384045
235,1.6339242480822993717037422325834
236,1.6347793763135976202839235085993
237,1.6356308885720815069885418453412
238,1.6364788153289504406976892568077
239,1.6373231866719447485595512967333
240,1.6381640323117542126193978350029
241,1.6390013815882935378718816092547
242,1.6398352634768476076757778958959
243,1.6406657065940905572933938039348
244,1.6414927392039803537788114411599
245,1.6423163892235332553139734947419
246,1.6431366842284806685487247986013
247,1.6439536514588097857173302905015
248,1.6447673178241955820742905525893
249,1.6455777099093191421521398486914
250,1.6463848539790826989502455457408
251,1.6471887759837192854689056994339
252,1.6479895015637997964918176648761
253,1.6487870560551425322227727714000
254,1.6495814644936248800370840267244
255,1.6503727516199010137798960997149
256,1.6511609418840256953819001326650
257,1.6519460594499905695396596194299
258,1.6527281282001693955230061718252
259,1.6535071717396790189634811964388
260,1.6542832134006564693320629549121
261,1.6550562762464524961668799260740
262,1.6558263830757462687870179586265
263,1.6565935564265800893829551055315
264,1.6573578185803195696457906611233
265,1.6581191915655377954720895726984
266,1.6588776971618256467851991659411
267,1.6596333569035314850148300250813
268,1.6603861920834302412430341148442
269,1.6611362237563261742249842093950
270,1.6618834727425850217183748329764
271,1.6626279596316048283673611258214
272,1.6633697047852194289947962973264
273,1.6641087283410420297066457696654
274,1.6648450502157460951157417231334
275,1.6655786901082874165539663272985
276,1.6663096675030656389150208121236
277,1.6670380016730327294316056509788
278,1.6677637116827401423239883528071
279,1.6684868163913361817789530522352
280,1.6692073344555056561187560589054
281,1.6699252843323597119775895153511
282,1.6706406842822733447476015414975
283,1.6713535523716737977359115061016
284,1.6720639064757770065619858019542
285,1.6727717642812788960513728968390
286,1.6734771432889975543651688942471
287,1.6741800608164713436524824286923
288,1.6748805340005093489963479921301
289,1.6755785797996988137133097548488
290,1.6762742149968702935296080124550
291,1.6769674562015183705698907267064
292,1.6776583198521808120614021960373
293,1.6783468222187800795240026271148
294,1.6790329794049222253578869372590
295,1.6797168073501552639691877475378
296,1.6803983218321946029916910567954
297,1.6810775384691054663257878290124
298,1.6817544727214516257429328446205
299,1.6824291398944072439090495058157
300,1.6831015551398335794271040194789
301,1.6837717334583209653323109340052
302,1.6844396897011981539677130880239
303,1.6851054385725062013653447773439
304,1.6857689946309404686573413241654
305,1.6864303722917621690404845333589
306,1.6870895858286787235095831398671
307,1.6877466493756901073298953676981
308,1.6884015769289086656940394570706
309,1.6890543823483484878457136151183
310,1.6897050793596846748340466848942
311,1.6903536815559860958186940661875
312,1.6910002023994191460765860145473
313,1.6916446552229238994765142483775
314,1.6922870532318644597142714584805
315,1.6929274095056528299696479508929
316,1.6935657369993476766466665673882
317,1.6942020485452255258207813094190
318,1.6948363568543297436583681660324
319,1.6954686745179944423898901567517
320,1.6960990140093433131154677730576
321,1.6967273876847673043976398243338
322,1.6973538077853772610934581984991
323,1.6979782864384350374855316926866
324,1.6986008356587620618743691247058
325,1.6992214673501271146334797089823
326,1.6998401933066115569774378276861
327,1.7004570252139548312193065167883
328,1.7010719746508774217365916759311
329,1.7016850530903862515261099909337
330,1.7022962719010589460382880275034
331,1.7029056423483084028903109113677
332,1.7035131755956287287068170911157
333,1.7041188827058229216503091070952
334,1.7047227746422104836714922016410
335,1.7053248622698192774196092503896
336,1.7059251563565576858727979525253
337,1.7065236675743699469418042987300
338,1.7071204065003757219082036546279
339,1.7077153836179899622123426741054
340,1.7083086093180291659415156999439
341,1.7089000938997997376051759457811
342,1.7094898475721709483569601704767
343,1.7100778804546321344631705866273
344,1.7106642025783341277357514768710
345,1.7112488238871167372757710755789
346,1.7118317542385197573337052176478
347,1.7124130034047810666580427069435
348,1.7129925810738186310685915043914
349,1.7135704968501999541926717066967
350,1.7141467602560965187191339948570
351,1.7147213807322253057876237494264
352,1.7152943676387770748939747719850
353,1.7158657302563306887056526798744
354,1.7164354777867548972805136075052
355,1.7170036193540979469890851629545
356,1.7175701640054632239476768943991
357,1.7181351207118741710260653505355
358,1.7186984983691277224549977787014
359,1.7192603057986320012005841787419
360,1.7198205517482372170508653309201
361,1.7203792448930515103117799306612
362,1.7209363938362482227422459368775
363,1.7214920071098591913705009887262
364,1.7220460931755590892168877120670
365,1.7225986604254390493222696822420
366,1.7231497171827684497838700119644
367,1.7236992717027477518424291320185
368,1.7242473321732491797853350933508
369,1.7247939067155498752454760015832
370,1.7253390033850532391083700513612
371,1.7258826301720013143739461145366
372,1.7264247950021771664910533145667
373,1.7269655057375972279190942929352
374,1.7275047701771979154367208883553
375,1.7280425960575072118085980013090
376,1.7285789910533126680676140917217
377,1.7291139627783176156663172098220
378,1.7296475187857887559520563900067
379,1.7301796665691969668123962162256
380,1.7307104135628480833005988368675
381,1.7312397671425065277234213515783
382,1.7317677346260089074073438833091
383,1.7322943232738722548531915679544
384,1.7328195402898918740276214624154
385,1.7333433928217324140963964967532
386,1.7338658879615128292998811144021
387,1.7343870327463809743588600734598
388,1.7349068341590817722589470572479
389,1.7354252991285196291484030165654
390,1.7359424345303122855086698534962
391,1.7364582471873364205869637261280
392,1.7369727438702686185215016101562
393,1.7374859312981191696969358236242
394,1.7379978161387572884797087645644
395,1.7385084050094306042603907833150
396,1.7390177044772785767238515808636
397,1.7395257210598394653109685744923
398,1.7400324612255508610622836550296
399,1.7405379313942423466916652904481
400,1.7410421379376245849054205915149
401,1.7415450871797708839457367529592
402,1.7420467853975919856354319998041
403,1.7425472388213068967238300551198
404,1.7430464536349076566868091856292
405,1.7435444359766155074894847810364
406,1.7440411919393345744104758920855
407,1.7445367275711001747141825790814
408,1.7450310488755192574319949125824
409,1.7455241618122058353976919748274
410,1.7460160722972139240860122941727
411,1.7465067862034622473425955687574
412,1.7469963093611542926680955040394
413,1.7474846475581947951886209464770
414,1.7479718065405990742352586728508
415,1.7484577920128995065712606432395
416,1.7489426096385455659776311391322
417,1.7494262650403002777656730954474
418,1.7499087638006302515323466797900
419,1.7503901114620935707554911627280
420,1.7508703135277205212348553551575
421,1.7513493754613911106480303643300
422,1.7518273026882086609137237284556
423,1.7523041005948673095919304411414
424,1.7527797745300170341366030001484
425,1.7532543298046225784537009336118
426,1.7537277716923198887006464423501
427,1.7542001054297675430520307017146
428,1.7546713362169931892187713399954
429,1.7551414692177389022056696266041
430,1.7556105095597983245171929129611
431,1.7560784623353530925657436170901
432,1.7565453326013056989037204865148
433,1.7570111253796041282813126032715
434,1.7574758456575693655763577068425
435,1.7579394983882135993797071313479
436,1.7584020884905570223385200100014
437,1.7588636208499413897409384119660
438,1.7593241003183393185217881002072
439,1.7597835317146600081116849544720
440,1.7602419198250524544614405304591
441,1.7606992694032033172178889587071
442,1.7611555851706330038194308849522
443,1.7616108718169896183339854644020
444,1.7620651340003353945372112129497
445,1.7625183763474349440207108586832
446,1.7629706034540363438111114119462
447,1.7634218198851522328044732877838
448,1.7638720301753341353543199458911
449,1.7643212388289478526563427404623
450,1.7647694503204420745148786424152
451,1.7652166690946177147294214408236
452,1.7656628995668908115959092703853
453,1.7661081461235547367463710727500
454,1.7665524131220381014267058620394
455,1.7669957048911619842416033875927
456,1.7674380257313917775247667866043
457,1.7678793799150883481999521885534
458,1.7683197716867549091981405486892
459,1.7687592052632821155190985386797
460,1.7691976848341910274548642514159
461,1.7696352145618717908705205451847
462,1.7700717985818212477723573965913
463,1.7705074410028780811147877601949
464,1.7709421459074536549353954492722
465,1.7713759173517625187426175055753
466,1.7718087593660497070437635019609
467,1.7722406759548141147256063702050
468,1.7726716710970329641266463353575
469,1.7731017487463798407025227047720
470,1.7735309128314438220302320630042
471,1.7739591672559439674718643055367
472,1.7743865158989434663222573134855
473,1.7748129626150587955645812155996
474,1.7752385112346713914503644344682
475,1.7756631655641307578877957981136
476,1.7760869293859615256757117900828
477,1.7765098064590647958177154615830
478,1.7769318005189184431463446773057
479,1.7773529152777752698868429897120
480,1.7777731544248594039947151252129
481,1.7781925216265594933961468633264
482,1.7786110205266222651794955425485
483,1.7790286547463418300022164659236
484,1.7794454278847475517358408791201
485,1.7798613435187919595042281508252
486,1.7802764052035332871872178522298
487,1.7806906164723194894604575344814
488,1.7811039808369683311482028008895
489,1.7815165017879467782883933536694
490,1.7819281827945475542574185642008
491,1.7823390273050649954622052757080
492,1.7827490387469687950220497753124
493,1.7831582205270756096834081335667
494,1.7835665760317196242493959803381
495,1.7839741086269202662672010481080
496,1.7843808216585503156464961341638
497,1.7847867184525000949865781089124
498,1.7851918023148416861285036533041
499,1.7855960765319906705234415118808
500,1.785999544370867524160362524453
501,1.786402209079054413347563437255
502,1.786804073884954846784021198149
503,1.787205141997947652310405177662
504,1.787605416608543122445065479785
505,1.788004900888534176446232354802
506,1.788403597991148269264072900965
507,1.788801511051197895695885052245
508,1.789198643185229329996645840833
509,1.789594997491667832130071006288
510,1.789990577050965374201735825722
511,1.790385384925744118465126585623
512,1.790779424160939547414284290260
513,1.791172697783941862034211162977
514,1.791565208804736325013813191166
515,1.791956960216042923573142265080
516,1.792347954993453562660666278457
517,1.792738196095567863688916827763
518,1.793127686464129354638309648944
519,1.793516429024158833929782371045
520,1.793904426684087765536299393463
521,1.794291682335888501050308339057
522,1.794678198855205605399086991594
523,1.795063979101484723881784974607
