Eigenstate,Potential Energy
1,0.500000003305605044988983686798866523
2,0.64623095922991454366857267791667787
3,0.73633767309795176030227599601996861
4,0.79966540987452904528899689003743862
5,0.8480468040852028883493615793654713
6,0.8870663510001785362031224381964826
7,0.9197213323220449436525761258041065
8,0.9477845345917441814190733399008502
9,0.9723844569368248436933561699199375
10,0.9942813536091191882991184822418252
11,1.0140107948465782807426146991971235
12,1.0319638760503638298011698422510952
13,1.0484347273857111830232761148883865
14,1.0636500466400006561972044540621351
15,1.0777882150381224900367460670919421
16,1.090992102113691807713875125737124
17,1.103377899171083001398808173480631
18,1.115041370292014436067469287531623
19,1.126062375439821704924655204799710
20,1.136508208093633344882388263236504
21,1.146436101330271590935682208740832
22,1.155895138983173621535939024800473
23,1.164927733579083565761565452614487
24,1.173570783738634125683033945123935
25,1.181856590972428601011149824764440
26,1.189813593488783316412986140518988
27,1.197466959156459262610772719923969
28,1.204839068863860420316109800594723
29,1.211949913721148049149798609799902
30,1.218817423902232401022713257528158
31,1.225457742777664640193607299133021
32,1.231885456911552042964245938932481
33,1.238113790185971658284269865479053
34,1.244154768565811283141912244064882
35,1.250019360677771498737920925726489
36,1.255717598343783606661543225159682
37,1.261258680405013737978758602972036
38,1.266651062542204655078731590891757
39,1.271902535300258112778224790887458
40,1.277020292129139862575443751681926
41,1.282010988936439115006801770654049
42,1.286880796391921681487633992435910
43,1.291635446017929682684072242284036
44,1.296280270931386707838893626227154
45,1.300820241965597755382843394608801
46,1.305259999786897019343983319641338
47,1.309603883527719992213949975514258
48,1.313855956380090010835338456954386
49,1.318020028528846849711237807730791
50,1.32209967774982227582738100752936
51,1.32609826795270054153760467814462
52,1.33001896590995660431753718980081
53,1.33386475638081477187228359775143
54,1.33763845581160936957529374875716
55,1.34134272477045356645381940981239
56,1.34498007925404795943384270044801
57,1.34855290098726158601552274397590
58,1.35206344682132088696992507252096
59,1.35551385732368823319311330451788
60,1.35890616464168716536100302340186
61,1.36224229971236731216596537652388
62,1.36552409888280099504641602619731
63,1.36875330999776168832226143902477
64,1.37193159800542207669620250544396
65,1.37506055012617466822592162501348
66,1.37814168062483064124429520146975
67,1.38117643522219037539759624383263
68,1.38416619517822302296518277065890
69,1.38711228107577987676817682424525
70,1.39001595633083809785571334963199
71,1.39287843045267274229317381761166
72,1.39570086207505686868742851912120
73,1.39848436177753659176906631755403
74,1.40122999471400919444477421104517
75,1.40393878306420141142307959399718
76,1.40661170832219554893873975224979
77,1.40924971343484882192469327415423
78,1.41185370480178561438748141434296
79,1.41442455414759567941144548495469
80,1.41696310027593330875328321718628
81,1.41947015071436330897090787993065
82,1.42194648325803832877006999842004
83,1.42439284741960351745288947994666
84,1.42680996579210038304163663125011
85,1.42919853533108263522902501228213
86,1.43155922856164113888873046546091
87,1.43389269471557785342915100887133
88,1.43619956080354549119931047978631
89,1.43848043262658637833141424391893
90,1.44073589573116105496537768811942
91,1.44296651631143598937032292819057
92,1.44517284206231179351150526757155
93,1.44735540298641140577623797542501
94,1.44951471215800513554183381984224
95,1.45165126644662869445758203750013
96,1.45376554720294893012287451537243
97,1.45585802090924807987982048352673
98,1.45792913979672496594736297860134
99,1.45997934243165859556110196602797
100,1.46200905427233384371101897694712
101,1.46401868819850018962841456867899
102,1.46600864501500954831665764741667
103,1.46797931393117202088250877301802
104,1.46993107301726187478184442096816
105,1.47186428963951380423121412083981
106,1.47377932087485963632838904387399
107,1.47567651390657851846618211737707
108,1.47755620640195541457158722985763
109,1.47941872687297526238819890565132
110,1.48126439502101893722690773508344
111,1.48309352206646262387207128034255
112,1.48490641106403419625282291456938
113,1.48670335720472622586347220751060
114,1.48848464810501817668862635426474
115,1.49025056408412174220675498856191
116,1.49200137842991696112316658782362
117,1.49373735765421723200496479471370
118,1.49545876173796271487321506242342
119,1.49716584436691051662219758052669
120,1.49885885315836708453298277945702
121,1.50053802987947310774916021439273
122,1.50220361065753575898693491842952
123,1.50385582618287469677549119655074
124,1.50549490190463472205088231657151
125,1.50712105821999298362549854214309
126,1.50873451065717845692806556604587
127,1.51033547005270638220677535931086
128,1.51192414272321387220653328167023
129,1.51350073063227757522927858510438
130,1.51506543155258335982000740961080
131,1.51661843922381084379531147812850
132,1.51815994350658976826463578199219
133,1.51969013053288359519964937098338
134,1.52120918285315571908703791230839
135,1.52271727958066813322571605784383
136,1.52421459653327269380692831559329
137,1.52570130637305742351713622834165
138,1.52717757874421411858853872539719
139,1.52864358040951092096266318116197
140,1.53009947538575992264973607550141
141,1.53154542507868983009892252008179
142,1.53298158841765319757112923845574
143,1.53440812199062010323081686818920
144,1.53582518017993793093269919166488
145,1.53723291529937222532323102631289
146,1.53863147773298039915210894664696
147,1.54002101607641250751880606598957
148,1.54140167728129184468893056222882
149,1.54277360680338000369142965135614
150,1.54413694875530744002901473610114
151,1.54549184606472801640615384341465
152,1.54683844063884786247057369890322
153,1.54817687353638933771544058856652
154,1.54950728514817436186603856312709
155,1.55082981538765380519646930529226
156,1.55214460389288030214831012376229
157,1.55345179024161306359127750659803
158,1.55475151418147390188464212499675
159,1.5560439158773330616128608278847
160,1.5573291361784183159740711235280
161,1.5586073169079983224415946196290
162,1.5598786011789210602702715360053
163,1.5611431337387884878941584492369
164,1.5624010613491447044104244382901
165,1.5636525332037555529056778068339
166,1.5648977013918998279458522258697
167,1.5661367214135917452515436877025
168,1.5673697527548509219362190728552
169,1.5685969595325828307168109146903
170,1.5698185112203712505105379077287
171,1.5710345834685991985772813907762
172,1.5722453590348878689645789171296
173,1.5734510288439919760277230080467
174,1.5746517932001654002761297042059
175,1.5758478631797987275859541956219
176,1.5770394622380779679042571873463
177,1.5782268280708560629637107218331
178,1.5794102147822776644056521149312
179,1.5805898954205295617199643395282
180,1.5817661649591691476094806888359
181,1.5829393438208159425609117231203
182,1.5841097820649973758559218218376
183,1.5852778643945134923887371233021
184,1.5864440161775022829761987956849
185,1.5876087107391715381555188310422
186,1.5887724782532174844886538744768
187,1.5899359166658878170126872166088
188,1.5910997052265303115501915090756
189,1.5922646213936803901122845038800
190,1.5934315621597641749808212976488
191,1.5946015712277165025021320604145
192,1.5957758740371867122622596658607
193,1.5969559234682636713217950738509
194,1.5981434602950675313069085937024
195,1.5993405943655981326683038723805
196,1.6005499154649364396553631242226
197,1.6017746476058266596789643426451
198,1.6030188684022510762084534722301
199,1.6042878286897015856327805258976
200,1.6055884314926577257062217170058
201,1.6069299737165923768135024024087
202,1.6083253400551514529335437964394
203,1.6097930163486376929269153984622
204,1.6113606838300463455053295663236
205,1.6130721110110506928364028325612
206,1.6150016514366688248617512342268
207,1.6172888170791156356836275243549
208,1.6202370975714677076897887757739
209,1.6246916431178947523299394245594
210,1.6346160969014110297188875446726
