Eigenstate,Potential Energy
1,0.500000000014640690604711805990409007
2,0.64623093774668139629947633152287497
3,0.73633760998569507170443088295487981
4,0.79966527839894474783096722397117367
5,0.8480465762985149521163483143194919
6,0.8870659984375178259593716807912561
7,0.9197208262533956092446882061652788
8,0.9477838461227148487270073296165479
9,0.9723835570515379291795661666304396
10,0.9942802131883018827887489429913880
11,1.0140093846739550239261420917429519
12,1.0319621668130618376787016580818904
13,1.0484326896713802192220675567180953
14,1.0636476509320146233050294136363137
15,1.0777854317095958941662150214897011
16,1.090988901420723222366464898235041
17,1.103374251245466557665089757999173
18,1.115037245133564870144886055660954
19,1.126057742908403007398613885987120
20,1.136503037900947646209459491444477
21,1.146430363031444146556404662067380
22,1.155888801968156465626588103590766
23,1.164920767063891661805492693932596
24,1.173563156756421947736620983858058
25,1.181848272364411006538958793223116
26,1.189804551895001688374223349196022
27,1.197457163006391806989837510440358
28,1.204828486366873949182314825415211
29,1.211938512856787390297337087224042
30,1.218805172410342640754711004144155
31,1.225444608148340649337693472206579
32,1.231871406374909104861984524570390
33,1.238098790701730474154842131246118
34,1.244138786812690148457504248205181
35,1.250002363042678004929555781083539
36,1.255699550910797811595703842207233
37,1.261239548944154355728583187440733
38,1.266630812497969432656635629022514
39,1.271881131779929182577922552369005
40,1.276997699890844479503898081809476
41,1.281987172376955802807686976115050
42,1.286855719534221420404087678630073
43,1.291609072498441367719734424199327
44,1.296252563986975691146894638110785
45,1.300791164420245855709841486726169
46,1.305229514038071934106370169625248
47,1.309571951532421581978262918941561
48,1.313822539640560440035388490821050
49,1.317985088077931059777592397293140
50,1.32206317413596473591866912197033
51,1.32606016122456366615544885409459
52,1.32997921560064564463511646887452
53,1.33382332149169337693584147762138
54,1.33759529479568937292640021759294
55,1.34129779551534188136436050701306
56,1.34493333906443275997209909311185
57,1.34850430656691920961507730825440
58,1.35201295425462411491938895229584
59,1.35546142205659578639353962657179
60,1.35885174146219339141974394857067
61,1.36218584273039013397773608153754
62,1.36546556150948523785255308489604
63,1.36869264492417389905889743988396
64,1.37186875718061189329406382559652
65,1.37499548473457668425981611730612
66,1.37807434106297953964067510330106
67,1.38110677107472087020117526196002
68,1.38409415519312484665694476779974
69,1.38703781313887667824835105349156
70,1.38993900743945766868214625845158
71,1.39279894668847446137580994058688
72,1.39561878857598064356008027893595
73,1.39839964270883587239194387844438
74,1.40114257323832883767802565490007
75,1.40384860131065927470554828929607
76,1.40651870735442468392308473660082
77,1.40915383321795501579540895639708
78,1.41175488416817278097676016566703
79,1.41432273076160922595473221225577
80,1.41685821059726908867273059484517
81,1.41936212996018710716240371869888
82,1.42183526536375800366405759704786
83,1.42427836499823293292350981251134
84,1.42669215009215109163773155183650
85,1.42907731619291590984803177046125
86,1.43143453437220937969028809327004
87,1.43376445236148060611185009732111
88,1.43606769562232128642912741222423
89,1.43834486835615732343839701282338
90,1.44059655445734256006309283552290
91,1.44282331841341917147019766928936
92,1.44502570615602095304923544991578
93,1.44720424586563348759175230795179
94,1.44935944873318224627108434650759
95,1.45149180968119852399320889757058
96,1.45360180804711128757307925909632
97,1.45568990823102867308120379546683
98,1.45775656031019999441059822818551
99,1.45980220062219565292503609177374
100,1.46182725231869599763354241417447
101,1.46383212589165088118154021610534
102,1.46581721967344608222802152995862
103,1.46778292031260485116522154992571
104,1.46972960322644557142685737983840
105,1.47165763303202345487412750074623
106,1.47356736395659342550492433798617
107,1.47545914022875326377632359939829
108,1.47733329645134684427602072393558
109,1.47919015795713870594421339410520
110,1.48103004114820877392240531892201
111,1.48285325381995019090704136343394
112,1.48466009547050378225244041351067
113,1.48645085759640714327341630311408
114,1.48822582397518757944161859987491
115,1.48998527093558768166706949442442
116,1.49172946761606398720815675805626
117,1.49345867621216746374656198173618
118,1.49517315221337352305803883960571
119,1.49687314462989555699367734166248
120,1.49855889620999014625127444609843
121,1.50023064364822382517223661504017
122,1.50188861778515237266663182124692
123,1.50353304379883140643701997012590
124,1.50516414138855937786302308301095
125,1.50678212495122449864550119406363
126,1.50838720375061193301162493539958
127,1.50997958208000701139575012306206
128,1.51155945941840763432110053779120
129,1.51312703058064696196917131664106
130,1.51468248586170910305648499634771
131,1.51622601117550511252026745871593
132,1.51775778818836163031377896647259
133,1.51927799444746271202817109970957
134,1.52078680350447412609873924494596
135,1.52228438503456128401107346876281
136,1.52377090495100828239222749174712
137,1.52524652551563222792835434948573
138,1.52671140544517340405976816523054
139,1.52816570001383973249869987120922
140,1.52960956115216853664676900372027
141,1.53104313754236405649927140103907
142,1.53246657471026109135620902908167
143,1.53388001511405649649082153324047
144,1.53528359822994308028925423164039
145,1.53667746063477626061605611147002
146,1.53806173608589597040913392713037
147,1.53943655559821809954185471544634
148,1.54080204751871080195667444139383
149,1.54215833759835746900029903010164
150,1.54350554906171000981330480764054
151,1.54484380267412835300324588128895
152,1.54617321680679646874573430251332
153,1.54749390749960386098123179117722
154,1.54880598852197642892338036690890
155,1.55010957143173493384479596839229
156,1.55140476563205893747630415432931
157,1.55269167842662725859549814619906
158,1.55397041507300676587802438235684
159,1.5552410788343531798170160962922
160,1.5565037710294902212203930904334
161,1.5577585910814256023769297422281
162,1.5590056365643633219624433659418
163,1.5602450032492671169554632443398
164,1.5614767851480297081272172547251
165,1.5627010745562964392935879073740
166,1.5639179620949938258877239821693
167,1.5651275367506102451426827953863
168,1.5663298859142714567675046046880
169,1.5675250954196560161772977387109
170,1.5687132495797903233628759276015
171,1.5698944312227635018306808525379
172,1.5710687217263999742407430394400
173,1.5722362010519251370433255368032
174,1.5733969477766599775980859560786
175,1.5745510391257786186785651037967
176,1.5756985510031584966846468305573
177,1.5768395580213564340702244557882
178,1.5779741335307397603520369517718
179,1.5791023496477989266151979494944
180,1.5802242772826725598840565077614
181,1.5813399861659076059141848245952
182,1.5824495448744822557605103600854
183,1.5835530208571147053651113619340
184,1.5846504804588819896702408354931
185,1.5857419889451706993493205454064
186,1.5868276105249805487446634392272
187,1.5879074083736045954785044162267
188,1.5889814446547015480209624046383
189,1.5900497805417838922715380390661
190,1.5911124762391374881977691881585
191,1.5921695910021918590483395726073
192,1.5932211831573575553084201891678
193,1.5942673101213488972094056444901
194,1.5953080284200054365392545261507
195,1.5963433937066300700751553364639
196,1.5973734607798574965008856801932
197,1.5983982836010673920917967873095
198,1.5994179153113564671082191116040
199,1.6004324082480822367124470538679
200,1.6014418139609924465699438012104
201,1.6024461832279511295132162861328
202,1.6034455660702746693793140004508
203,1.6044400117676885267026391977019
204,1.6054295688729162411242005166001
205,1.6064142852259106758289783546799
206,1.6073942079677405227079362409157
207,1.6083693835541379388697832316012
208,1.6093398577687215359067612102419
209,1.6103056757359004647416081789376
210,1.6112668819334710916544054550321
211,1.6122235202049136244452741642656
212,1.6131756337713989158546417598339
213,1.6141232652435098221285682060501
214,1.6150664566326920924123129944218
215,1.6160052493624339951963667078878
216,1.6169396842791886362650353184183
217,1.6178698016630429271825621105323
218,1.6187956412381421767592826670460
219,1.6197172421828735784261775112622
220,1.6206346431398211016380157469964
221,1.6215478822254896895871641253874
222,1.6224569970398159605856947473379
223,1.6233620246754589739389769856084
224,1.6242630017268861196009248099602
225,1.6251599642992566881451914990784
226,1.6260529480171066589849306668632
227,1.6269419880328433496791795504692
228,1.6278271190350517365168071147656
229,1.6287083752566195985128552057593
230,1.6295857904826861710451433400890
231,1.6304593980584160983851037812358
232,1.6313292308966090940268935434054
233,1.6321953214851402943024602814039
234,1.6330577018942474513315054706699
235,1.6339164037836581363892147775844
236,1.6347714584095666524427872823806
237,1.6356228966314642759661261264334
238,1.6364707489188245590258908261710
239,1.6373150453576491272005350514151
240,1.6381558156568761267304678947601
241,1.6389930891546556022285815121153
242,1.6398268948244946608816460331916
243,1.6406572612812764538953237677125
244,1.6414842167871546633984869940107
245,1.6423077892573278678966899738632
246,1.6431280062656963048211399959922
247,1.6439448950504024119373420389454
248,1.6447584825192627281459051170612
249,1.6455687952550861221692610708471
250,1.6463758595208887332230806840036
251,1.6471797012650035230773249552681
252,1.6479803461260872373998674123057
253,1.6487778194380298479787335220768
254,1.6495721462347661320728949551715
255,1.6503633512549932683139700666798
256,1.6511514589467945339183311260702
257,1.6519364934721754939468849083535
258,1.6527184787115091266639819384017
259,1.6534974382678966878387276514743
260,1.6542733954714446996857548494842
261,1.6550463733834583774953409464140
262,1.6558163948005562186775700900876
263,1.6565834822587046040998999332027
264,1.6573476580371778618686858038783
265,1.6581089441624423180795415661744
266,1.6588673624119665015662280733286
267,1.6596229343179607151773374699204
268,1.6603756811710460065769655369660
269,1.6611256240238568077656727215189
270,1.6618727836945729667429860834394
271,1.6626171807703904545448748618596
272,1.6633588356109247264970570575156
273,1.6640977683515541800753272123059
274,1.6648339989067009176669520814449
275,1.6655675469730526890890715815150
276,1.6662984320327242914926704575021
277,1.6670266733563659099423819868270
278,1.6677522900062101525957553840423
279,1.6684753008390692829266938368401
280,1.6691957245092747418386457708934
281,1.6699135794715668484706920373245
282,1.6706288839839321759445640100291
283,1.6713416561103918144788549221454
284,1.6720519137237376783854679984716
285,1.6727596745082236641884589074329
286,1.6734649559622076845905867812767
287,1.6741677754007496375582372193467
288,1.6748681499581617122805168644511
289,1.6755660965905156800464215964510
290,1.6762616320781079025469169883095
291,1.6769547730278798985220167509650
292,1.6776455358757973536388934193635
293,1.6783339368891914793553062405564
294,1.6790199921690577576622717556159
295,1.6797037176523141588307360020125
296,1.6803851291140264177014907620228
297,1.6810642421695903002225802645248
298,1.6817410722768801769651763812575
299,1.6824156347383607064524628484593
300,1.6830879447031633788839905968149
301,1.6837580171691283316703133865415
302,1.6844258669848135296871518542207
303,1.6850915088514684833547335155412
304,1.6857549573249760820482750306946
305,1.6864162268177639713425787069852
306,1.6870753316006847372872369578607
307,1.6877322858048620796622552817030
308,1.6883871034235104526391744829875
309,1.6890397983137242621095403700464
310,1.6896903841982369548236957022153
311,1.6903388746671535942391705620847
312,1.6909852831796544362073136588420
313,1.6916296230656708972438210972850
314,1.6922719075275357196529300457814
315,1.6929121496416066531447743570970
316,1.6935503623598650285843754587672
317,1.6941865585114867624736583292876
318,1.6948207508043911434078702862767
319,1.6954529518267645420647548414965
320,1.6960831740485590459812822380479
321,1.6967114298229699380485181602241
322,1.6973377313878881331519516455138
323,1.6979620908673310869929938093501
324,1.6985845202728511542273691441151
325,1.6992050315049231578979874232449
326,1.6998236363543094073848367766961
327,1.7004403465034049856240491091603
328,1.7010551735275604947867099765533
329,1.7016681288963872352724356918797
330,1.7022792239750412496798311091907
331,1.7028884700254876703261835818680
332,1.7034958782077464315367001385750
333,1.7041014595811197252368153189663
334,1.7047052251053993838491873915251
335,1.7053071856420585054063257427776
336,1.7059073519554233789083091993927
337,1.7065057347138285821496378159938
338,1.7071023444907563108454814546170
339,1.7076971917659560035419473327094
340,1.7082902869265503536287670040911
341,1.7088816402681234220098140704696
342,1.7094712619957933475587682237741
343,1.7100591622252692931269382054825
344,1.7106453509838926207880507231677
345,1.7112298382116641156319628263022
346,1.7118126337622547328799303241702
347,1.7123937474040034336577316512371
348,1.7129731888208989211283860352747
349,1.7135509676135488218868047959491
350,1.7141270933001338549345131549110
351,1.7147015753173490758162395825247
352,1.7152744230213318782613367217062
353,1.7158456456885760376862858297552
354,1.7164152525168332110130168539440
355,1.7169832526260022580650254325816
356,1.7175496550590045943086914919083
357,1.7181144687826488139630793804298
358,1.7186777026884838274643804378989
359,1.7192393655936362584089843561187
360,1.7197994662416410378800320011428
361,1.7203580133032569410118631247078
362,1.7209150153772735473786921818203
363,1.7214704809913042208068256880159
364,1.7220244186025701325907218575361
365,1.7225768365986735644669524956582
366,1.7231277432983593690027382609255
367,1.7236771469522674793969531868369
368,1.7242250557436732574099788031662
369,1.7247714777892203119559346409257
370,1.7253164211396415015207800000565
371,1.7258598937804709737036591360041
372,1.7264019036327461983495575012396
373,1.7269424585536999609774137091227
374,1.7274815663374466249723186805807
375,1.7280192347156533541002954535846
376,1.7285554713582077515507583325375
377,1.7290902838738737047058829295245
378,1.7296236798109386030378617447752
379,1.7301556666578537689246996410465
380,1.7306862518438648581384172081846
381,1.7312154427396351054305034408723
382,1.7317432466578585333736509259247
383,1.7322696708538677991101200425354
384,1.7327947225262316426963900041090
385,1.7333184088173455582871526371066
386,1.7338407368140163467996974487092
387,1.7343617135480362993822585446288
388,1.7348813459967509484719100356338
389,1.7353996410836210611135854747045
390,1.7359166056787760636320159034520
391,1.7364322465995592145816863363041
392,1.7369465706110681343362988005825
393,1.7374595844266881647878631794987
394,1.7379712947086171402356000287622
395,1.7384817080683844263202700144539
396,1.7389908310673638778541081536803
397,1.7394986702172803454366261285566
398,1.7400052319807097389728002498262
399,1.7405105227715712138666653369336
400,1.7410145489556157798296474950789
401,1.7415173168509073812046042277577
402,1.7420188327282971940036323319958
403,1.7425191028118939603805317003503
404,1.7430181332795282536085211655198
405,1.7435159302632081389896046783180
406,1.7440124998495723397108899917174
407,1.7445078480803380243484560873644
408,1.7450019809527407191937904227144
409,1.7454949044199692064598865742929
410,1.7459866243915979228261780119475
411,1.7464771467340111183203877074958
412,1.7469664772708223581069817131470
413,1.7474546217832904462221096246155
414,1.7479415860107281950804589117612
415,1.7484273756509083246968426629530
416,1.7489119963604629212356850649879
417,1.7493954537552793033551215800299
418,1.7498777534108894595619394678158
419,1.7503589008628573350691257848967
420,1.7508389016071589500578098062208
421,1.7513177611005593015070174272639
422,1.7517954847609853301737139175396
423,1.7522720779678927888424085911667
424,1.7527475460626306255487743726469
425,1.7532218943487992611163318165953
426,1.7536951280926063678248848364736
427,1.7541672525232176338195512859960
428,1.7546382728331025269258966692567
429,1.7551081941783789702368771132627
430,1.7555770216791497915548704301533
431,1.7560447604198384503200272774047
432,1.7565114154495211915156880300763
433,1.7569769917822509644246075058951
434,1.7574414943973842041486224611295
435,1.7579049282398982995415630401927
436,1.7583672982207076485207107660545
437,1.7588286092169764621010627194049
438,1.7592888660724272991902827284348
439,1.7597480735976460134228538749276
440,1.7602062365703841832196987203437
441,1.7606633597358561848988879310636
442,1.7611194478070344724559210025366
443,1.7615745054649427116806569629435
444,1.7620285373589413879532705569335
445,1.7624815481070152183485551149568
446,1.7629335422960533923680535508953
447,1.7633845244821298104386377057712
448,1.7638344991907765383476862961387
449,1.7642834709172583180889860573377
450,1.7647314441268402875282632875491
451,1.7651784232550564119506865497385
452,1.7656244127079714688058126932705
453,1.7660694168624423286885444974972
454,1.7665134400663749214715921582827
455,1.7669564866389805114274523088737
456,1.7673985608710265783043917610049
457,1.7678396670250870000286095228111
458,1.7682798093357879328932831870350
459,1.7687189920100519031236055815809
460,1.7691572192273397521242466916982
461,1.7695944951398882850972385608697
462,1.7700308238729468360434096176137
463,1.7704662095250113528804321591531
464,1.7709006561680541635456110979140
465,1.7713341678477533917797463513517
466,1.7717667485837191532503841597782
467,1.7721984023697158124909524157717
468,1.7726291331738853162567487273563
469,1.7730589449389640799544459337547
470,1.7734878415825009516445899162003
471,1.7739158269970705206831337996740
472,1.7743429050504860685715407124906
473,1.7747690795860075128759976063302
474,1.7751943544225518481662812372893
475,1.7756187333548950066860772750390
476,1.7760422201538776525159683344302
477,1.7764648185666052421809234960916
478,1.7768865323166470276458090713053
479,1.7773073651042328910363290707586
480,1.7777273206064484056201654980013
481,1.7781464024774266738754853168512
482,1.7785646143485405113850268278530
483,1.7789819598285903565040755355589
484,1.7793984425039907255064616989818
485,1.7798140659389566900336564157015
486,1.7802288336756849615883061202910
487,1.7806427492345364318011248121776
488,1.7810558161142147649036399812945
489,1.7814680377919442704513890165092
490,1.7818794177236449192861422389704
491,1.7822899593441066368799391928258
492,1.7826996660671614621065518085911
493,1.7831085412858535463047907842365
494,1.7835165883726080865269811040915
495,1.7839238106793973853196629115964
496,1.7843302115379072813059464872686
497,1.7847357942596996359363191186097
498,1.7851405621363748215050837228755
499,1.7855445184397317075940719897017
500,1.785947666421927276253714074702
501,1.786350009315631611768100090923
502,1.786751550334185719988653530340
503,1.787152292671753645163041969688
504,1.787552239503476727893675073908
505,1.787951393985622851483230753420
506,1.788349759255736406543634560208
507,1.788747338432786821680097048960
508,1.789144134617315299989900780991
509,1.789540150891577992042289146876
510,1.789935390319691658350006306950
511,1.790329855947775052177944095054
512,1.790723550804089922653594710982
513,1.791116477899180253683007563155
514,1.791508640226010414901799318235
515,1.791900040760102598725739730902
516,1.792290682459671753656224745032
517,1.792680568265759088397422219442
518,1.793069701102365931989464947663
519,1.793458083876584731720063222059
520,1.793845719478730045636439793876
521,1.794232610782466324705265818903
522,1.794618760644936760640025366776
523,1.795004171906889636372100611870
