Eigenstate,Potential Energy
1,0.500000000021911149858504261965364471
2,0.64623093779413911410381750374997006
3,0.73633761012509805444850863801670397
4,0.79966527868930457577729564012823659
5,0.8480465768014761191487361896922495
6,0.8870659992158027430252215164948374
7,0.9197208273702314012903949253680814
8,0.9477838476415940655649973371638014
9,0.9723835590361070555684705529642657
10,0.9942802157023045494614039839485813
11,1.0140093877812009691930871024288335
12,1.0319621705774089910073678077241428
13,1.0484326941567239283447245931822160
14,1.0636476562022809923164409512977170
15,1.0777854378287376015829433350791894
16,1.090988908452716896857595965007222
17,1.103374259254311166912622287665935
18,1.115037254183280789020873754090555
19,1.126057753063031553982529677383624
20,1.136503049224550947726598852643154
21,1.146430375588105242942886405518262
22,1.155888815821979587521226743323013
23,1.164920782279002638789292278496409
24,1.173563173396968715356731325420290
25,1.181848290494564189329361333948907
26,1.189804571578955242114212297442649
27,1.197457184308363707702024043876892
28,1.204828509351106919429721627612582
29,1.211938537587549655565030836388601
30,1.218805198951928710342990532951872
31,1.225444636565072117419203421531860
32,1.231871436731135468280078328828210
33,1.238098823061829964246023101448421
34,1.244138821241070574724134298508853
35,1.250002399603777608811307548383192
36,1.255699589669086128919205784968684
37,1.261239589964133086676202202385253
38,1.266630855844173318303464855379724
39,1.271881177516926887212864679014611
40,1.276997748083239478085355899173970
41,1.281987223089387273013651508881761
42,1.286855772831365138825692090337832
43,1.291609128445010609820658859453364
44,1.296252622647722134671541773961849
45,1.300791225859960487273449871055710
46,1.305229578321585958742132841419198
47,1.309572018724607335451607683610623
48,1.313822609806332303765123345258065
49,1.317985161282246378228561206789714
50,1.32206325044382473635172876398550
51,1.32606024070101438063861947309680
52,1.32997929831077883423515321785092
53,1.33382340750064745802269005301441
54,1.33759538416865034553438619504975
55,1.34129788831754425956377375637146
56,1.34493343536116050421335335110778
57,1.34850440642350666101500561011754
58,1.35201305773645693146570910056835
59,1.35546152922911188104912510247597
60,1.35885185239088387211329912087941
61,1.36218595748080024547180107128765
62,1.36546568014721530548360668387859
63,1.36869276751488027434769947267163
64,1.37186888379000790142736434795272
65,1.37499561542843357344725592942487
66,1.37807447590712743235303886232667
67,1.38110691013504971629829613871030
68,1.38409429853558537841544566671401
69,1.38703796082948136730113353921736
70,1.38993915954428168488302741480559
71,1.39279910327365663360413931108028
72,1.39561894970772442248136769703260
73,1.39839980845341029519170343089371
74,1.40114274366206949478704567206501
75,1.40384877647996927853575045240976
76,1.40651888733577563963398109963414
77,1.40915401807788799411195449580766
78,1.41175507397329929308011928777972
79,1.41432292557861220046815147106798
80,1.41685841049290385076530206035312
81,1.41936233500128235979408915238136
82,1.42183547561721681099587568708578
83,1.42427858053103370591725181982192
84,1.42669237097134857587005584432849
85,1.42907754248564217556421278257003
86,1.43143476614567481412327891335014
87,1.43376468968297490809272986317902
88,1.43606793855921446331533497344161
89,1.43834511697590069038650619087054
90,1.44059680882746974167319973716745
91,1.44282357860154710582931393682165
92,1.44502597222985089820134663992575
93,1.44720451789295203046251239131078
94,1.44935972678186231407536303908638
95,1.45149209381920039815399090584017
96,1.45360209834248362018043421208448
97,1.45569020475190950592033522060233
98,1.45775686312481778058815962769477
99,1.45980250979887028112318436054858
100,1.46182756792583981902138277733504
101,1.46383244799776973901386375247450
102,1.46581754834714034416142917938625
103,1.46778325562257044432193765559370
104,1.46972994524147502023677745747713
105,1.47165798182100692172579848367081
106,1.47356771958851975423638581738118
107,1.47545950277271102603693318248152
108,1.47733366597652538879056449423794
109,1.47919053453282921071082964814269
110,1.48103042484380530137600681975178
111,1.48285364470495074608013055350756
112,1.48466049361451137396540998732422
113,1.48645126306913084838658738088655
114,1.48822623684644361020149330530995
115,1.48998569127530045617943736924964
116,1.49172989549426720307089491420268
117,1.49345911169900517487514122397548
118,1.49517359537910121973696753555949
119,1.49687359554488124918725922185500
120,1.49855935494471545020728503109604
121,1.50023111027328505335228856843883
122,1.50188909237126162703719614927864
123,1.50353352641681767515525793341982
124,1.50516463210936963539177229378634
125,1.50678262384592480933196505786484
126,1.50838771089038855816448010507930
127,1.50998009753616751989560716664134
128,1.51155998326238201679944315670341
129,1.51312756288398874859107065649247
130,1.51468302669609648494260951329031
131,1.51622656061274206684389622258305
132,1.51775834630037904910875162650906
133,1.51927856130631953474382705266872
134,1.52078737918235847593821694974633
135,1.52228496960379160808947427219172
136,1.52377149848403449575132739036035
137,1.52524712808503686144484232899897
138,1.52671201712367275628412473767114
139,1.52816632087428502546205953593176
140,1.52961019126754707567335894859576
141,1.53104377698580039406215175924802
142,1.53246722355501819501435008735462
143,1.53388067343353692094567649672729
144,1.53528426609769014359933585237498
145,1.53667813812447522460808398082650
146,1.53806242327137522532464862463730
147,1.53943725255345035295844694890006
148,1.54080275431781427202307767431806
149,1.54215905431559708202495493126885
150,1.54350627577149860224616070905480
151,1.54484453945102787785081100498266
152,1.54617396372551920645965454546161
153,1.54749466463501363486090764764139
154,1.54880675594908982507328426819221
155,1.55011034922572252572753661572871
156,1.55140555386824651510264970373327
157,1.55269247718049706239279652197528
158,1.55397122442019872527876906132012
159,1.5552418988506661566095282336188
160,1.5565046017908832577038081029486
161,1.5577594326640191743630063958394
162,1.5590064890444405966669560777402
163,1.5602458667032752158221064765397
164,1.5614776596525809746273580780701
165,1.5627019601881697117453701803932
166,1.5639188589311357153383380792732
167,1.5651284448681364183578442073877
168,1.5663308053904679243725382026869
169,1.5675260263319804259944177267886
170,1.5687141920058732589895782934124
171,1.5698953852404097865044221421689
172,1.5710696874135899800354180764623
173,1.5722371784868160994432563526180
174,1.5733979370375873154955976828084
175,1.5745520402912572598414930401594
176,1.5756995641518842087403980118165
177,1.5768405832322071610533763932800
178,1.5779751708827769648626620462345
179,1.5791033992202689376354866396984
180,1.5802253391550079263011012884211
181,1.5813410604177284557970755676656
182,1.5824506315855976614402167729337
183,1.5835541201075240543659678499249
184,1.5846515923287763615421345485881
185,1.5857431135149342484500297312323
186,1.5868287478751918930221074116299
187,1.5879085585850382113030002768332
188,1.5889826078083291711178970091054
189,1.5900509567187759248052621475279
190,1.5911136655208644120577735352190
191,1.5921707934702256553891626897262
192,1.5932223988934731303950976677595
193,1.5942685392075255146205878097184
194,1.5953092709384281557804669872878
195,1.5963446497396911916550700174397
196,1.5973747304101580135237866179520
197,1.5983995669114184484198397899430
198,1.5994192123847808221473648357681
199,1.6004337191678157368764321252022
200,1.6014431388104855034769237148534
201,1.6024475220908702049701035396233
202,1.6034469190305037672093415129529
203,1.6044413789093306914718660629902
204,1.6054309502802950638232283712076
205,1.6064156809835718065664100203782
206,1.6073956181604531904726257318209
207,1.6083708082668964784192484108971
208,1.6093412970867469218395065442258
209,1.6103071297446418528116477463122
210,1.6112683507186073673865033426551
211,1.6122250038523549591099699199907
212,1.6131771323672883298624790879505
213,1.6141247788742247559034313225600
214,1.6150679853848459848041036513737
215,1.6160067933228778694937982599581
216,1.6169412435350126938696505697660
217,1.6178713763015781490056230855596
218,1.6187972313469619324034976875227
219,1.6197188478497952432148272540474
220,1.6206362644529076815543674545073
221,1.6215495192730514541875746306133
222,1.6224586499104120839502653293937
223,1.6233636934578991837240725071510
224,1.6242646865102323542583267047530
225,1.6251616651728247623732020098491
226,1.6260546650704679374770945467898
227,1.6269437213558264292369101994038
228,1.6278288687177441365925754888763
229,1.6287101413893694602511736364695
230,1.6295875731561039648890713562511
231,1.6304611973633763403163942588064
232,1.6313310469242520705085810153200
233,1.6321971543268737959930586731730
234,1.6330595516417485156405588126353
235,1.6339182705288747989444831298634
236,1.6347733422447197075398191074000
237,1.6356247976490490460715642562166
238,1.6364726672116126734063418537214
239,1.6373169810186903097494229694214
240,1.6381577687794999930657822643914
241,1.6389950598324734661350695905712
242,1.6398288831514013501714330603868
243,1.6406592673514521357616476587511
244,1.6414862406950666793376763971854
245,1.6423098310977325782741471690969
246,1.6431300661336409431577498503955
247,1.6439469730412269489931292812304
248,1.6447605787286017458784947958821
249,1.6455709097788706976452907421708
250,1.6463779924553483325612086368078
251,1.6471818527066679055022513613457
252,1.6479825161717883694872022192928
253,1.6487800081849038281713192888619
254,1.6495743537802551255498031168020
255,1.6503655776968474522939257540972
256,1.6511537043830740534800680519159
257,1.6519387580012524284495034891270
258,1.6527207624320694668510825818467
259,1.6534997412789423237106956426923
260,1.6542757178722954192252979057058
261,1.6550487152737538763320104271267
262,1.6558187562802581207777112854096
263,1.6565858634280984935690579197101
264,1.6573500589968753259543611233852
265,1.6581113650133830014627173828991
266,1.6588698032554201720308890641377
267,1.6596253952555293407478332277089
268,1.6603781623046658442139258252184
269,1.6611281254558005037117367100148
270,1.6618753055274516686104976807618
271,1.6626197231071559352382565464066
272,1.6633613985548715200635478923166
273,1.6641003520063217295783088301721
274,1.6648366033762757351769574070217
275,1.6655701723617705278883187066627
276,1.6663010784452723305897715865921
277,1.6670293408977849509945794595520
278,1.6677549787818968293369111532679
279,1.6684780109547782831999745420393
280,1.6691984560711210423338073166477
281,1.6699163325860279622664174797389
282,1.6706316587578504129574552680843
283,1.6713444526509765549212742611244
284,1.6720547321385676593352284166935
285,1.6727625149052492793744913933199
286,1.6734678184497532974993024190928
287,1.6741706600875159079662363995093
288,1.6748710569532279363202384374226
289,1.6755690260033421439120848112913
290,1.6762645840185382499492201870331
291,1.6769577476061435120006570531186
292,1.6776485332025117498430133366486
293,1.6783369570753647184029899423791
294,1.6790230353260908666911554180725
295,1.6797067838920035698523933995362
296,1.6803882185485664198735733205557
297,1.6810673549115755066535432042279
298,1.6817442084393080061672318240156
299,1.6824187944346338785595850210125
300,1.6830911280470924267527063624252
301,1.6837612242749341269819114952427
302,1.6844290979671298241710760197456
303,1.6850947638253444652539004891781
304,1.6857582364058789479479745502109
305,1.6864195301215815134858546481552
306,1.6870786592437279465004485160654
307,1.6877356379038677640158119075983
308,1.6883904800956438719694197875204
309,1.6890431996765817785285824313774
310,1.6896938103698486993455991058888
311,1.6903423257659861496513085630032
312,1.6909887593246135363176787371751
313,1.6916331243761041426353355443556
314,1.6922754341232353100774766486940
315,1.6929157016428121366906491873081
316,1.6935539398872660677519519222743
317,1.6941901616862259172954695408307
318,1.6948243797480666717499752167427
319,1.6954566066614332172481403258290
320,1.6960868548967389918626903917980
321,1.6967151368076434817014512567291
322,1.6973414646325046752901164973291
323,1.6979658504958099902792296705995
324,1.6985883064095846496126877845617
325,1.6992088442747792691364369434871
326,1.6998274758826348938714665849572
327,1.7004442129160283037039926519002
328,1.7010590669507947776853113296198
329,1.7016720494570332917972986031766
330,1.7022831718003905818470238995560
331,1.7028924452433255100644288851100
332,1.7034998809463547966243797308486
333,1.7041054899692804946281963988659
334,1.7047092832723973925478199943149
335,1.7053112717176846590445244559564
336,1.7059114660699777881933160572296
337,1.7065098769981237173387457362856
338,1.7071065150761201764133217616190
339,1.7077013907842353332048542656470
340,1.7082945145101138258927730057586
341,1.7088858965498648964099961774382
342,1.7094755471091351217594072517653
343,1.7100634763041653810534015387878
344,1.7106496941628320519627883674814
345,1.7112342106256742558886218167285
346,1.7118170355469046266311983348775
347,1.7123981786954071678940422453594
348,1.7129776497557190113261583397463
349,1.7135554583289996200067355374731
350,1.7141316139339849796917929547330
351,1.7147061260079288654064690498562
352,1.7152790039075308657273040901585
353,1.7158502569098504491128472998000
354,1.7164198942132084867385939873311
355,1.7169879249380765971003549168528
356,1.7175543581279525221548939025805
357,1.7181192027502247740230438292555
358,1.7186824676970257962431952833297
359,1.7192441617860693847009059051336
360,1.7198042937614813061413980831298
361,1.7203628722946148591211636607015
362,1.7209199059848578589867152911757
363,1.7214754033604256424819135665830
364,1.7220293728791451159658802586725
365,1.7225818229292280835975449232108
366,1.7231327618300327331455588091533
367,1.7236821978328161714230588373679
368,1.7242301391214747980660577657235
369,1.7247765938132771501909105872457
370,1.7253215699595849310959712674001
371,1.7258650755465650763074111181838
372,1.7264071184958918134389653689005
373,1.7269477066654386825719921531041
374,1.7274868478499648256265877275112
375,1.7280245497817862362842287893400
376,1.7285608201314434266693307828034
377,1.7290956665083572999912584101655
378,1.7296290964614763965497445542112
379,1.7301611174799173528964225915798
380,1.7306917369935953309092422678127
381,1.7312209623738472922062833421268
382,1.7317488009340452360604534079137
383,1.7322752599302040754678766333153
384,1.7328003465615791150618086899131
385,1.7333240679712567521177142147723
386,1.7338464312467390592927281341154
387,1.7343674434205179984256335598687
388,1.7348871114706432021853869998849
389,1.7354054423212839982422876359135
390,1.7359224428432828650558384819324
391,1.7364381198547006362073564831943
392,1.7369524801213570616410885931070
393,1.7374655303573641992866060916407
394,1.7379772772256512181452076151293
395,1.7384877273384834696989168542126
396,1.7389968872579754784944667750550
397,1.7395047634965974817956818916260
398,1.7400113625176755264230969189584
399,1.7405166907358836885569594467687
400,1.7410207545177327164456531805300
401,1.7415235601820511449231665796163
402,1.7420251140004596269368081829416
403,1.7425254221978413028085606399026
404,1.7430244909528061003041091812155
405,1.7435223263981464309385606444145
406,1.7440189346212903915370845600307
407,1.7445143216647495877544720231122
408,1.7450084935265590827312352285677
409,1.7455014561607123319468529523095
410,1.7459932154775936187322099693064
411,1.7464837773444022504424680485603
412,1.7469731475855720978634792718589
413,1.7474613319831875568944898544674
414,1.7479483362773923563363690244321
415,1.7484341661667954957310582215780
416,1.7489188273088707428687854310185
417,1.7494023253203525394332958701635
418,1.7498846657776254780048310652378
419,1.7503658542171116289158444670259
420,1.7508458961356506988648645835447
421,1.7513247969908769734555391643689
422,1.7518025622015923252467766687257
423,1.7522791971481331234370559217543
424,1.7527547071727346588908117447086
425,1.7532290975798894638498150465588
426,1.7537023736367031331519905611823
427,1.7541745405732451315702062219831
428,1.7546456035828946009404114065780
429,1.7551155678226850794490059936980
430,1.7555844384136409951659556842038
431,1.7560522204411134374595895421268
432,1.7565189189551123557874632435587
433,1.7569845389706305237412717958562
434,1.7574490854679703662623036062407
435,1.7579125633930614736817427558475
436,1.7583749776577767035550083259065
437,1.7588363331402450316388002438070
438,1.7592966346851601340533179504805
439,1.7597558871040853819118353261928
440,1.7602140951757563196090783763399
441,1.7606712636463777865978400542598
442,1.7611273972299192462774184108373
443,1.7615825006084079696650220614687
444,1.7620365784322146931973752211367
445,1.7624896353203410812967297314329
446,1.7629416758607000180249055578395
447,1.7633927046103958969693861328524
448,1.7638427260959981275360722238865
449,1.7642917448138156981280263819955
450,1.7647397652301649486237009634788
451,1.7651867917816380552224048904741
452,1.7656328288753650689771011592787
453,1.7660778808892752510588851732095
454,1.7665219521723540936731855403547
455,1.7669650470448996504713246278838
456,1.7674071697987734734272729518981
457,1.7678483246976508518568057495926
458,1.7682885159772667494457776892892
459,1.7687277478456599531816122367498
460,1.7691660244834150765005312992358
461,1.7696033500439002663434844243499
462,1.7700397286535038271405295495780
463,1.7704751644118683654617437513891
464,1.7709096613921206162090048825111
465,1.7713432236411009190508416602140
466,1.7717758551795894757647807752300
467,1.7722075600025286689696283955876
468,1.7726383420792464578548761987270
469,1.7730682053536733275698916085912
470,1.7734971537445603167792666912329
471,1.7739251911456923904560238299612
472,1.7743523214261014554891785017911
473,1.7747785484302743699725476756469
474,1.7752038759783634501319716085534
475,1.7756283078663883976094500670840
476,1.7760518478664421608722811581817
477,1.7764744997268910637057388136793
478,1.7768962671725738767397941025035
479,1.7773171539049987213545766357679
480,1.7777371636025382005061493053589
481,1.7781562999206213073071618355084
482,1.7785745664919256801076894315962
483,1.7789919669265655840323630147671
484,1.7794085048122784386848043292688
485,1.7798241837146113688527717605913
486,1.7802390071771023629623389430882
487,1.7806529787214628880181226166543
488,1.7810661018477565574701046602820
489,1.7814783800345770800591669092750
490,1.7818898167392233526381369817483
491,1.7823004153978738311196384241990
492,1.7827101794257587676042324104566
493,1.7831191122173302885617058790976
494,1.7835272171464314079673671108238
495,1.7839344975664621677492213168469
496,1.7843409568105461498235550392856
497,1.7847465981916930450954424820160
498,1.7851514250029612245292536853671
499,1.7855554405176178094603940261128
500,1.785958647989298371467820192686
501,1.786361050652162007662437707383
502,1.786762651721049246386008079670
503,1.787163454391634251256419930569
504,1.787563461840579167203448808783
505,1.787962677225683455761985579600
506,1.788361103686033949509351480753
507,1.788758744342153473467964831794
508,1.789155602296147673223360729306
509,1.789551680631848280434328674912
510,1.789946982414958868755697706163
511,1.790341510693196331030182281075
512,1.790735268496431977724388942891
513,1.791128258836830872123724347834
514,1.791520484708990078526269131210
515,1.791911949090076197511857186076
516,1.792302654939960398452356157649
517,1.792692605201352023831579560953
518,1.793081802799932550590677121389
519,1.793470250644486690273077812265
520,1.793857951627033484802904325965
521,1.794244908622954192955870135380
522,1.794631124491121243555537675665
523,1.795016602074024692381484421700
