Eigenstate,Potential Energy
1,0.500000000065176412956039964855646901
2,0.64623093807655275984801003922494286
3,0.73633761095466788390037901328433199
4,0.79966528041721103533794318658031291
5,0.8480465797945796554033647080054092
6,0.8870660038473944082846502442420550
7,0.9197208340166259485921511415079260
8,0.9477838566807101124463198179829309
9,0.9723835708468077629454741356690244
10,0.9942802306640638201831573384052260
11,1.0140094062739228875291440137355290
12,1.0319621929813253525125508536197281
13,1.0484327208523342835444872555717134
14,1.0636476875703171583026481451690599
15,1.0777854742501429357977974808033846
16,1.090988950308634844945581913110298
17,1.103374306926079844454117712229888
18,1.115037308052431610984729353103989
19,1.126057813511290653746858503819355
20,1.136503116633842565251029252596579
21,1.146430450340556533185825430502691
22,1.155888898299926473337522188258108
23,1.164920872864996445734652590451442
24,1.173563272473783401499360481448073
25,1.181848398445204034797645361553339
26,1.189804688786662898987744214124834
27,1.197457311156628536209613057245772
28,1.204828646223673554616426445854413
29,1.211938684868426761837704884784470
30,1.218805357025397891074042000411443
31,1.225444805815696954081607302317396
32,1.231871617543770669092331028799875
33,1.238099015821630606505496404216782
34,1.244139026333501428242086268179152
35,1.250002617414622530377182549353665
36,1.255699820584457519692791746119022
37,1.261239834370481405963738988434960
38,1.266631114128296648413711086887256
39,1.271881450065980545083321730041233
40,1.276998035284745670171389997005821
41,1.281987525331244790585075773835923
42,1.286856090501859091348117370990665
43,1.291609461932822194536818412026569
44,1.296252972341938440859567954862396
45,1.300791592150084333959704620203564
46,1.305229961597545764897207910938159
47,1.309572419376767021908585834926423
48,1.313823028225501226276724813376110
49,1.317985597859689291230013305983248
50,1.32206370557127178712392681419757
51,1.32606071477067113367532802483982
52,1.32997979171533632571153000801566
53,1.33382392063329228034292402045068
54,1.33759591742307476200597980985337
55,1.34129844208795634930638724219149
56,1.34493401004229433746286626797593
57,1.34850500241063250502942621636721
58,1.35201367542539148728026085356375
59,1.35546216901622855136328811302597
60,1.35885251467312306062436318082359
61,1.36218664265567968799748632281917
62,1.36546638861284043324149237584104
63,1.36869349966995460978159991492730
64,1.37186964003384348699099457389636
65,1.37499639616096143377393354149024
66,1.37807528152890807025669744493980
67,1.38110774104728364306622324727346
68,1.38409515514012367886702929801522
69,1.38703884352883630009979419601160
70,1.38994006874163731860001702065700
71,1.39280003937287951904420584330003
72,1.39561991311337430179014913293415
73,1.39840079957075084827456028405201
74,1.40114376289707912357787319871986
75,1.40384982423935192966296560886060
76,1.40651996402697166603878821159708
77,1.40915512410908505618185102514397
78,1.41175620975344329986794638382806
79,1.41432409151741829157409320561115
80,1.41685960700086741946596736813571
81,1.41936356248969011800964753949315
82,1.42183673449815789669249899724157
83,1.42427987121741083354843122351768
84,1.42669369387688923046655485593695
85,1.42907889802490985108840657023143
86,1.43143615473408029670951262657949
87,1.43376611173678760480129514466457
88,1.43606939449557377703335505959438
89,1.43834660721282744151474808110407
90,1.44059833378387763724353474728071
91,1.44282513869725425670320267582955
92,1.44502756788559138500537487790548
93,1.44720614953038751892255718359667
94,1.44936139482359372041666380564868
95,1.45149379868877960523999756545759
96,1.45360384046442524506882846468192
97,1.45569198455170271952051577996104
98,1.45775868102893818010979296618922
99,1.45980436623479181601148002693155
100,1.46182946332204677108021815098272
101,1.46383438278376875742381798458294
102,1.46581952295347253610542125944310
103,1.46778527048082352193704041295677
104,1.46973200078429550461697073205269
105,1.47166007848211240470586721044012
106,1.47356985780271121869364215860625
107,1.47546168297588522545308676432552
108,1.47733588860568728682255896241009
109,1.47919280002610448152535373430895
110,1.48103273364045289150887105167198
111,1.48285599724537549858773225873316
112,1.48466289034027671564216163020294
113,1.48645370442297154082853233093373
114,1.48822872327227856550280360413207
115,1.48998822321824561805519516730856
116,1.49173247340064849420616701309588
117,1.49346173601637151130721841251758
118,1.49517626655623759308432627673184
119,1.49687631403182187754585436894204
120,1.49856212119275699854184055330241
121,1.50023392473499992421725127360738
122,1.50189195550051132246923979878793
123,1.50353643866876623058652452196419
124,1.50516759394049712644037692300226
125,1.50678563571404093233383690580882
126,1.50839077325464628531813223110674
127,1.50998321085707682989902872918477
128,1.51156314800182370186622563208941
129,1.51313077950522829874061360129901
130,1.51468629566379805046720257041648
131,1.51622988239298249986356686281156
132,1.51776172136066202513325061848143
133,1.51928199011558975516868561642496
134,1.52079086221101595241095495179749
135,1.52228850732370602969016664864151
136,1.52377509136855967994031725946377
137,1.52525077660902528973922666919799
138,1.52671572176349019563347897042067
139,1.52817008210782523630282660306338
140,1.52961400957424660765038874931034
141,1.53104765284665347041489259080484
142,1.53247115745259168663489509578315
143,1.53388466585198541112494797802820
144,1.53528831752277108448748493378650
145,1.53668224904356418642473681772666
146,1.53806659417348123936452526076301
147,1.53944148392923134944787520799300
148,1.54080704665959261389279939435068
149,1.54216340811737519567524176765846
150,1.54351069152897470638992713308250
151,1.54484901766161181153186538492631
152,1.54617850488834835735296013719655
153,1.54749926925096896897300364954549
154,1.54881142452081201897179892466900
155,1.55011508225762820243964351781780
156,1.55141035186654458483400552673420
157,1.55269734065320516922920144059434
158,1.55397615387715980104476802831507
159,1.5552468948035650830696612983755
160,1.5565096647532636383040985151488
161,1.5577645631513002167222773512117
162,1.5590116875739341070395943352175
163,1.5602511337942027067662031082633
164,1.5614829958260908871247072172040
165,1.5627073659673547530326179303576
166,1.5639243348410503137208750780330
167,1.5651339914358142962913641982340
168,1.5663364231449397911104599591854
169,1.5675317158042917911121859259758
170,1.5687199537291023681110022988970
171,1.5699012197496856805683382669627
172,1.5710755952461106794551988743099
173,1.5722431601818669145254629814904
174,1.5734039931365592844985157797406
175,1.5745581713376657160687503875164
176,1.5757057706913874780793405341986
177,1.5768468658126253913826959095700
178,1.5779815300541110887689895341884
179,1.5791098355347197698937294402317
180,1.5802318531669953975887414227309
181,1.5813476526839109841284361780566
182,1.5824573026648916628222962092462
183,1.5835608705611235941937708994571
184,1.5846584227201729482675691287625
185,1.5857500244099367710751099756436
186,1.5868357398419467039835401546445
187,1.5879156321940493563326784862857
188,1.5889897636324787676807414068592
189,1.5900581953333446907332369668543
190,1.5911209875035523460167629038292
191,1.5921781994011728708330784481938
192,1.5932298893552808446799391137914
193,1.5942761147852771949693252862924
194,1.5953169322197108238084135457048
195,1.5963523973146168881845093534920
196,1.5973825648713854254350997675554
197,1.5984074888541746993067127938975
198,1.5994272224068834285624474698265
199,1.6004418178696947319746490345044
200,1.6014513267952057298829333300348
201,1.6024557999641537787176008731790
202,1.6034552874007527146206301683009
203,1.6044498383876497608667546012065
204,1.6054395014805147139682039283480
205,1.6064243245222713737961802896549
206,1.6074043546569842364384838394410
207,1.6083796383434063204409546601534
208,1.6093502213682023478595863695058
209,1.6103161488588530229744007883944
210,1.6112774652962519042868226701673
211,1.6122342145270022287806416026240
212,1.6131864397754239155927182279742
213,1.6141341836552751270054935574847
214,1.6150774881812033624690569163540
215,1.6160163947799252919028990485164
216,1.6169509443011492827526348695261
217,1.6178811770282445798627160428953
218,1.6188071326886661106341306523089
219,1.6197288504641381884222379280518
220,1.6206463690006096223221174815153
221,1.6215597264179781356502299627524
222,1.6224689603196012905093109050989
223,1.6233741078015874792863780311521
224,1.6242752054618820424040249525727
225,1.6251722894091510688873236947452
226,1.6260653952714664177093074116292
227,1.6269545582048006027820721085558
228,1.6278398129013333518157188384274
229,1.6287211935975769912098633237747
230,1.6295987340823253432372974060556
231,1.6304724677044279248052191625484
232,1.6313424273803998567300408363670
233,1.6322086456018624690460876515036
234,1.6330711544428307484303192103522
235,1.6339299855668407988589356297780
236,1.6347851702339270142812191590400
237,1.6356367393074525834544384496756
238,1.6364847232607950579675621801407
239,1.6373291521838924190509928206986
240,1.6381700557896517966067976182038
241,1.6390074634202251218247300347594
242,1.6398414040531545693509508028284
243,1.6406719063073918198012914851127
244,1.6414989984491928308710794064560
245,1.6423227083978924901709309520756
246,1.6431430637315616683742584662979
247,1.6439600916925480544791736788618
248,1.6447738191929083537591739574476
249,1.6455842728197268169359512915350
250,1.6463914788403304847152010969790
251,1.6471954632073990471329080398029
252,1.6479962515639721156464655925337
253,1.6487938692483589796112626242556
254,1.6495883412989505034363740691812
255,1.6503796924589370438856955535286
256,1.6511679471809324723305028368445
257,1.6519531296315106927354149805237
258,1.6527352636956510994767028349473
259,1.6535143729810997778830252891653
260,1.6542904808226468332442941022115
261,1.6550636102863201613866567905148
262,1.6558337841735003855884373912432
263,1.6566010250249558097658645115897
264,1.6573653551248028381306892151234
265,1.6581267965043903858961652564513
266,1.6588853709461104481136170429130
267,1.6596410999871380392218488525336
268,1.6603940049231005363602148650489
269,1.6611441068116806956961395610062
270,1.6618914264761490652445345144800
271,1.6626359845088350774682277563980
272,1.6633778012745308005592277892447
273,1.6641168969138347908487721117404
274,1.6648532913464332547005629768208
275,1.6655870042743223948023182388366
276,1.6663180551849702185462075251967
277,1.6670464633544252918497089626777
278,1.6677722478503641924035175582769
279,1.6684954275350891648555996210214
280,1.6692160210684680708408845118813
281,1.6699340469108245227268435461245
282,1.6706495233257756973890070864713
283,1.6713624683830210425103859309965
284,1.6720728999610790319898351439350
285,1.6727808357499787777689507612909
286,1.6734862932539025228735942140020
287,1.6741892897937840750137703131212
288,1.6748898425098595825702891868645
289,1.6755879683641753010872234202563
290,1.6762836841430530828522398332873
291,1.6769770064595114305619413913707
292,1.6776679517556450000365689988236
293,1.6783565363049664578172256611227
294,1.6790427762147057306207379358128
295,1.6797266874280687338577103916443
296,1.6804082857264631648375292218249
297,1.6810875867316812924480577311532
298,1.6817646059080490601268524975975
299,1.6824393585645383050463373686503
300,1.6831118598568438441830678864702
301,1.6837821247894258387767228782256
302,1.6844501682175195301788791835325
303,1.6851160048491095202901758616378
304,1.6857796492468721741867456803943
305,1.6864411158300875735346018031233
306,1.6871004188765202840853090613200
307,1.6877575725242661193028741381555
308,1.6884125907735723786466366971417
309,1.6890654874886276498754252606572
310,1.6897162763993215106182972671239
311,1.6903649711029777242184081498065
312,1.6910115850660584430856493009084
313,1.6916561316258408124119643163804
314,1.6922986239920677786311870825205
315,1.6929390752485724223751235526007
316,1.6935774983548771916792432113715
317,1.6942139061477655741555881906124
318,1.6948483113428315594932213815350
319,1.6954807265360040339646213149136
320,1.6961111642050461083153996738230
321,1.6967396367110332980922077424067
322,1.6973661562998066709635817387663
323,1.6979907351034044751964803773227
324,1.6986133851414712265571036077621
325,1.6992341183226460157448491499872
326,1.6998529464459282737185359777913
327,1.7004698812020238158034969078403
328,1.7010849341746683539110860285039
329,1.7016981168419334518672934691095
330,1.7023094405775113556572052109859
331,1.7029189166519801373051679621518
332,1.7035265562340502137604218083735
333,1.7041323703917926194739513857931
334,1.7047363700938472168232607863557
335,1.7053385662106151594530020188172
336,1.7059389695154316667214236208255
337,1.7065375906857219816402132656162
338,1.7071344403041415713030487018838
339,1.7077295288596966344553793262155
340,1.7083228667488510076976860306192
341,1.7089144642766151840503061462749
342,1.7095043316576199411854044553191
343,1.7100924790171742172738829343942
344,1.7106789163923072283156272158372
345,1.7112636537327966464525648132121
346,1.7118467009021803142272823154136
347,1.7124280676787550603177197761993
348,1.7130077637565594286459848027242
349,1.7135857987463438659650190697900
350,1.7141621821765259104460377732341
351,1.7147369234941324690548294221332
352,1.7153100320657288662728418661406
353,1.7158815171783339487341206342310
354,1.7164513880403226604527898935798
355,1.7170196537823164541245098872464
356,1.7175863234580597484984565879008
357,1.7181514060452856710736345990084
358,1.7187149104465703303404270722015
359,1.7192768454901713629325939232205
360,1.7198372199308596938371793410474
361,1.7203960424507362547660866727632
362,1.7209533216600401425291578325356
363,1.7215090660979428132642702264256
364,1.7220632842333333367686544021649
365,1.7226159844655929475523646372721
366,1.7231671751253577705428816810648
367,1.7237168644752726137136402285296
368,1.7242650607107326166396953311276
369,1.7248117719606173877980183207877
370,1.7253570062880133440694339937458
371,1.7259007716909271060392685738564
372,1.7264430761029889058676305946240
373,1.7269839273941459747428245304764
374,1.7275233333713502187037375222294
375,1.7280613017792308747082942503108
376,1.7285978403007636034824683032463
377,1.7291329565579278086839308884136
378,1.7296666581123553501173118138515
379,1.7301989524659724911425992684388
380,1.7307298470616318373793343326776
381,1.7312593492837371424954356935897
382,1.7317874664588580996027042643205
383,1.7323142058563397932852180648860
384,1.7328395746889017763306387961114
385,1.7333635801132303927954138142099
386,1.7338862292305650064402174507080
387,1.7344075290872738842638706952077
388,1.7349274866754236723318672320217
389,1.7354461089333431389892109837620
390,1.7359634027461783749792458813921
391,1.7364793749464397678273147346477
392,1.7369940323145443592941852010306
393,1.7375073815793510598273380605798
394,1.7380194294186873015449147373733
395,1.7385301824598699870859199197738
396,1.7390396472802203856538098730062
397,1.7395478304075726066327552290550
398,1.7400547383207756593968318698162
399,1.7405603774501876655910741842796
400,1.7410647541781665243456221014886
401,1.7415678748395530798539906099366
402,1.7420697457221475370546925968374
403,1.7425703730671819466890836690506
404,1.7430697630697866533669962712513
405,1.7435679218794481726470131291669
406,1.7440648556004646067263398018955
407,1.7445605702923957160423611774291
408,1.7450550719705051505714611021121
409,1.7455483666061977025042515538822
410,1.7460404601274540953935750532538
411,1.7465313584192575704201270751276
412,1.7470210673240158530084583874886
413,1.7475095926419795795109991106731
414,1.7479969401316536084729458177260
415,1.7484831155102055011283344054878
416,1.7489681244538676014546457055391
417,1.7494519725983355649924141659166
418,1.7499346655391605003933389837494
419,1.7504162088321390029520491293693
420,1.7508966079936960628094574584439
421,1.7513758685012648007831110396509
422,1.7518539957936623142292569866322
423,1.7523309952714594698811052366504
424,1.7528068722973482582241851680691
425,1.7532816321965030896110199154901
426,1.7537552802569396398247629992373
427,1.7542278217298687306039635724966
428,1.7546992618300452597216271265992
429,1.7551696057361160939280434054973
430,1.7556388585909597878083501429456
431,1.7561070255020256331723200124895
432,1.7565741115416691894774005521482
433,1.7570401217474796341874221233046
434,1.7575050611226100320338341221439
435,1.7579689346360983479072943473835
436,1.7584317472231871054432423972829
437,1.7588935037856398537722317002203
438,1.7593542091920534256221181233580
439,1.7598138682781666692245162488921
440,1.7602724858471667264154269604464
441,1.7607300666699900179839402170682
442,1.7611866154856215011413405436968
443,1.7616421370013918480653543859708
444,1.7620966358932671661720964350501
445,1.7625501168061405920917334607518
446,1.7630025843541167850365669237976
447,1.7634540431207964901088595498042
448,1.7639044976595543911544819245966
449,1.7643539524938180951056292665073
450,1.7648024121173404017269799731607
451,1.7652498809944723633631353058477
452,1.7656963635604299775815418471318
453,1.7661418642215602573553821257589
454,1.7665863873556030693532322529462
455,1.7670299373119523658583200942561
456,1.7674725184119121090083767104683
457,1.7679141349489515847947104534092
458,1.7683547911889565044902594949053
459,1.7687944913704784092442247941283
460,1.7692332397049820220478450652407
461,1.7696710403770883986959998681349
462,1.7701078975448170927453261903028
463,1.7705438153398259402356406586504
464,1.7709787978676466271233450746398
465,1.7714128492079200102584899018100
466,1.7718459734146283247445323888036
467,1.7722781745163235603962348335994
468,1.7727094565163570251869268312832
469,1.7731398233931025746898398779631
470,1.7735692791001810344149526539354
471,1.7739978275666800845730515765029
472,1.7744254726973739073595707301503
473,1.7748522183729379502058833040750
474,1.7752780684501663115956150209287
475,1.7757030267621806748785410549062
476,1.7761270971186433066244721149491
477,1.7765502833059644553217178925247
478,1.7769725890875088292900745178401
479,1.7773940182038000461445140231281
480,1.7778145743727234514170184554449
481,1.7782342612897258603174616888924
482,1.7786530826280157946031561540244
483,1.7790710420387595978210982888872
484,1.7794881431512762520249410134425
485,1.7799043895732323762811536578692
486,1.7803197848908319952778509603013
487,1.7807343326690079304410204101984
488,1.7811480364516094137482972260656
489,1.7815608997615891561491942277279
490,1.7819729261011877375468547032612
491,1.7823841189521174565434862051520
492,1.7827944817757442321770888027325
493,1.7832040180132675367913894525981
494,1.7836127310858994583322596795795
495,1.7840206243950410889297128806784
496,1.7844277013224594886730834899749
497,1.7848339652304609146978757505637
498,1.7852394194620642655737021605283
499,1.7856440673411722431681977067142
500,1.786047912172742367450997526637
501,1.786450957242953595377240215203
502,1.786853205819376004273926520416
503,1.787254661151135013235055431804
504,1.787655326469077991906854549662
505,1.788055204985936109808364780635
506,1.788454299896487162128205239434
507,1.788852614377717226033572861485
508,1.789250151588980793631619871425
509,1.789646914672157618829194677180
510,1.790042906751812337861916745462
511,1.790438130935350101294481692461
512,1.790832590313172124600521983664
513,1.791226287958829780185150550195
514,1.791619226929177914632561129324
515,1.792011410264527773024627626591
516,1.792402840988797748482298227626
517,1.792793522109663039718282550060
518,1.793183456618706010266369601905
519,1.793572647491564039867159421065
520,1.793961097688077733795451112418
521,1.794348810152436294398116996593
522,1.794735787813324340368732080179
523,1.795122033584066620500165676124
