Eigenstate,Potential Energy
1,0.500000000038410707647683420194995961
2,0.64623093790183968073935781238892582
3,0.73633761044146001540506446796057498
4,0.79966527934825109285309355884679165
5,0.8480465779429078233627652748168150
6,0.8870660009820696369428333942915791
7,0.9197208299048328411747617598716672
8,0.9477838510886365274844767009284255
9,0.9723835635400519293181338560868095
10,0.9942802214078400712865715479229680
11,1.0140093948331725934158404680447654
12,1.0319621791207795412568472296956709
13,1.0484327043365499609428638014444625
14,1.0636476681636984898150205989710902
15,1.0777854517169532950393853321788854
16,1.090988924413003123849064163469048
17,1.103374277432003029552518364310140
18,1.115037274723774854471567190811785
19,1.126057776111785617589691607866367
20,1.136503074927084545832613118461119
21,1.146430404090000705978448326635598
22,1.155888847268883490002462251027180
23,1.164920816816627546013356792285020
24,1.173563211171095155447206194163265
25,1.181848331651042798971168556754565
26,1.189804616263709047999867112543661
27,1.197457232667390515380491394043033
28,1.204828561530481788188871889912271
29,1.211938593733427443030353144406774
30,1.218805259210546674200828623758587
31,1.225444701082752564453818832835989
32,1.231871505654288443013133798606085
33,1.238098896536955971068366399065059
34,1.244138899414763328643056311463159
35,1.250002482622726810894985120931465
36,1.255699677680080263271342817026319
37,1.261239683114062236367514350626471
38,1.266630954280031998159164255931305
39,1.271881281385816891734085941410061
40,1.276997857532372743088164036994340
41,1.281987338266088749817486257725002
42,1.286855893883075680025896507558136
43,1.291609255519289865846344577768277
44,1.296252755892251460467630255056040
45,1.300791365422545858559965636376105
46,1.305229724350160897399142369236908
47,1.309572171367235843658051642660094
48,1.313822769211211806587058567052507
49,1.317985327597710674409175700264109
50,1.32206342381834695710376465910470
51,1.32606042128320995628101016737588
52,1.32997948624940846855087664518910
53,1.33382360294462011024508140187052
54,1.33759558726702621989523877432369
55,1.34129809921953780235910665931353
56,1.34493365421614340836230404764484
57,1.34850463338101087810433409937748
58,1.35201329294617769128737093372053
59,1.35546177284091071865136896902349
60,1.35885210455479166239728086686042
61,1.36218621834702024537582917789080
62,1.36546594986612620380616228819986
63,1.36869304623703924926832514887247
64,1.37186917166615368579161132038137
65,1.37499591260948952788828224895539
66,1.37807478254420462632814462658670
67,1.38110722637945001712379442189359
68,1.38409462453880454838792184175851
69,1.38703829674321216899739149960955
70,1.38993950552041699473473044648612
71,1.39279945946429256384679513336511
72,1.39561931626516345158034555192532
73,1.39840018553016440685103572907427
74,1.40114313141086332564938256574393
75,1.40384917505374327468441518219157
76,1.40651929688768922201032235336189
77,1.40915443876132273296343491640426
78,1.41175550594186209155657460680624
79,1.41432336898613848748559547474518
80,1.41685886549346078325840017254781
81,1.41936280174917203448018255852667
82,1.42183595426697948577504087389208
83,1.42427907123745103103439708472973
84,1.42669287388944683496657855032155
85,1.42907805777069553674813051019050
86,1.43143529395320859118809941377079
87,1.43376523016876883201667831338200
88,1.43606849187930596417383153348111
89,1.43834568328658818981198331273724
90,1.44059738828531595599760683330226
91,1.44282417136338236004583195229514
92,1.44502657845277645088297101953359
93,1.44720513773434340977632483147997
94,1.44936036039937266503241825871742
95,1.45149274137076384123587104560738
96,1.45360275998631862148456386056365
97,1.45569088064652225896732296603834
98,1.45775755342900559993537707290293
99,1.45980321467172500793000241874360
100,1.46182828752675123871242971702866
101,1.46383318248642901118777775791952
102,1.46581829788354344489365020802633
103,1.46778402036702162101104804029788
104,1.46973072535459025914509672187956
105,1.47165877746371742836585344317531
106,1.47356853092207544675601237789488
107,1.47546032995868404175679544123418
108,1.47733450917681360404893810420186
109,1.47919139390965977417158246699406
110,1.48103130055973818095676167800780
111,1.48285453692288228965867853736491
112,1.48466140249767788402353548761349
113,1.48645218878111217075152709764001
114,1.48822717955116673704638445141432
115,1.48998665113704314344520757851377
116,1.49173087267766160247314264121006
117,1.49346010636904148066071056822895
118,1.49517460770113133035599054380629
119,1.49687462568462244404766002697139
120,1.49856040306825408167990208052222
121,1.50023217654708025419580527131673
122,1.50189017696214903341338381602889
123,1.50353462949201316540617687641889
124,1.50516575383647308475172531864516
125,1.50678376439292386074826297400304
126,1.50838887042566240940230603799973
127,1.50998127622849072710343514043104
128,1.51156118128092831471280208041458
129,1.51312878039833488755363754962188
130,1.51468426387622608492490672277559
131,1.51622781762904948864109935449917
132,1.51775962332367328290062722186661
133,1.51927985850782810620078582014839
134,1.52078869673373137005908677906457
135,1.52228630767710521095787980276607
136,1.52377285725179555439877413013743
137,1.52524850772018646201016151616410
138,1.52671341779959032066018241840892
139,1.52816774276479232662217750064185
140,1.52961163454691227187114989379394
141,1.53104524182874208210003470785073
142,1.53246871013670948277740228582400
143,1.53388218192960951939894462236511
144,1.53528579668423847844827090717528
145,1.53667969097806056782315327789960
146,1.53806399856902984673282647201869
147,1.53943885047268169210570793819032
148,1.54080437503660913051363536897509
149,1.54216069801242583654456985075292
150,1.54350794262531943847826348085627
151,1.54484622964129104549610731112493
152,1.54617567743217129557121515999458
153,1.54749640203850187370848524315658
154,1.54880851723036639975229109210853
155,1.55011213456624892172973516677690
156,1.55140736344999788106742235416697
157,1.55269431118596659625941252545091
158,1.55397308303240208306193226940468
159,1.5552437822531458840221919768032
160,1.5565065101677132448530264701732
161,1.5577613661998091337464197324392
162,1.5590084479243405646992811653315
163,1.5602478511129800781228435034173
164,1.5614796697783350153028267998641
165,1.5627039962167711869000992683736
166,1.5639209210499414510525725503408
167,1.5651305332650664333700281376516
168,1.5663329202540100777075556719395
169,1.5675281678511950897801919471442
170,1.5687163603703980167068936724789
171,1.5698975806404641569165465188569
172,1.5710719100399801670463700292879
173,1.5722394285309397681354600602519
174,1.5734002146914383945998963683065
175,1.5745543457474307708944812168737
176,1.5757018976035811221862608067347
177,1.5768429448732392795494659652214
178,1.5779775609075718340503647005214
179,1.5791058178238747846399923609042
180,1.5802277865330986262260408540837
181,1.5813435367666085264821933908089
182,1.5824531371022072867524850913978
183,1.5835566549894441362969811426422
184,1.5846541567742336013867670241715
185,1.5857457077228062573440316588471
186,1.5868313720450123321181877159504
187,1.5879112129170019618679533766493
188,1.5889852925032975348352569170881
189,1.5900536719782818545707992130218
190,1.5911164115471177735574813712888
191,1.5921735704661185197519292158964
192,1.5932252070625850982148317065995
193,1.5942713787541290716451724279026
194,1.5953121420674940605675399116534
195,1.5963475526568938954971492309551
196,1.5973776653218811129481702518385
197,1.5984025340247601705711889218413
198,1.5994222119075595433637268393633
199,1.6004367513085755347722951580768
200,1.6014462037785017428495517029696
201,1.6024506200961551578482917912228
202,1.6034500502838122673666795888496
203,1.6044445436221658237293466080095
204,1.6054341486649138884692156702077
205,1.6064189132529911192245324081810
206,1.6073988845284553177516770733885
207,1.6083741089480351096817657071443
208,1.6093446322963529774291282116676
209,1.6103104996988293890821270397234
210,1.6112717556342795188786962372177
211,1.6122284439472099182261062816355
212,1.6131806078598253643902107085052
213,1.6141282899837502647456795132928
214,1.6150715323314795922736450368225
215,1.6160103763275585585351402103298
216,1.6169448628195049785739903028459
217,1.6178750320884782867881394202294
218,1.6188009238597041762155750851466
219,1.6197225773126581341674513689988
220,1.6206400310910203823323507383946
221,1.6215533233124001236378188552590
222,1.6224624915778462932310156770940
223,1.6233675729811383744055889334497
224,1.6242686041178723387691705236311
225,1.6251656210943442671902095121805
226,1.6260586595362351894606002117407
227,1.6269477545971057855168565810571
228,1.6278329409667027584149034975189
229,1.6287142528790840311978315358605
230,1.6295917241205674538888377228460
231,1.6304653880375048098680859719708
232,1.6313352775438915305416346115699
233,1.6322014251288071037951654343684
234,1.6330638628637023222859404300667
235,1.6339226224095265426604870399606
236,1.6347777350237046544540248479206
237,1.6356292315669673787855708649971
238,1.6364771425100366278472212762680
239,1.6373214979401713607533920109090
240,1.6381623275675760891543092429316
241,1.6389996607316763139469669951723
242,1.6398335264072637490196591683888
243,1.6406639532105153627881920262585
244,1.6414909694048879257441066198999
245,1.6423146029068924371106249278985
246,1.6431348812917509491578532157724
247,1.6439518317989371709467048503529
248,1.6447654813376084320395419841269
249,1.6455758564919239746769297827596
250,1.6463829835262599585249333791156
251,1.6471868883903190774034173641164
252,1.6479875967241375858941218578478
253,1.6487851338629948074302457867845
254,1.6495795248422247801237295590325
255,1.6503707944019339197577901472725
256,1.6511589669916247847113140381226
257,1.6519440667747323335573138760103
258,1.6527261176330691193939276528508
259,1.6535051431711862237568759036991
260,1.6542811667206503158171694087359
261,1.6550542113442371499201142913213
262,1.6558242998400462261967410405530
263,1.6565914547455354641338201201299
264,1.6573556983414813392591342648691
265,1.6581170526558630074741106564267
266,1.6588755394676725840698452189146
267,1.6596311803106547899628556118788
268,1.6603839964769759981537462474168
269,1.6611340090208269496118123639603
270,1.6618812387619548620141489706490
271,1.6626257062891342145799293216344
272,1.6633674319635701878478470987419
273,1.6641064359222422007951591427725
274,1.6648427380811847536000755084308
275,1.6655763581387094509106568244073
276,1.6663073155785664832569068122827
277,1.6670356296730530499033641158483
278,1.6677613194860604770741468583958
279,1.6684844038760715340027820005357
280,1.6692049014991000396605148840979
281,1.6699228308115806489743931231135
282,1.6706382100732063147911404272815
283,1.6713510573497166380215761067279
284,1.6720613905156342624885933187698
285,1.6727692272569561217283108139042
286,1.6734745850737955624770144162611
287,1.6741774812829804041241359984930
288,1.6748779330206033358958268127841
289,1.6755759572445292998213148068912
290,1.6762715707368605919987729311029
291,1.6769647901063575230890755617810
292,1.6776556317908175229333811171831
293,1.6783441120594165950575193825251
294,1.6790302470150081579676727454342
295,1.6797140525963813603701701707472
296,1.6803955445804864558656322804947
297,1.6810747385846171688310457857335
298,1.6817516500685593682304664672499
299,1.6824262943367028521992674388934
300,1.6830986865401179939946788843354
301,1.6837688416785976607374276255901
302,1.6844367746026664978642964088844
303,1.6851025000155547524078889695277
304,1.6857660324751402126202313788534
305,1.6864273863958596924540543836771
306,1.6870865760505893241091491018980
307,1.6877436155724908406048333218221
308,1.6883985189568313268145635060307
309,1.6890513000627725282366408121793
310,1.6897019726151300526545147605309
311,1.6903505502061060595983218519196
312,1.6909970462969929507483114674227
313,1.6916414742198494540370932675989
314,1.6922838471791509057329782792609
315,1.6929241782534130501564172456658
316,1.6935624803967907326800156599685
317,1.6941987664406490246263960272302
318,1.6948330490951121313179012766069
319,1.6954653409505872248495846725937
320,1.6960956544792632028529608027115
321,1.6967240020365882921949291781022
322,1.6973503958627226120522449033036
323,1.6979748480839692104105887024825
324,1.6985973707141825511384965592254
325,1.6992179756561562136269330779341
326,1.6998366747029880422315458541894
327,1.7004534795394255662838288932422
328,1.7010684017431888798765074398411
329,1.7016814527862759562926726252130
330,1.7022926440362468287554866207349
331,1.7029019867574880760865602543812
332,1.7035094921124586745073652435553
333,1.7041151711629175941337548059795
334,1.7047190348711313241805299013245
335,1.7053210941010656418022847254416
336,1.7059213596195576826169784344558
337,1.7065198420974711851519707021314
338,1.7071165521108359680593549638280
339,1.7077115001419677046016297257237
340,1.7083046965805740857436685741817
341,1.7088961517248430854232422088251
342,1.7094858757825158251444278323514
343,1.7100738788719436756789859571820
344,1.7106601710231295895780074849339
345,1.7112447621787554838241665858042
346,1.7118276621951931474150074511056
347,1.7124088808435022392328774460449
348,1.7129884278104121879212021768767
349,1.7135663126992915386888514352603
350,1.7141425450311022893804552910140
351,1.7147171342453413034130130275619
352,1.7152900897009684819424641177269
353,1.7158614206773209796360927540462
354,1.7164311363750148785262953968035
355,1.7169992459168346852274429582677
356,1.7175657583486088613050966461967
357,1.7181306826400746258413820126394
358,1.7186940276857312742045043047935
359,1.7192558023056777581679425159960
360,1.7198160152464434653064216217034
361,1.7203746751818039425450310965332
362,1.7209317907135880454710109480651
363,1.7214873703724711090300780507994
364,1.7220414226187591636107505474591
365,1.7225939558431624328950833196185
366,1.7231449783675569911554828773737
367,1.7236944984457374720198167697309
368,1.7242425242641576174469364357069
369,1.7247890639426632994692685444141
370,1.7253341255352137278928121471078
371,1.7258777170305936972761761627598
372,1.7264198463531158296840236904176
373,1.7269605213633127799440864348201
374,1.7274997498586237119041676300983
375,1.7280375395740657372736965835738
376,1.7285738981829017732828241257308
377,1.7291088332972966083868298543989
378,1.7296423524689643434433319330807
379,1.7301744631898090481827980064844
380,1.7307051728925553897551353080752
381,1.7312344889513721088062125463905
382,1.7317624186824854612731275082944
383,1.7322889693447873005790910478031
384,1.7328141481404327639480115734266
385,1.7333379622154311841132831050348
386,1.7338604186602308850926051973805
387,1.7343815245102936113852833235333
388,1.7349012867466625274094337518864
389,1.7354197122965244618836247101592
390,1.7359368080337635862782096917037
391,1.7364525807795068442953811436956
392,1.7369670373026647407735013358835
393,1.7374801843204649635207888875607
394,1.7379920284989774191938993181619
395,1.7385025764536335401125791628466
396,1.7390118347497395128972940722676
397,1.7395198099029830588563976289231
398,1.7400265083799337742775443608722
399,1.7405319365985355964333802150191
400,1.7410361009285956952798055456156
401,1.7415390076922658397871642026884
402,1.7420406631645169841411276584595
403,1.7425410735736098945750101275217
404,1.7430402451015597099448029246862
405,1.7435381838845919015144099560205
406,1.7440348960135957410087568026678
407,1.7445303875345723936775527881392
408,1.7450246644490751395881427523014
409,1.7455177327146445842483049494941
410,1.7460095982452413730630086336488
411,1.7465002669116706696677406108619
412,1.7469897445420019807544788997689
413,1.7474780369219854064762446366804
414,1.7479651497954607403033406293222
415,1.7484510888647637023216070532753
416,1.7489358597911257356347964885065
417,1.7494194681950702143864869949738
418,1.7499019196568022266686619407663
419,1.7503832197165962108591575656440
420,1.7508633738751764273414305766571
421,1.7513423875940942178220389670119
422,1.7518202662961013338822359906820
423,1.7522970153655171709363225742266
424,1.7527726401485935213563575190539
425,1.7532471459538732261574754482465
426,1.7537205380525463321194141689384
427,1.7541928216788012390100607420657
428,1.7546640020301708506351832175131
429,1.7551340842678776421388384669662
430,1.7556030735171705056972623064718
431,1.7560709748676608782992703972767
432,1.7565377933736553011655771126291
433,1.7570035340544797487426829112697
434,1.7574682018948068252495029092741
435,1.7579318018449736524893215983246
436,1.7583943388212983499593197474974
437,1.7588558177063932686690405875444
438,1.7593162433494739607720629570537
439,1.7597756205666645663600419562597
440,1.7602339541413006886739252906975
441,1.7606912488242269176295622938914
442,1.7611475093340925653489354515057
443,1.7616027403576452614366761988405
444,1.7620569465500170274182506395359
445,1.7625101325350121610468579460627
446,1.7629623029053879548723932128685
447,1.7634134622231354182913858740199
448,1.7638636150197532213271805736021
449,1.7643127657965227006942014569383
450,1.7647609190247760806362699233131
451,1.7652080791461654116876430181693
452,1.7656542505729250687531761418391
453,1.7660994376881335516337576622288
454,1.7665436448459709770002520838725
455,1.7669868763719758857407880634443
456,1.7674291365632966627378745525747
457,1.7678704296889422648374677149535
458,1.7683107599900286529644012970404
459,1.7687501316800234423681390471157
460,1.7691885489449884134000557785565
461,1.7696260159438177326100870624233
462,1.7700625368084750972721202583884
463,1.7704981156442284071745336144325
464,1.7709327565298801246451023192705
465,1.7713664635179972916115163608721
466,1.7717992406351383344607380023199
467,1.7722310918820759372826771641061
468,1.7726620212340209992071801085781
469,1.7730920326408401526033752560045
470,1.7735211300272743667529224671192
471,1.7739493172931529041786348015990
472,1.7743765983136069273155045994816
473,1.7748029769392781065015920659060
474,1.7752284569965297333624668331567
475,1.7756530422876492624222442454835
476,1.7760767365910547948277761308169
477,1.7764995436614958372649984569061
478,1.7769214672302530121398357896624
479,1.7773425110053356084928482160891
480,1.7777626786716773683151301013044
481,1.7781819738913290592291573327923
482,1.7786004003036514024108572416641
483,1.7790179615255037358418665240589
484,1.7794346611514312327380238962538
485,1.7798505027538521521265365880378
486,1.7802654898832397064579508326746
487,1.7806796260683053951359464187908
488,1.7810929148161784005473762107233
489,1.7815053596125842747942699488105
490,1.7819169639220207802748470294833
491,1.7823277311879330184166366677277
492,1.7827376648328864347718247509375
493,1.7831467682587376755054493207340
494,1.7835550448468043893405649314446
495,1.7839624979580321674783549107094
496,1.7843691309331618659400877148072
497,1.7847749470928929958757968384973
498,1.7851799497380471271179942193985
499,1.7855841421497288023285271470244
500,1.785987527589486092236881684687
501,1.786390109299466538006661903384
502,1.786791890502575935912977443098
503,1.787192874402631432453348153117
504,1.787593064184516773730994864787
505,1.787992463014332556571357645457
506,1.788391074039547211460303598727
507,1.788788900389146565327543869396
508,1.789185945173781624132133895528
509,1.789582211485912806138897088560
510,1.789977702399956679118560586764
511,1.790372420972428432550374101294
512,1.790766370242083985021672571225
513,1.791159553230060342567539301354
514,1.791551972940014884422109083036
515,1.791943632358263950492144197264
516,1.792334534453918940958864661768
517,1.792724682179021002821489078496
518,1.793114078468676088845921145896
519,1.793502726241187170947104213542
520,1.793890628398186465096701659467
521,1.794277787824764463078867968210
522,1.794664207389600047394122539367
523,1.795049889945088126571830627291
