Eigenstate,Potential Energy
1,0.500000000012619341225995256242352511
2,0.64623093773348710444426028326403992
3,0.73633760994693801114897858416850240
4,0.79966527831821852179199635555268457
5,0.8480465761586812836927357982910010
6,0.8870659982211389259729208371669601
7,0.9197208259428935836888539518049273
8,0.9477838457004382707511675841575273
9,0.9723835564997928800822119010950657
10,0.9942802124893677849605564909060581
11,1.0140093838100933145888824713191112
12,1.0319621657665209944512359596607412
13,1.0484326884243987996550590219719872
14,1.0636476494668231614986364279918562
15,1.0777854300084181079341739052320255
16,1.090988899465776787365348740795527
17,1.103374249018963599885231173184713
18,1.115037242617712269572273716621725
19,1.126057740085402571644931520801547
20,1.136503034752996192456925454158931
21,1.146430359540733517479429887711116
22,1.155888798116873496863332123742496
23,1.164920762834218113264312432024679
24,1.173563152130534407487078934351837
25,1.181848267324480773625112977240511
26,1.189804546423194639211801241916545
27,1.197457157084868248824349950035789
28,1.204828479977788463235032481930803
29,1.211938505982288666607217930411793
30,1.218805165032573306267984995656987
31,1.225444600249437090456143692076137
32,1.231871397937001285403815535691950
33,1.238098781706941749485887647690369
34,1.244138777243137076399467119366500
35,1.250002352880470153934576464685251
36,1.255699540138037566584540665745893
37,1.261239537542936721916996078794807
38,1.266630800450381837636705663361239
39,1.271881119068051276874668036562811
40,1.276997686496747935790126715061399
41,1.281987158282704113929646484549124
42,1.286855704721869696345667045787524
43,1.291609056950036131612585733305374
44,1.296252547684554674417026410202525
45,1.300791147345837792437268594412473
46,1.305229496173696354662767070830209
47,1.309571932860088605997813258330564
48,1.313822520142270568765820828417138
49,1.317985067735674967851465307724425
50,1.32206315293172306257908606645280
51,1.32606013914030680596538259457434
52,1.32997919261833353769524527781373
53,1.33382329759327529863213413940196
54,1.33759526996310372322553077025220
55,1.34129776973051597367231125670465
56,1.34493331230928260956895305410783
57,1.34850427882334932167695606586046
58,1.35201292550452727213670195794783
59,1.35546139228185283619315988981895
60,1.35885171064467303279735940560422
61,1.36218581085194870394542580485028
62,1.36546552855196649750558231829740
63,1.36869261086940881926479759335999
64,1.37186872201041844000623956838570
65,1.37499544843075960345718514981841
66,1.37807430360733014189420481536232
67,1.38110673244901681486759533951023
68,1.38409411537912992569940348642057
69,1.38703777211834059968331153724025
70,1.38993896519411583965141618957087
71,1.39279890320004777084221187403781
72,1.39561874382617524462494453204079
73,1.39839959667934296423229336813777
74,1.40114252591082444710105369679109
75,1.40384855266680403731773712511904
76,1.40651865737586362491108878358407
77,1.40915378188631733031561917491011
78,1.41175483146507161415027575653648
79,1.41432267666864145246429548913244
80,1.41685815509601509195802615767866
81,1.41936207303221055820996999330584
82,1.42183520699060563938793341644487
83,1.42427830516143433413260434976105
84,1.42669208877321846058580650326921
85,1.42907725337334384736206824079873
86,1.43143447003347466187291641077143
87,1.43376438648504196061342377414688
88,1.43606762818961916828494554479840
89,1.43834479934861369046648710088259
90,1.44059648385636064781790841706902
91,1.44282324620038326774749580946148
92,1.44502563231229617193734403825703
93,1.44720417037256554306437007950054
94,1.44935937157209722531669737885511
95,1.45149173083340265927614838504852
96,1.45360172749389072962119847309447
97,1.45568982595364926199508896440365
98,1.45775647628990703108919054898432
99,1.45980211484021366980248395083367
100,1.46182716475622852892206804992541
101,1.46383203652988023261505060690190
102,1.46581712849353310030115617721919
103,1.46778282729568869186249675746371
104,1.46972950835364346843650643071382
105,1.47165753628443048728121636544869
106,1.47356726531528228495827819069767
107,1.47545903967477402112375771016864
108,1.47733319396572671566234295295277
109,1.47919005352088181836642372224911
110,1.48102993474229593023648426182379
111,1.48285314542533863428068318685631
112,1.48465998506812696005806041066835
113,1.48645074516717447041572182368410
114,1.48822570949998420111400121684609
115,1.48998515439527423553104840341544
116,1.49172934899147636499006753398384
117,1.49345855548411657224564960001110
118,1.49517302936264504456009394448365
119,1.49687301963724970908431243490011
120,1.49855876905616144102291026042266
121,1.50023051431392082781883571935979
122,1.50188848625105745946018879547125
123,1.50353291004560052207978519601796
124,1.50516400539682179220940764589637
125,1.50678198670158256278757560655030
126,1.50838706322364083472209925799456
127,1.50997943925625452992229021825940
128,1.51155931427839389452580170221123
129,1.51312688310486418780698233794208
130,1.51468233603062137038635025750511
131,1.51622585896954810124271447525882
132,1.51775763358794237582864569345440
133,1.51927783743295935600615505900956
134,1.52078664405623566656039954904636
135,1.52228422313290732470688835881954
136,1.52377074057622878147729109691669
137,1.52524635864798724592525295741911
138,1.52671123606489285110314749508292
139,1.52816552810112311485500646980363
140,1.52960938668718470250260381824308
141,1.53104296050525094101178508579799
142,1.53246639508112546095891314213041
143,1.53387983287297369244816782354064
144,1.53528341335695676149330056373616
145,1.53667727310989814561850371914370
146,1.53806154588910557868198400599106
147,1.53943636270946249195990196154734
148,1.54080185191790432049502801456806
149,1.54215813926538147564006544884400
150,1.54350534797641262464856717263664
151,1.54484359881632419154240084053272
152,1.54617301015626637840024333589050
153,1.54749369803609465673479255681749
154,1.54880577622520062817449937901579
155,1.55010935628137049041569543585075
156,1.55140454760774897478105869461323
157,1.55269145750797980196028677129262
158,1.55397019123959447400631291722496
159,1.5552408520657130753924720744317
160,1.5565035413051234206402794017352
161,1.5577583583807970446087079761769
162,1.5590054008669014965162540699463
163,1.5602447645343637909651303851561
164,1.5614765433950396525324068604247
165,1.5627008297445371541156266720581
166,1.5639177142037452645916619577132
167,1.5651272857591145380780736747183
168,1.5663296318017326336803184976495
169,1.5675248381652397277854159066678
170,1.5687129891626235619875042560114
171,1.5698941676219343210760231023632
172,1.5710684549209572077142090879373
173,1.5722359310208781161085337786863
174,1.5733966744989782481528385255562
175,1.5745507625803916569499720054883
176,1.5756982711689554240335050045699
177,1.5768392748771857307967323668391
178,1.5779738470554089784948733585777
179,1.5791020598200744017359519096570
180,1.5802239840812791218289404684101
181,1.5813396895695282885449405686846
182,1.5824492448617580056463602335498
183,1.5835527174066440894275561964652
184,1.5846501735492209017724712674678
185,1.5857416785548320658219478566048
186,1.5868272966324340328394581307543
187,1.5879070909572763007417476036104
188,1.5889811236929737205779901540711
189,1.5900494560129946220140154940687
190,1.5911121481215804088651635415824
191,1.5921692592741158471950232513513
192,1.5932208477969664281477926086438
193,1.5942669711068011093263632367478
194,1.5953076857294137754622841642502
195,1.5963430473180613506992992428343
196,1.5973731106713322543527538527440
197,1.5983979297505595754277422861194
198,1.5994175576967931278367943893191
199,1.6004320468473432201321097683922
200,1.6014414487519100799130446843514
201,1.6024458141883099092871667324264
202,1.6034451931778109474957893191061
203,1.6044396350000901953856582330881
204,1.6054291882078224165878142332822
205,1.6064139006409113807152980362686
206,1.6073938194403763672761418803418
207,1.6083689910618998009267038045448
208,1.6093394612890502394695603769678
209,1.6103052752461864574230848549430
210,1.6112664774110541207612864588819
211,1.6122231116270824117799082064596
212,1.6131752211153908312103874260333
213,1.6141228484865105554691158612097
214,1.6150660357518353247251558868063
215,1.6160048243348010680105247724775
216,1.6169392550818082198231100548333
217,1.6178693682728906872571558908936
218,1.6187952036321404401036933072604
219,1.6197168003378909968492794109265
220,1.6206341970326723146931466967117
221,1.6215474318329349858647800741872
222,1.6224565423385609375994752337968
223,1.6233615656421541965950400963165
224,1.6242625383381267772397037782555
225,1.6251594965315822501454838006869
226,1.6260524758470005289195456908861
227,1.6269415114367325180115766053926
228,1.6278266379893064318280193068417
229,1.6287078897375529372479225218339
230,1.6295853004665538057682598891353
231,1.6304589035214158645325366104958
232,1.6313287318148806551467445080748
233,1.6321948178347647857702140526072
234,1.6330571936512471225302362191199
235,1.6339158909239959913433137624981
236,1.6347709409091460888939438291159
237,1.6356223744661287228802155566328
238,1.6364702220643571125193983838407
239,1.6373145137897721848750523286239
240,1.6381552793512510204036852915667
241,1.6389925480868822290501918544591
242,1.6398263489701111128224589543936
243,1.6406567106157586455977923748697
244,1.6414836612859159583768348857187
245,1.6423072288957187030747062285290
246,1.6431274410190038133956228676014
247,1.6439443248938500445551245664773
248,1.6447579074280098723823003849940
249,1.6455682152042277202956951973742
250,1.6463752744854548982515759949573
251,1.6471791112199591530694285646527
252,1.6479797510463316280275548453724
253,1.6487772192983963033247272825934
254,1.6495715410100215736577091594216
255,1.6503627409198378423369782828113
256,1.6511508434758612167000269176883
257,1.6519358728400296955594196702481
258,1.6527178528926482927370051298898
259,1.6534968072367498995274288020868
260,1.6542727592023722717879428492356
261,1.6550457318507514547043208942013
262,1.6558157479784363699574317393135
263,1.6565828301213234151698194362242
264,1.6573470005586165257826978947781
265,1.6581082813167112238881451886552
266,1.6588666941730048210461293159640
267,1.6596222606596359876155208662373
268,1.6603750020671537215951836553647
269,1.6611249394481199861713566702008
270,1.6618720936206417393924955013242
271,1.6626164851718416392048870427305
272,1.6633581344612614026898057581934
273,1.6640970616242052618933182864461
274,1.6648332865750207245426479523558
275,1.6655668290103205145049802203743
276,1.6662977084121439696171370222564
277,1.6670259440510653801762895503857
278,1.6677515549892410220152647136803
279,1.6684745600834063866070032595223
280,1.6691949779878157010436880535557
281,1.6699128271571316266935398841622
282,1.6706281258492626327832444542781
283,1.6713408921281512573321539655316
284,1.6720511438665104119531981432491
285,1.6727588987485145377605315666004
286,1.6734641742724416371091524288507
287,1.6741669877532712404370632810726
288,1.6748673563252347099655631135855
289,1.6755652969443225283015818093581
290,1.6762608263907493044487083932216
291,1.6769539612713743381469153915744
292,1.6776447180220806274268454516140
293,1.6783331129101162251329103324143
294,1.6790191620363929813089435358513
295,1.6797028813377447585710570589617
296,1.6803842865891527060068633274991
297,1.6810633934059275233051453704408
298,1.6817402172458580318468176800939
299,1.6824147734113228555916583314088
300,1.6830870770513669623431280301601
301,1.6837571431637434768058526829828
302,1.6844249865969228583450938548330
303,1.6850906220520666165535516383382
304,1.6857540640849691421314097103739
305,1.6864153271079690815824590419825
306,1.6870744253918295189226521054573
307,1.6877313730675841463507742181432
308,1.6883861841283569023061847488860
309,1.6890388724311511661753274257356
310,1.6896894516986088447898359021374
311,1.6903379355207429456154382937896
312,1.6909843373566411497600354151542
313,1.6916286705361417775466628226982
314,1.6922709482614839509207333094719
315,1.6929111836089312723311263150182
316,1.6935493895303703957233076388033
317,1.6941855788548820282458181589387
318,1.6948197642902897139112813730414
319,1.6954519584246835407702022270402
320,1.6960821737279187728521475820214
321,1.6967104225530933258048140384910
322,1.6973367171380002006581113546981
323,1.6979610696065583897487942631855
324,1.6985834919702212319412965862740
325,1.6992039961293639791220697539931
326,1.6998225938746488111899113703261
327,1.7004392968883701202942806121813
328,1.7010541167457772535119634777743
329,1.7016670649163796888169153024611
330,1.7022781527652310760053076691819
331,1.7028873915541935811479989108081
332,1.7034947924431835957904636592328
333,1.7041003664913991894336157122647
334,1.7047041246585274892969450817695
335,1.7053060778059363022746989708463
336,1.7059062366978460371145398839715
337,1.7065046120024847990424210361161
338,1.7071012142932277156637144141624
339,1.7076960540497165586252561873743
340,1.7082891416589657523563403544917
341,1.7088804874164504834439566953995
342,1.7094701015271794077693842347561
343,1.7100579941067515931730156356361
344,1.7106441751823976913319832567465
345,1.7112286546940071581624336550998
346,1.7118114424951389975187697013183
347,1.7123925483540195935261422995600
348,1.7129719819545244432475584608617
349,1.7135497528971473345878784287019
350,1.7141258706999545117525826257955
351,1.7147003447995259158429477986615
352,1.7152731845518831829303368468569
353,1.7158443992334036839658039403700
354,1.7164139980417220209792865013844
355,1.7169819900966193448304369027845
356,1.7175483844408987042781151199240
357,1.7181131900412496653916649350418
358,1.7186764157891014452899354637717
359,1.7192380705014603053318611463903
360,1.7197981629217401416630908967581
361,1.7203567017205780179730876690293
362,1.7209136954966411220486299547581
363,1.7214691527774197417228665733203
364,1.7220230820200112842000687558094
365,1.7225754916118935751097612934618
366,1.7231263898716863149469220929005
367,1.7236757850499035848956141269819
368,1.7242236853296941907524937444054
369,1.7247700988275744774832917314288
370,1.7253150335941493275755765956516
371,1.7258584976148241964850510945818
372,1.7264004988105071416429596538790
373,1.7269410450383008117288224207713
374,1.7274801440921887046765907445590
375,1.7280178037037063859727689138328
376,1.7285540315426091234510123562477
377,1.7290888352175277277824966551191
378,1.7296222222766157660625967909413
379,1.7301542002081899882843851785669
380,1.7306847764413607234523920499624
381,1.7312139583466551207614658176098
382,1.7317417532366303539992953682987
383,1.7322681683664814638226961945701
384,1.7327932109346388015971646860824
385,1.7333168880833586960424568971490
386,1.7338392068993080013248276400182
387,1.7343601744141382759194694462942
388,1.7348797976050535290281949661723
389,1.7353980833953722092239077562689
390,1.7359150386550806244131528111307
391,1.7364306702013781100417598526979
392,1.7369449847992175539046621217179
393,1.7374579891618387510297013066975
394,1.7379696899512931697154136205413
395,1.7384800937789629855781103549009
396,1.7389892072060740344579261251866
397,1.7394970367442023140740865159248
398,1.7400035888557740425454645465406
399,1.7405088699545578395490951330028
400,1.7410128864061533300557821399925
401,1.7415156445284722195434578128379
402,1.7420171505922125858857900078715
403,1.7425174108213292086369909622694
404,1.7430164313934978287828367980277
405,1.7435142184405708043840607920839
406,1.7440107780490302711270270673595
407,1.7445061162604359244821111093363
408,1.7450002390718649266442272699899
409,1.7454931524363467993125701725220
410,1.7459848622632958167680773465081
411,1.7464753744189351592465606317097
412,1.7469646947267164091768321219396
413,1.7474528289677354693231983492005
414,1.7479397828811413266576507523597
415,1.7484255621645419459040408771162
416,1.7489101724744037223670052194992
417,1.7493936194264473425121284778943
418,1.7498759085960372155131425131346
419,1.7503570455185687542575463767957
420,1.7508370356898484877120453521790
421,1.7513158845664709568109777710744
422,1.7517935975661916754495243770148
423,1.7522701800682939927010336740566
424,1.7527456374139534699620417534393
425,1.7532199749065961523639758392621
426,1.7536931978122543412698483159389
427,1.7541653113599173524639992295942
428,1.7546363207418772737005156607278
429,1.7551062311140736339752760683474
430,1.7555750475964298466045379461739
431,1.7560427752731889297408755521355
432,1.7565094191932456538170986482694
433,1.7569749843704704537908831428799
434,1.7574394757840362041027947038806
435,1.7579028983787356799970625048534
436,1.7583652570652976061695546424441
437,1.7588265567206994540872264286972
438,1.7592868021884759700162598342748
439,1.7597459982790241150370145815446
440,1.7602041497699054882314933439087
441,1.7606612614061433928687109967397
442,1.7611173379005181092056852673416
443,1.7615723839338600215709626441150
444,1.7620264041553352190723452285605
445,1.7624794031827329005577712935339
446,1.7629313856027456081483644338101
447,1.7633823559712494584816554169229
448,1.7638323188135775898348630265006
449,1.7642812786247946656015885388765
450,1.7647292398699645865305255911520
451,1.7651762069844189147879573216486
452,1.7656221843740188511589060660126
453,1.7660671764154165084253002192233
454,1.7665111874563118698356029171320
455,1.7669542218157090565039064783827
456,1.7673962837841672007021564991037
457,1.7678373776240506207171611938648
458,1.7682775075697746931326615381951
459,1.7687166778280499364249144133537
460,1.7691548925781239481776926362484
461,1.7695921559720190456041832060898
462,1.7700284721347688223882577059779
463,1.7704638451646522255777585233315
464,1.7708982791334233133970134682345
465,1.7713317780865406626748457709419
466,1.7717643460433935565452570240252
467,1.7721959869975242328971640515703
468,1.7726267049168512091732133415799
469,1.7730565037438861601737270206230
470,1.7734853873959518733650373440855
471,1.7739133597653955487570766829064
472,1.7743404247198017409195737711460
473,1.7747665861022002939965636269464
474,1.7751918477312767736690495358317
475,1.7756162134015743187771364714763
476,1.7760396868836994263620802486641
477,1.7764622719245220030795446873201
478,1.7768839722473743589266513925964
479,1.7773047915522480326199738224410
480,1.7777247335159888431581456495127
481,1.7781438017924887183957480459643
482,1.7785620000128778693662368563978
483,1.7789793317857126903008612364067
484,1.7793958006971622040476985543205
485,1.7798114103111945297148449200724
486,1.7802261641697579572781971843677
487,1.7806400657929634778824445673126
488,1.7810531186792633662665747350568
489,1.7814653263056290433581701777256
490,1.7818766921277260820239477262594
491,1.7822872195800884901187454602925
492,1.7826969120762908588778324251960
493,1.7831057730091183515159683115853
494,1.7835138057507356259260537340848
495,1.7839210136528528838233489551169
496,1.7843274000468922906040935881420
497,1.7847329682441504512843562081659
498,1.7851377215359608876155774095578
499,1.7855416631938540135374732113787
500,1.785944796469716739277791926263
501,1.786347124595947449944329697482
502,1.786748650785613813593548781660
503,1.787149378232604886700840553223
504,1.787549310111785360666444715270
505,1.787948449579144796613342863485
506,1.788346799771947578352770491574
507,1.788744363808881431327982962105
508,1.789141144790204147274898510625
509,1.789537145797886745265508227265
510,1.789932369895759122142983429574
511,1.790326820129651423193681665908
512,1.790720499527535033019329324207
513,1.791113411099661802112291851342
514,1.791505557838702185362473106831
515,1.791896942719882666559430056884
516,1.792287568701120679043891918224
517,1.792677438723158097064604076032
518,1.793066555709695083043689234932
519,1.793454922567521072512093553297
520,1.793842542186645753535865420684
521,1.794229417440426835679659498658
522,1.794615551185698884526230078720
523,1.795000946262899658726996748736
