Eigenstate,Potential Energy
1,0.500000000021505128494119916608661716
2,0.64623093779148881980119151091757860
3,0.73633761011731303595217305657111652
4,0.79966527867308929161829798878887029
5,0.8480465767733879738626129132198359
6,0.8870659991723389202855137196754476
7,0.9197208273078608684326989120470836
8,0.9477838475567709305644481218757878
9,0.9723835589252767870202340383761446
10,0.9942802155619071417629439193738552
11,1.0140093876076726696721378757688640
12,1.0319621703671832942442432062537069
13,1.0484326939062321715573461883820564
14,1.0636476559079527211611271052922792
15,1.0777854374870007974560716207929023
16,1.090988908059998117203500987467079
17,1.103374258807035628947569116592160
18,1.115037253677872415514702461109013
19,1.126057752495912992907634661018765
20,1.136503048592143573476061033463614
21,1.146430374886829144271639395473751
22,1.155888815048253545739327427399437
23,1.164920781429244098674156470817204
24,1.173563172467593750541057608780745
25,1.181848289481987463436979556171184
26,1.189804570479589966579411728734731
27,1.197457183118621596969975556041197
28,1.204828508067398144064839255833565
29,1.211938536206282793669812485077384
30,1.218805197469510697598201477795319
31,1.225444634977908195987834456171948
32,1.231871435035629134765855231066449
33,1.238098821254382916857843507640307
34,1.244138819318082659767461508760651
35,1.250002397561646766603969152663338
36,1.255699587504208339210558896260715
37,1.261239587672902313634021983408309
38,1.266630853422981455121292015083080
39,1.271881174962163700381226479893552
40,1.276997745391292551362759820450789
41,1.281987220256641951127143805321722
42,1.286855769854204470925788051872556
43,1.291609125319815292711356164234473
44,1.296252619370870455832746062871463
45,1.300791222427828267690334485128887
46,1.305229574730546495553613647754503
47,1.309572014971031344428152260359278
48,1.313822605886587861624464777117950
49,1.317985157192698864796488793973681
50,1.32206324618083677657394976415984
51,1.32606023626094578644867124972735
52,1.32997929368998654628248940104309
53,1.33382340269548548726432105007515
54,1.33759537917546971469281930772559
55,1.34129788313269294445344792131567
56,1.34493342998098337493728739441745
57,1.34850440084434542303296142846409
58,1.35201305195465006653481562515009
59,1.35546152324099458803758549118882
60,1.35885184619278800768753235695868
61,1.36218595106905426465712089571421
62,1.36546567351814420209832892094215
63,1.36869276066480552131037391510484
64,1.37186887671524739093666335362929
65,1.37499560812530155703389616384825
66,1.37807446837193446080298370736799
67,1.38110690236410257944635921929693
68,1.38409429052518704480832023187423
69,1.38703795257593092372875901827395
70,1.38993915104387427577713077828338
71,1.39279909452268340030270271704487
72,1.39561894070247244235770658763631
73,1.39839979919016252064677053504848
74,1.40114273413710469210351669356306
75,1.40384876668956196659239741338369
76,1.40651887727619602847878142480015
77,1.40915400774540192339234884402069
78,1.41175506336416817032877512704614
79,1.41432291468909293924256307419650
80,1.41685839931924880863951535478298
81,1.41936232353973927620080487646707
82,1.42183546386402874491715042858067
83,1.42427856848243897342199560974931
84,1.42669235862358068749648890600433
85,1.42907752983492977354542399193258
86,1.43143475318824160945399366292876
87,1.43376467641503961743537998600641
88,1.43606792497699074574350412775372
89,1.43834510307559708396378664070689
90,1.44059679460528959986549792217882
91,1.44282356405368853374860000499467
92,1.44502595735250668867884242513167
93,1.44720450268230959994928214048054
94,1.44935971123410363836826346901857
95,1.45149207793050194794490162593119
96,1.45360208210901629642670226568742
97,1.45569018816983857503431959445424
98,1.45775684619030280944376753552974
99,1.45980249250806507187726385057152
100,1.46182755027489234374783182990909
101,1.46383242998282207414828056785699
102,1.46581752996432860475413989954250
103,1.46778323686802471809720329068733
104,1.46972992611131930145597357653003
105,1.47165796231135904485234710224620
106,1.47356769969549132740020777388144
107,1.47545948249240736429616214580114
108,1.47733364530504544718826964731561
109,1.47919051346626551712446292302411
110,1.48103040337824388915728034874897
111,1.48285362283647108648302740481002
112,1.48466047133918630835999755298596
113,1.48645124038302652025630515396925
114,1.48822621374561939692156497565384
115,1.48998566775580890057404751258770
116,1.49172987155215394474674451151727
117,1.49345908733030888132900639935422
118,1.49517357057985351723483974425607
119,1.49687357031110665341266297252521
120,1.49855932927243129667632575761064
121,1.50023108415850142759299509434584
122,1.50188906580998129453068419989536
123,1.50353349940503601103624665913848
124,1.50516460464307455390595846349458
125,1.50678259592109669304774577742026
126,1.50838768250300018693650833809385
127,1.50998006868218399957764119954591
128,1.51155995393776070770393163753901
129,1.51312753308467919369292120509978
130,1.51468299641804033782454817002374
131,1.51622652985187301938082243312479
132,1.51775831505262275888847528906625
133,1.51927852956759355222156475165606
134,1.52078734694857217132219526525704
135,1.52228493687084609795498542192667
136,1.52377146524782256938055920767277
137,1.52524709434144290688978939938641
138,1.52671198286857268614986805183864
139,1.52816628610354620240770051343367
140,1.52961015597702823762784686053952
141,1.53104374117135157915226344351669
142,1.53246718721248066620204696967244
143,1.53388063655874309037201510367715
144,1.53528422868646349663215849758560
145,1.53667810017263024359064870726395
146,1.53806238477471731302234193722681
147,1.53943721350777575570072108262836
148,1.54080271471891000253774292920760
149,1.54215901415924084196190807037516
150,1.54350623505345870438764813675699
151,1.54484449816706316800527435216134
152,1.54617392187137898503621806586902
153,1.54749462220643757812151496568390
154,1.54880671294180790605951493544429
155,1.55011030563545493485906611354069
156,1.55140550969070358044432737860517
157,1.55269243241137916958729912596754
158,1.55397117905519623714175309524552
159,1.5552418528854593323841724841017
160,1.5565045552211421719716639020695
161,1.5577593854854036356079960450339
162,1.5590064412526000654893758734620
163,1.5602458182938487227994660299160
164,1.5614776106211970378188444714507
165,1.5627019105304462538367430383142
166,1.5639188086426799804239892284976
167,1.5651283939445448883567797958067
168,1.5663307538273262350750056138316
169,1.5675259741248632827358438584404
170,1.5687141391503443519485287564356
171,1.5698953317320217056212224081359
172,1.5710696332478841295480228920678
173,1.5722371236593226120370390983960
174,1.5733978815438249660635877150548
175,1.5745519841267333788516323891785
176,1.5756995073120945952063862928692
177,1.5768405257126359951055380974131
178,1.5779751126788967199153823969527
179,1.5791033403275402921476770147808
180,1.5802252795688796751260854313572
181,1.5813410001336374211183513047697
182,1.5824505705989686032894598020264
183,1.5835540584137695807196193244265
184,1.5846515299232968379929529691753
185,1.5857430503931177074498719581039
186,1.5868286840324139426922267789356
187,1.5879084940166619438081362218013
188,1.5889825425097050706003706063405
189,1.5900508906852417748752690282951
190,1.5911135987477452028360707212312
191,1.5921707259528334900982882753430
192,1.5932223306271071314952113502457
193,1.5942684701874717294860556268168
194,1.5953092011599594619132547352175
195,1.5963445791980672014309342390417
196,1.5973746591006249784673204398523
197,1.5983994948292091630042973968912
198,1.5994191395251145271152410656541
199,1.6004336455258980220766911440124
200,1.6014430643815082102147785132410
201,1.6024474468700113278651881243232
202,1.6034468430129273555580873150951
203,1.6044413020901867501098790659565
204,1.6054308726547194534834446756632
205,1.6064156025466861437287233767453
206,1.6073955389073647467007151353706
207,1.6083707281926980791802304493031
208,1.6093412161865168448020727353102
209,1.6103070480134437256182601820999
210,1.6112682681514900648952385711602
211,1.6122249204443525001015086103956
212,1.6131770481134197732077435338248
213,1.6141246937694940961873427478321
214,1.6150678994242420474008966258421
215,1.6160067065013742050892041050126
216,1.6169411558475674724254270121683
217,1.6178712877431340531616285994368
218,1.6187971419124460503126674646592
219,1.6197187575341189608062599519312
220,1.6206361732509665742197484994739
221,1.6215494271797251778860832435299
222,1.6224585569205642657271332230693
223,1.6233635995663773116378468075812
224,1.6242645917118676667119230603709
225,1.6251615694624321368437421186607
226,1.6260545684428457786395331527503
227,1.6269436238057565564763390960869
228,1.6278287702399916709001656465629
229,1.6287100419786827104985616323512
230,1.6295874728072143134759985657209
231,1.6304610960709981281864344419074
232,1.6313309446830824815276223468131
233,1.6321970511315927406852467870089
234,1.6330594474870185142763907871794
235,1.6339181654093408639755793026781
236,1.6347732361550092253749821177335
237,1.6356246905837716581886639851411
238,1.6364725591653601567944235056561
239,1.6373168719860364566755119176192
240,1.6381576587550004901607983038666
241,1.6389949488106657727931066210917
242,1.6398287711268045762567355015201
243,1.6406591543185669186175476151006
244,1.6414861266483750600916415751292
245,1.6423097160316978774331251992006
246,1.6431299500427076354878776824079
247,1.6439468559198205376778503987486
248,1.6447604605711286359491350566337
249,1.6455707905797180686779987501845
250,1.6463778722088840106341795428445
251,1.6471817314072402344070485499549
252,1.6479823938137260811880283024918
253,1.6487798847625159125059734680042
254,1.6495742292878306991659923153991
255,1.6503654521286556268145588057664
256,1.6511535777333638028911802209369
257,1.6519386302642524557042956735665
258,1.6527206336019880696835854364275
259,1.6534996113499672596524330611435
260,1.6542755868385937698183849345872
261,1.6550485831294719105319527987819
262,1.6558186230195211575391722296299
263,1.6565857290450107636078156038006
264,1.6573499234855198326785381270937
265,1.6581112283678213810664276687712
266,1.6588696654696925527432953894026
267,1.6596252563236542012305769902400
268,1.6603780222206398710998229811544
269,1.6611279842135984482776338941191
270,1.6618751631210262025769686981144
271,1.6626195795304375056889662032637
272,1.6633612538017682034768607493065
273,1.6641002060707190849637605109090
274,1.6648364562520366563091245652906
275,1.6655700240427350946305367443024
276,1.6663009289252576593000747158382
277,1.6670291901705850440062612053342
278,1.6677548268412824235058742281658
279,1.6684778577944966975111710948720
280,1.6691983016848960245588038948169
281,1.6699161769675595346641391374616
282,1.6706315019008147170101915500449
283,1.6713442945490256950977988948892
284,1.6720545727853295458728517482592
285,1.6727623542943274700719082225652
286,1.6734676565747268385117982133421
287,1.6741704969419391735950811377928
288,1.6748708925306304677875930242153
289,1.6755688602972284871130676630171
290,1.6762644170223877921724568098815
291,1.6769575793134103176086434485878
292,1.6776483636066243949035947751871
293,1.6783367861697261242630937856372
294,1.6790228631040781324837413653783
295,1.6797066103469678039279001410791
296,1.6803880436738325701465353448441
297,1.6810671787004421898553831980343
298,1.6817440308850473359959614078037
299,1.6824186155304912927169856881299
300,1.6830909477862865128597342513728
301,1.6837610426506564473627942613444
302,1.6844289149725447394965262216836
303,1.6850945794535889570336893259014
304,1.6857580506500624398632719660095
305,1.6864193429747856915513897672565
306,1.6870784706990065780466614228750
307,1.6877354479542465154808708452256
308,1.6883902887341201254909959604153
309,1.6890430068961244473252733890476
310,1.6896936161633980418776452780004
311,1.6903421301264535825502468617838
312,1.6909885622448814460743767412645
313,1.6916329258490256960358506660811
314,1.6922752341416342633760746416939
315,1.6929155001994826435092494487271
316,1.6935537369749724856950250576479
317,1.6941899572977026132694100334687
318,1.6948241738760178259759401346617
319,1.6954563992985326259571597446899
320,1.6960866460356298686615960506647
321,1.6967149264409382575985345873333
322,1.6973412527527847973686912754668
323,1.6979656370956257190076079731811
324,1.6985880914814548547790483463447
325,1.6992086278111912243964010563112
326,1.6998272578760440698965924356959
327,1.7004439933588581599193040154146
328,1.7010588458354365525834073779506
329,1.7016718267758457918169382857008
330,1.7022829475456999688037779114921
331,1.7028922194074250871207630284753
332,1.7034996535215047927866188428921
333,1.7041052609477078477577146614763
334,1.7047090526462955308733413866415
335,1.7053110394792132811626257456361
336,1.7059112322112626415442389636864
337,1.7065096415112563751438910431097
338,1.7071062779531578130612204763541
339,1.7077011520172004980722735881045
340,1.7082942740909942155869343402907
341,1.7088856544706131254185424137711
342,1.7094753033616684914940127647253
343,1.7100632308803656472729042880213
344,1.7106494470545451905618620767489
345,1.7112339618247102270376505416811
346,1.7118167850450371372527573188462
347,1.7123979264843734324615857124808
348,1.7129773958272195109701064059549
349,1.7135552026746978599129809720840
350,1.7141313565455072447778215962679
351,1.7147058668768639742597732534576
352,1.7152787430254299227908854366721
353,1.7158499942682265951022000834859
354,1.7164196298035366472747629353335
355,1.7169876587517932295430361470037
356,1.7175540901564553606199592854112
357,1.7181189329848725725681514630510
358,1.7186821961291380702053944632405
359,1.7192438884069261501698337101317
360,1.7198040185623228175514353673525
361,1.7203625952666413449458188698962
362,1.7209196271192292555185457198029
363,1.7214751226482613256806348056782
364,1.7220290903115236313576210910652
365,1.7225815384971868742079039751015
366,1.7231324755245678654486087591488
367,1.7236819096448820592888682644953
368,1.7242298490419839246887426605764
369,1.7247763018330997879787929990388
370,1.7253212760695488595060569558189
371,1.7258647797374552976053980641843
372,1.7264068207584502663661145079204
373,1.7269474069903639539002490221472
374,1.7274865462279118595826217382135
375,1.7280242462033660418233797275942
376,1.7285605145872227825800644301611
377,1.7290953589888584578103219778434
378,1.7296287869571767812682558957844
379,1.7301608059812492614371412377667
380,1.7306914234909456283543526553380
381,1.7312206468575571057556764174441
382,1.7317484833944096466995802946071
383,1.7322749403574718073244950930711
384,1.7328000249459522224304773506973
385,1.7333237443028903041309102691864
386,1.7338461055157408222167059916698
387,1.7343671156169481155598317200251
388,1.7348867815845138713431163608194
389,1.7354051103425591467905333614388
390,1.7359221087618778224919209316438
391,1.7364377836604818042497620245614
392,1.7369521418041415818115150550112
393,1.7374651899069196179603050521166
394,1.7379769346316951490462398785039
395,1.7384873825906832538165448846871
396,1.7389965403459478413972059933716
397,1.7395044144099081883185339562848
398,1.7400110112458390327040305265386
399,1.7405163372683627913978467187931
400,1.7410203988439381999728067360823
401,1.7415232022913414245224082842417
402,1.7420247538821403904377895731392
403,1.7425250598411651488926324429301
404,1.7430241263469721741099556334458
405,1.7435219595323000568391145461081
406,1.7440185654845227030616658996524
407,1.7445139502460971546292599705326
408,1.7450081198150035350109669916530
409,1.7455010801451799812106384176237
410,1.7459928371469550763156348225722
411,1.7464833966874720426783728555997
412,1.7469727645911082783031059227807
413,1.7474609466398913154805035284377
414,1.7479479485739076254989612262527
415,1.7484337760917085533780903229817
416,1.7489184348507098122405958213691
417,1.7494019304675873857924566841967
418,1.7498842685186670021306461625844
419,1.7503654545403114573734686263049
420,1.7508454940293007710181772208348
421,1.7513243924432091251929145977131
422,1.7518021552007778693882105779711
423,1.7522787876822824267910753411826
424,1.7527542952298967159291710545811
425,1.7532286831480514669674194062011
426,1.7537019567037900394795545028535
427,1.7541741211271192263062938387422
428,1.7546451816113550571696503374674
429,1.7551151433134675144123967944487
430,1.7555840113544170229494424387602
431,1.7560517908194902180658512322648
432,1.7565184867586321405565560241276
433,1.7569841041867701970841702725147
434,1.7574486480841409836721538308788
435,1.7579121233966077959863327584841
436,1.7583745350359767273744117563258
437,1.7588358878803095160106838549097
438,1.7592961867742321231890208593866
439,1.7597554365292397240454204177033
440,1.7602136419239991819011175463794
441,1.7606708077046461660554596974571
442,1.7611269385850804766514290356007
443,1.7615820392472592242848528486758
444,1.7620361143414824837039126013797
445,1.7624891684866807522326816609453
446,1.7629412062706952372418903503999
447,1.7633922322505581418106032488903
448,1.7638422509527661667528885838289
449,1.7642912668735550694881314730141
450,1.7647392844791674321683332710592
451,1.7651863082061211421294055606068
452,1.7656323424614714259865193115651
453,1.7660773916230721804165228611348
454,1.7665214600398329885478919208466
455,1.7669645520319754458006262820375
456,1.7674066718912840921459972255994
457,1.7678478238813566464624293879847
458,1.7682880122378499388538435289486
459,1.7687272411687240548239544037236
460,1.7691655148544843336185651078995
461,1.7696028374484190704286009935325
462,1.7700392130768361354720984268113
463,1.7704746458392971136940926457906
464,1.7709091398088471259566961838803
465,1.7713426990322443004223016922097
466,1.7717753275301860247926866070577
467,1.7722070292975312598867284001981
468,1.7726378083035239301624312933293
469,1.7730676684920098678465279262020
470,1.7734966137816548351759726665412
471,1.7739246480661578918235920101041
472,1.7743517752144644050831010408919
473,1.7747779990709740536800099974532
474,1.7752033234557513291648729958627
475,1.7756277521647274576066771539711
476,1.7760512889699062553538136080549
477,1.7764739376195642518206347040046
478,1.7768957018384497552492518973049
479,1.7773165853279797507905136247012
480,1.7777365917664350254453151093835
481,1.7781557248091520706997258955677
482,1.7785739880887153315990863345060
483,1.7789913852151451822156544113520
484,1.7794079197760844472208385654195
485,1.7798235953369849463942311017824
486,1.7802384154412886468170462910787
487,1.7806523836106102714864551243278
488,1.7810655033449159607903102432029
489,1.7814777781227012148936556661238
490,1.7818892114011659800332534866390
491,1.7822998066163890128701102986093
492,1.7827095671835001109531683534722
493,1.7831184964968501841659740165678
494,1.7835265979301802610574203865541
495,1.7839338748367876224112451443268
496,1.7843403305496923063315349072228
497,1.7847459683817996702191579865900
498,1.7851507916260629547440730457550
499,1.7855548035556433469833841240857
500,1.785958007424069673043623031532
501,1.786360406465393466021748989594
502,1.786762003894346864298761273226
503,1.787162802906494808100055519723
504,1.787562806678389377966552167518
505,1.787962018367719122401954734131
506,1.788360441113459104581899390074
507,1.788758078036019515945781758852
508,1.789154932237392496419322589897
509,1.789551006801295391944349781483
510,1.789946304793316502334880150188
511,1.790340829261056550315177078704
512,1.790734583234269771713248441058
513,1.791127569725003242324121982583
514,1.791519791727735117681328608996
515,1.791911252219512159811921348641
516,1.792301954160084761139740012012
517,1.792691900492040540104512193132
518,1.793081094140938293710960152041
519,1.793469538015439088781449780647
520,1.793857235007437348743987752782
521,1.794244187992188731014433597093
522,1.794630399828439071003285467586
523,1.795015873358550829734181875590
