Eigenstate,Potential Energy
1,0.500000000018082225921306015963274154
2,0.64623093776914591481268054252296212
3,0.73633761005168264298071881415384089
4,0.79966527853638892690111617250683218
5,0.8480465765365955197980294928331484
6,0.8870659988059246877728666826892631
7,0.9197208267820574348193416141263798
8,0.9477838468416857722558869960599084
9,0.9723835579909447447238387118064518
10,0.9942802143783171327318122525645868
11,1.0140093861447822766670701765340516
12,1.0319621685949271767072471390484231
13,1.0484326917945271136248121308098019
14,1.0636476534267007442231007048786290
15,1.0777854346060911051421905599644258
16,1.090988904749308307005144818138331
17,1.103374255036432426843234026128485
18,1.115037249417212090755262294120005
19,1.126057747715041552522631657009715
20,1.136503043260896801431632281450436
21,1.146430368975032528730715763595207
22,1.155888808525722124177044954729134
23,1.164920774265782241646642228854953
24,1.173563164632994898919053478413793
25,1.181848280946033829831401704446163
26,1.189804561212052208847599379640996
27,1.197457173089258469685472532790593
28,1.204828497245956132393927584366873
29,1.211938524562495733050073653945396
30,1.218805184973099381841532757995152
31,1.225444621598579975853450809948550
32,1.231871420743077508613337718734647
33,1.238098806018287114658142456999880
34,1.244138803108107221493946478186363
35,1.250002380347441115826801197691737
36,1.255699569255406352561837720843716
37,1.261239568359121886688045100253259
38,1.266630833013824065136272959083382
39,1.271881153427213966270280522756569
40,1.276997722700117791198578036951550
41,1.281987196378791737433326656282303
42,1.286855744759210183965774516415759
43,1.291609098977189671951360282698503
44,1.296252591750107149726612491422895
45,1.300791193498401381910562087900721
46,1.305229544461910139773065536302515
47,1.309571983332619177740449470318708
48,1.313822572847812636677139774910980
49,1.317985122722951970699236037719737
50,1.32206321024948778063433343668411
51,1.32606019883734197477915850262856
52,1.32997925474345246331541933793739
53,1.33382336219532247420519791697160
54,1.33759533709095544693694768605488
55,1.34129783943308096798630891250777
56,1.34493338463550264173503342672460
57,1.34850435382219982547593440517690
58,1.35201300322501797084393092162222
59,1.35546147277302836674079281490298
60,1.35885179395561357112121243267467
61,1.36218589703177059150524014105597
62,1.36546561764982286897035897238459
63,1.36869270293449023135738638355648
64,1.37186881709195350150360207478210
65,1.37499554657801560634475122562886
66,1.37807440486961369367448432653597
67,1.38110683687567447202479462794715
68,1.38409422301954882832319542820327
69,1.38703788302194910725618448662016
70,1.38993907941038416800512730462337
71,1.39279902077848863028992796030597
72,1.39561886481634447927653359865831
73,1.39839972113084019250109838783728
74,1.40114265387329370341119973658671
75,1.40384868418993441502173985221376
76,1.40651879250938992042811947633146
77,1.40915392068002068850138635357456
78,1.41175497396878017490997047297348
79,1.41432282293223099862055606540109
80,1.41685830516940969838629037614730
81,1.41936222696538324225399831072190
82,1.42183536483357901256866525987901
83,1.42427846696428125516384623597981
84,1.42669225458606268971056928542171
85,1.42907742324636070202368104300716
86,1.43143464401689167373530679297163
87,1.43376456462913953394523567691187
88,1.43606781054473123972239334871818
89,1.43834498596512839017008031100211
90,1.44059667478472096203839605448903
91,1.44282344149108770281659101643028
92,1.44502583201589941969897053318536
93,1.44720437453967914776237101418504
94,1.44935958025339025195511168119770
95,1.45149194407960236346833759267582
96,1.45360194535578322894424973636363
97,1.45569004848208020886610332207419
98,1.45775670353578228718017856987460
99,1.45980234685449998201076453494175
100,1.46182740158995420691319003276571
101,1.46383227823413582795538992681174
102,1.46581737511947208719747891244861
103,1.46778307889452814952588614076647
104,1.46972976497666476508821595066155
105,1.47165779798297996581808820243607
106,1.47356753214077195029550320310197
107,1.47545931167868222923287822934172
108,1.47733347119959886432249115360739
109,1.47919033603633103964692712178121
110,1.48103022259100378472905651292184
111,1.48285343865905580709954681153728
112,1.48466028373867395862644391898584
113,1.48645104932644232405728306787864
114,1.48822601919993516246784261142980
115,1.48998546968794248380908461350354
116,1.49172966992896871109561751044310
117,1.49345888211861316577222724909002
118,1.49517336174640008268948182374464
119,1.49687335782259214740308869960340
120,1.49855911309549570627672385843847
121,1.50023086425972753262381747094684
122,1.50188884215589411899099171016902
123,1.50353327196210227275384323698771
124,1.50516437337770211238711456423244
125,1.50678236079963399550819260910154
126,1.50838744349173571249528596089462
127,1.50997982574734570159527311678075
128,1.51155970704551545424630264989517
129,1.51312728220113220610211401571011
130,1.51468274150923462737780280552320
131,1.51622627088378882201866572225257
132,1.51775805199117696799294712518380
133,1.51927826237863914942539038857059
134,1.52078707559789765532961172844311
135,1.52228466132417491135481857205229
136,1.52377118547081252343207104998007
137,1.52524681029968560426165120706247
138,1.52671169452759294159254285586377
139,1.52816599342880146133938284734919
140,1.52960985893390799261398510153412
141,1.53104343972517678425860041643822
142,1.53246688132850314920094502948811
143,1.53388032620214496278182073009404
144,1.53528391382235656156905220219428
145,1.53667778076605540141250022157417
146,1.53806206079064396474388371836554
147,1.53943688491110120415917492768574
148,1.54080238147445885128802032107021
149,1.54215867623176439188029951624628
150,1.54350589240763434796282021606759
151,1.54484415076749378129524962076394
152,1.54617356968259231726989552104191
153,1.54749426519288563892315421605731
154,1.54880635106786635027446790946077
155,1.55010993886542244495891880151662
156,1.55140513798880124648946537715347
157,1.55269205574174986672478644440952
158,1.55397079738190400061626703685413
159,1.5552414661724887300396095192983
160,1.5565041634323976742208715511571
161,1.5577589885847089828479751988616
162,1.5590060392036976329390980310087
163,1.5602454110603988827373977269996
164,1.5614771981667775191970328190437
165,1.5627014928185514992482172171941
166,1.5639183856367205004000678304551
167,1.5651279656078466129707515274884
168,1.5663303201231298628284454165931
169,1.5675255350163236267037380730936
170,1.5687136946005296831591691042208
171,1.5698948817039130936467042476225
172,1.5710691777043747802810453798504
173,1.5722366625632172026294826109915
174,1.5733974148578389770022385335881
175,1.5745515118134924231462645957745
176,1.5756990293341337446651781903161
177,1.5768400420323991036727268340313
178,1.5779746232587357440458451539323
179,1.5791028451297146081929238516030
180,1.5802247785555553937060638558349
181,1.5813404932668866984532121355543
182,1.5824500578407689494653149817734
183,1.5835535397260031648621095609972
184,1.5846510052677497903222678505024
185,1.5857425197314794181907134161852
186,1.5868281473262763578120173152131
187,1.5879079512275188575565557847657
188,1.5889819935989514148231784145554
189,1.5900503356141729050751299948263
190,1.5911130374775561809529437352919
191,1.5921701584446183639817374007770
192,1.5932217568418582110408221403389
193,1.5942678900860788594079107621277
194,1.5953086147032092911242676073076
195,1.5963439863466424490026231238500
196,1.5973740598151036961403915059405
197,1.5983988890700639942212323086531
198,1.5994185272527119625458789354852
199,1.6004330267004976516075492069754
200,1.6014424389632619713726763325192
201,1.6024468148189627506455967399090
202,1.6034462042890108036282518606561
203,1.6044406566532266583567220793424
204,1.6054302204644295618759049827186
205,1.6064149435626687274641052108241
206,1.6073948730891098426042403343089
207,1.6083700554995827083269011265123
208,1.6093405365778042313296802895226
209,1.6103063614482825117001159209132
210,1.6112675745889135218409871123534
211,1.6122242198432777355542324736460
212,1.6131763404326469344052456814105
213,1.6141239789677055692552280003826
214,1.6150671774600016526449495257888
215,1.6160059773331263882542767636048
216,1.6169404194336364918877071448158
217,1.6178705440417231630210974783239
218,1.6187963908816366793521546508499
219,1.6197179991318698872833147164348
220,1.6206354074351130964572932776996
221,1.6215486539079782806275785424707
222,1.6224577761505097822216474802998
223,1.6233628112554750814202891155710
224,1.6242637958174506890433240118388
225,1.6251607659417057197762484306394
226,1.6260537572528866836705155311470
227,1.6269428049035121387557607396465
228,1.6278279435822790149550201732913
229,1.6287092075221877614380033553345
230,1.6295866305084910036404420246369
231,1.6304602458864674992036338758052
232,1.6313300865690318017384700070595
233,1.6321961850441746179017748641461
234,1.6330585733822500038340579360456
235,1.6339172832431025720418014442857
236,1.6347723458830444074754239897945
237,1.6356237921616853129125454203866
238,1.6364716525486181146398979966269
239,1.6373159571299644639956969592404
240,1.6381567356147832881708674572206
241,1.6389940173413461715984988411072
242,1.6398278312832825238622181188214
243,1.6406582060555985648765298796248
244,1.6414851699205718155548925276332
245,1.6423087507935254670556449958797
246,1.6431289762484851471523790120079
247,1.6439458735237194654930242686584
248,1.6447594695271719182804536846170
249,1.6455697908417791208685164440334
250,1.6463768637306857523724800212009
251,1.6471807141423541116991466137096
252,1.6479813677155710828896068361453
253,1.6487788497843575813710738689877
254,1.6495731853827801373678865955587
255,1.6503643992496684958942234306694
256,1.6511525158332393180883232717060
257,1.6519375592956323746256694282893
258,1.6527195535173556752628241549177
259,1.6534985221016463373553906371071
260,1.6542744883787475790474891047933
261,1.6550474754101021501827682415906
262,1.6558175059924669256619202471915
263,1.6565846026619475111263432665186
264,1.6573487876979583111186887614732
265,1.6581100831271065842454437119072
266,1.6588685107270026523715101953491
267,1.6596240920299994763762440804924
268,1.6603768483268616314674442732446
269,1.6611268006703679512498527482886
270,1.6618739698788435639696327207632
271,1.6626183765396306041685414755431
272,1.6633600410124915785889323231880
273,1.6640989834329528287210242849808
274,1.6648352237155852982867512008129
275,1.6655687815572264805163595741754
276,1.6662996764401418228467131707174
277,1.6670279276351330723317056811361
278,1.6677535542045853156887484072387
279,1.6684765750054642164263246062551
280,1.6691970086922555418984768556908
281,1.6699148737198548690896416155517
282,1.6706301883464049653781235689200
283,1.6713429706360840567048600926847
284,1.6720532384618421396626789313308
285,1.6727610095080921447466306308248
286,1.6734663012733519754909171208063
287,1.6741691310728424827634346428921
288,1.6748695160410377759739724010037
289,1.6755674731341725192403916840852
290,1.6762630191327069450197805095028
291,1.6769561706437474261251249738582
292,1.6776469441034254910137459557114
293,1.6783353557792391881021687719417
294,1.6790214217723518360016367738577
295,1.6797051580198502467993837089641
296,1.6803865802969700079251288753162
297,1.6810657042192777543076730269943
298,1.6817425452448197475524056438735
299,1.6824171186762335649751017787896
300,1.6830894396628246490745137357353
301,1.6837595232026081288590359643767
302,1.6844273841443180059369777229567
303,1.6850930371893808784764742779600
304,1.6857564968938577805412652797776
305,1.6864177776703555653058889421830
306,1.6870768937899070953469304301312
307,1.6877338593838174219605515449697
308,1.6883886884454834319317923085653
309,1.6890413948321830510179199498836
310,1.6896919922668343392889785852846
311,1.6903404943397280732253258441068
312,1.6909869145102313277012997201547
313,1.6916312661084634506007824705494
314,1.6922735623369462343349854138283
315,1.6929138162722276039023954149956
316,1.6935520408664801971296610817439
317,1.6941882489490723756951228005311
318,1.6948224532281170181769731150766
319,1.6954546662919952366847262676637
320,1.6960849006108550183290461759858
321,1.6967131685380887104612931134478
322,1.6973394823117854641100754018552
323,1.6979638540561621496513501483743
324,1.6985862957829717218479916714965
325,1.6992068193928907962368049263083
326,1.6998254366768846740863601967594
327,1.7004421593175526366775619831177
328,1.7010569988904506980986024627556
329,1.7016699668653967914094357008305
330,1.7022810746077548198384238647962
331,1.7028903333796990115840320252035
332,1.7034977543414596394421334892320
333,1.7041033485525504837932200561672
334,1.7047071269729762229513469318989
335,1.7053091004644240657864079337954
336,1.7059092797914356846494377690204
337,1.7065076756225623208259243080554
338,1.7071042985315041213473698845730
339,1.7076991589982297716464536706695
340,1.7082922674100825153748494688017
341,1.7088836340628682749393048038119
342,1.7094732691619283698839842410803
343,1.7100611828231964708866228845548
344,1.7106473850742397830537687633145
345,1.7112318858552862778274653109622
346,1.7118146950202354482768776424659
347,1.7123958223376561531113432803461
348,1.7129752774917683611172997860201
349,1.7135530700834123409218973585111
350,1.7141292096310028384022113564765
351,1.7147037055714703293219942537211
352,1.7152765672611890295398617954791
353,1.7158478039768909471455894184681
354,1.7164174249165673909797873713571
355,1.7169854392003583007996303665401
356,1.7175518558714276088584926604070
357,1.7181166838968278719234773136683
358,1.7186799321683534177174880575195
359,1.7192416095033777509105903753486
360,1.7198017246456841565659108260300
361,1.7203602862662812458952684136731
362,1.7209173029642099259115334567857
363,1.7214727832673363885773393387530
364,1.7220267356331361434315070594350
365,1.7225791684494673300476254167716
366,1.7231300900353321879820772211116
367,1.7236795086416295762101612211719
368,1.7242274324518953307674396478312
369,1.7247738695830350931302621861341
370,1.7253188280860453224997811675769
371,1.7258623159467253452875686455472
372,1.7264043410863793982713879471377
373,1.7269449113625086321262040846774
374,1.7274840345694973837994963580421
375,1.7280217184392844092904119868939
376,1.7285579706420305330380554854949
377,1.7290927987867745031196164254328
378,1.7296262104220802196592895601982
379,1.7301582130366771762397706868355
380,1.7306888140600908710708722230276
381,1.7312180208632660633409153123018
382,1.7317458407591799929106204700080
383,1.7322722810034502380004423102567
384,1.7327973487949321745621400102888
385,1.7333210512763096585781325275845
386,1.7338433955346795899306017097717
387,1.7343643886021261071647089399709
388,1.7348840374562883499322662575447
389,1.7354023490209224637883190273017
390,1.7359193301664550364330438069512
391,1.7364349877105282823254414501665
392,1.7369493284185405840303880326583
393,1.7374623590041798637706086607829
394,1.7379740861299483662644854783214
395,1.7384845164076817097058487250015
396,1.7389936563990618557373652143841
397,1.7395015126161236283082135769819
398,1.7400080915217547895335760119087
399,1.7405133995301882383300414368834
400,1.7410174430074906317669802628830
401,1.7415202282720434780358497952985
402,1.7420217615950174462363495346862
403,1.7425220492008427137014069711615
404,1.7430210972676732439323613998232
405,1.7435189119278424605718899884459
406,1.7440154992683164264308037974606
407,1.7445108653311416442703389439768
408,1.7450050161138849825159529410086
409,1.7454979575700685869608331653901
410,1.7459896956096022929189555432787
411,1.7464802360992077978272869575852
412,1.7469695848628381768675912051370
413,1.7474577476820938206484876295847
414,1.7479447302966312187749694582582
415,1.7484305384045688732485436633460
416,1.7489151776628867713126068970177
417,1.7493986536878222662107797954940
418,1.7498809720552595290756240996644
419,1.7503621383011168504404231133611
420,1.7508421579217267732770361293534
421,1.7513210363742130097246115786343
422,1.7517987790768634230921651324146
423,1.7522753914094969112563750363695
424,1.7527508787138278051593044150877
425,1.7532252462938241617467913897342
426,1.7536984994160635581674214233374
427,1.7541706433100838718418503775457
428,1.7546416831687290600694503928966
429,1.7551116241484938515392058623660
430,1.7555804713698602118292126768859
431,1.7560482299176330865273564081026
432,1.7565149048412725714654657628720
433,1.7569805011552178479414212054628
434,1.7574450238392139808437385613135
435,1.7579084778386294033294772881892
436,1.7583708680647719890219182922932
437,1.7588321993952018730740001735754
438,1.7592924766740400041366354766312
439,1.7597517047122731085115638540490
440,1.7602098882880561376767799336969
441,1.7606670321470093590112858998467
442,1.7611231410025136533390730145445
443,1.7615782195360036669613018217704
444,1.7620322723972534375196968897849
445,1.7624853042046638243227386632344
446,1.7629373195455427674551969443982
447,1.7633883229763855448111167192589
448,1.7638383190231482452223865610916
449,1.7642873121815222981577324882823
450,1.7647353069172022124034593681695
451,1.7651823076661540267892664982554
452,1.7656283188348773142765619907560
453,1.7660733448006664824490479698862
454,1.7665173899118677593232101407508
455,1.7669604584881354883179411459759
456,1.7674025548206830293496376390651
457,1.7678436831725329617265426584563
458,1.7682838477787629847048890596307
459,1.7687230528467500295974590702019
460,1.7691613025564122257429470838298
461,1.7695986010604465700256561152252
462,1.7700349524845655129605416382195
463,1.7704703609277310650787089192217
464,1.7709048304623845844826536476292
465,1.7713383651346762142701530114171
466,1.7717709689646911004865429434617
467,1.7722026459466716710839392397874
468,1.7726334000492409914899700311516
469,1.7730632352156196734450496198084
470,1.7734921553638438616093955038836
471,1.7739201643869785650076728043897
472,1.7743472661533306308829639390152
473,1.7747734645066567118225489957218
474,1.7751987632663737301081868871828
475,1.7756231662277607620043971508345
476,1.7760466771621648557486101803647
477,1.7764692998172011161965519990378
478,1.7768910379169517320687659930643
479,1.7773118951621628351380427734646
480,1.7777318752304395858942718137829
481,1.7781509817764380365162803057447
482,1.7785692184320573398913176180009
483,1.7789865888066276846323361597415
484,1.7794030964870967757998081294933
485,1.7798187450382163381552900328971
486,1.7802335380027232266904486085234
487,1.7806474789015219931627431868481
488,1.7810605712338635050729258047301
489,1.7814728184775228451311072577569
490,1.7818842240889743542022548989008
491,1.7822947915035659518768834972715
492,1.7827045241356913227146555587007
493,1.7831134253789599430278291192146
494,1.7835214986063660421007794154523
495,1.7839287471704546901946884540043
496,1.7843351744034882576100472667782
497,1.7847407836176089301761257816675
498,1.7851455781050012262669678994212
499,1.7855495611380520125088927670695
500,1.785952735969510148491869039039
501,1.786355105832641506334303173000
502,1.786756673941386820088638418660
503,1.787157443490513832917487596789
504,1.787557417655771585676867243287
505,1.787956599594039694167769498618
506,1.788354992443478344934647187717
507,1.788752599323676857426020428443
508,1.789149423335800452259267521166
509,1.789545467562733456259769056712
510,1.789940735069224997287094278691
511,1.790335228902030419697881779600
512,1.790728952090052320412392839254
513,1.791121907644479821091982878631
514,1.791514098558926752660385745945
515,1.791905527809569126236388214064
516,1.792296198355280100636663685935
517,1.792686113137763521008712878903
518,1.793075275081687813801977096833
519,1.793463687094817019842807508191
520,1.793851352068141822338377672304
521,1.794238272876007364861290660809
522,1.794624452376242135337165685065
523,1.795009893410284353016177024131
