Eigenstate,Potential Energy
1,0.500000000035917432326981265526673595
2,0.64623093788556485722702611248686944
3,0.73633761039365393623192165968560079
4,0.79966527924867620804707158163391136
5,0.8480465777704231268804424757240261
6,0.8870660007151637375976840308239754
7,0.9197208295218203446968071651869427
8,0.9477838505677399085375780764123608
9,0.9723835628594395768770605356737596
10,0.9942802205456455751373270050110855
11,1.0140093937675051997993071909184038
12,1.0319621778297301084082340870688712
13,1.0484327027981944647238537266182400
14,1.0636476663561001193862272494867085
15,1.0777854496181636978957495113774128
16,1.090988922001063116490631538008309
17,1.103374274684942960520116113176237
18,1.115037271619614734210618354004296
19,1.126057772628535087651906487878276
20,1.136503071042742734699803329624140
21,1.146430399782556003146280285500435
22,1.155888842516313259984267500278464
23,1.164920811596897797401234900189837
24,1.173563205462160175806776769708335
25,1.181848325430844763371147045026461
26,1.189804609510177606910078331283442
27,1.197457225358442366210743086052505
28,1.204828553644020233692406165079399
29,1.211938585247341939032207800537598
30,1.218805250102712368548431819705582
31,1.225444691331029828666868998798774
32,1.231871495236522397792575326572360
33,1.238098885430976006582266637333378
34,1.244138887598382620320812368327734
35,1.250002470073741831316414168371043
36,1.255699664376270290623666400007406
37,1.261239669033188859853511990044741
38,1.266630939399838620668355943469700
39,1.271881265684028230031536401166257
40,1.276997840986694325729291649115424
41,1.281987320854206412959719610673611
42,1.286855875582655061277365783094927
43,1.291609236307975896266583639484646
44,1.296252735747667854814460558182763
45,1.300791344322294603859441728968071
46,1.305229702271821739901008682809947
47,1.309572148288365774227071110496527
48,1.313822745109344544570381809641436
49,1.317985302450356150011304508140950
50,1.32206339760299079229333691934677
51,1.32606039397731294424738847608594
52,1.32997945783040605172317728557924
53,1.33382357338992185688167822307664
54,1.33759555655401529924780583812134
55,1.34129806732557045841182895905960
56,1.34493362111854843214389243424136
57,1.34850459905708907856787894796478
58,1.35201325737320136475077431774180
59,1.35546173599612311678909416322008
60,1.35885206641540645877238954713342
61,1.36218617889022100049970603953027
62,1.36546590906906582871193457576938
63,1.36869300407683946758273514321972
64,1.37186912811990449428901142529391
65,1.37499586765424865550939849751052
66,1.37807473615699699164536649489426
67,1.38110717853726718423394201411818
68,1.38409457521860418121269215235012
69,1.38703824592191748397100849085138
70,1.38993945317491621185771514790541
71,1.39279940557143835608419257827619
72,1.39561926080177239258224352425873
73,1.39840012847301641697268994896007
74,1.40114307273670111624784254203684
75,1.40384911473927179066810265690662
76,1.40651923490957508261763265972900
77,1.40915437509619367074604182930537
78,1.41175544056630638954278007175454
79,1.41432330187670441449871635766809
80,1.41685879662665602736488187691090
81,1.41936273110146313454181049810501
82,1.42183588181479126107932306374415
83,1.42427899695716600897692491999499
84,1.42669279775740467675887931215689
85,1.42907797976319246112427529346585
86,1.43143521404649679608305301225517
87,1.43376514833905591418915925857961
88,1.43606840810275433674615119150161
89,1.43834559753931449769914070259997
90,1.44059730054339048919764590186981
91,1.44282408160282846476324261891607
92,1.44502648664956993845668731995761
93,1.44720504386441196338362733189394
94,1.44936026443859524413983910258888
95,1.45149264329497008376795829781513
96,1.45360265977128824368114049834421
97,1.45569077826798445289964283314086
98,1.45775744886263842865137965907073
99,1.45980310789315479819860208367273
100,1.46182817851155197133658572954112
101,1.46383307121012170885586190014841
102,1.46581818432159555753836437511298
103,1.46778390449484640864498021074014
104,1.46973060714754617214171199520976
105,1.47165865689710748515453780861211
106,1.47356840797114660889951892831716
107,1.47546020459862658637925012148215
108,1.47733438138276049358227080196552
109,1.47919126365668602338809428478448
110,1.48103116782286022125520988681047
111,1.48285440167705733057110141486242
112,1.48466126471780327190975312997768
113,1.48645204844202474464802188700871
114,1.48822703662764218163602540970099
115,1.48998650560379533911402385589880
116,1.49173072450934197242011420640336
117,1.49345995554023833502626101407043
118,1.49517445418636920733470118669157
119,1.49687446945836144795033279935760
120,1.49856024410488921790989093111976
121,1.50023201482094076110437698492819
122,1.50189001244749771099842572237246
123,1.50353446216304570081842580607284
124,1.50516558366731737457238238319002
125,1.50678359135763933000156125763740
126,1.50838869449823932726636681867871
127,1.50998109738284951928241595527869
128,1.51156099949091887243308842218298
129,1.51312859563773587314654139158551
130,1.51468407611874423395800483552313
131,1.51622762684831890856013453147274
132,1.51775942949325474814347393272220
133,1.51927966160120834974480090062393
134,1.52078849672432237136280924002564
135,1.52228610453824348025768544220666
136,1.52377265095674141332085097755832
137,1.52524829824212332045784867179759
138,1.52671320511162394993637789877412
139,1.52816752683995012874614611229110
140,1.52961141535814254504885680648214
141,1.53104501934891328230665748257260
142,1.53246848433860948141045615198374
143,1.53388195278594485696005088317917
144,1.53528556416763361421125040390431
145,1.53667945506105712544583370527560
146,1.53806375922408585576954989598702
147,1.53943860767217082537720631299267
148,1.54080412875281993729049944531879
149,1.54216044821756097150027299037745
150,1.54350768929149488636735496484806
151,1.54484597274053534151263521231388
152,1.54617541693642474134222297574173
153,1.54749613791961574887705756815543
154,1.54880824946010216910408980457939
155,1.55011186311627743781672254430713
156,1.55140708829189858228199039197504
157,1.55269403229122670031178003888469
158,1.55397280037241577581318812581157
159,1.5552434957992135036250653574943
160,1.5565062198910404611519522392080
161,1.5577610720715061228881075703617
162,1.5590081499154211789045439661516
163,1.5602475491943610105699772397944
164,1.5614793639208349600724830205286
165,1.5627036863911099939310598173054
166,1.5639206072267392760574312504827
167,1.5651302154148428826593483697976
168,1.5663325983471833478705779190426
169,1.5675278418580811021696950131601
170,1.5687160302612095466754244184570
171,1.5698972463853099577506496328994
172,1.5710715716088640885450122166207
173,1.5722390858937598697784301168828
174,1.5733998678179860532513076125730
175,1.5745539946073897829861892757917
176,1.5757015421665268003253603834474
177,1.5768425851086375434935828163015
178,1.5779771967847782959939406978556
179,1.5791054493121338287542622978899
180,1.5802274136015424823948068179264
181,1.5813431593842563381749748986529
182,1.5824527552379641729761991345093
183,1.5835562686121002475665452047763
184,1.5846537658524631696547128872870
185,1.5857453122251666398284151844925
186,1.5868309719399430489676965193149
187,1.5879108081728237276024062430917
188,1.5889848830882112834992474872464
189,1.5900532578603677585374592455946
190,1.5911159926943342559189536052962
191,1.5921731468463012602323382844480
192,1.5932247786434460325410840903191
193,1.5942709455032553843102073145868
194,1.5953117039523471709200275528351
195,1.5963471096448084370911362062054
196,1.5973772173800639060852451302206
197,1.5984020811202891879674213614336
198,1.5994217540073828688727527881001
199,1.6004362883795103150953283434460
200,1.6014457357872331321624100862922
201,1.6024501470092352552748956138070
202,1.6034495720676590472277543432575
203,1.6044440602430620584943149866908
204,1.6054336600890060643386176076483
205,1.6064184194462883442696483134031
206,1.6073983854568282225371524244503
207,1.6083736045772147402964492290280
208,1.6093441225919296808495022655343
209,1.6103099846262516907919970162429
210,1.6112712351588529926680591321750
211,1.6122279180340960480912906884685
212,1.6131800764740403984567108644053
213,1.6141277530901640611341181389589
214,1.6150709898948144568287810268045
215,1.6160098283123880743367645412885
216,1.6169443091902528271479071537127
217,1.6178744728094170609345019616321
218,1.6188003588949541843710891338452
219,1.6197220066261861962170343467274
220,1.6206394546466386167850291318446
221,1.6215527410737647260807702211840
222,1.6224619035084563059747388845857
223,1.6233669790443344472323370102680
224,1.6242680042768354806958745336130
225,1.6251650153120945891562023722321
226,1.6260580477756306378494856640282
227,1.6269471368208408664210144119847
228,1.6278323171373072525501108337846
229,1.6287136229589216993745500057528
230,1.6295910880718347329457553029910
231,1.6304647458222294989723088544009
232,1.6313346291239314677594322821243
233,1.6322007704658488328356042228155
234,1.6330632019192597493190351634580
235,1.6339219551449395831104427234706
236,1.6347770614001378696669438316078
237,1.6356285515454086024701471687464
238,1.6364764560512955821856007420259
239,1.6373208050048782620787438699348
240,1.6381616281161802430899325766964
241,1.6389989547244446999012385403930
242,1.6398328138042795939295157964382
243,1.6406632339716767040030786437716
244,1.6414902434899061629409221797354
245,1.6423138702752908731291970510898
246,1.6431341419028633196451551137566
247,1.6439510856119061626967019923152
248,1.6447647283113841899148363420567
249,1.6455750965852625969965351579299
250,1.6463822166977219808016144289252
251,1.6471861145982679443127385435673
252,1.6479868159267381113560278538912
253,1.6487843460182116226826333901595
254,1.6495787299078207696661296792464
255,1.6503699923354686450423912751579
256,1.6511581577504528954563659761340
257,1.6519432503160019665575396744681
258,1.6527252939137202847003193054404
259,1.6535043121479491780976970411385
260,1.6542803283500439231296869985001
261,1.6550533655825672288620191086293
262,1.6558234466434038845040312369535
263,1.6565905940697954196908633810563
264,1.6573548301423002277451357990715
265,1.6581161768886776764484252129649
266,1.6588746560876983733573362444290
267,1.6596302892728837981987472470272
268,1.6603830977361753353460894768086
269,1.6611331025315369755777172229122
270,1.6618803244784874105447446494641
271,1.6626247841655708031870053440316
272,1.6633665019537602129438008759602
273,1.6641054979798011181559826022869
274,1.6648417921594922439595306741396
275,1.6655754041909075705320503136278
276,1.6663063535575577993268656654494
277,1.6670346595314987605909231169351
278,1.6677603411763785160958420901420
279,1.6684834173504346595333331290581
280,1.6692039067094339074263687197093
281,1.6699218277095618693658040148504
282,1.6706371986102604938264224899343
283,1.6713500374770164019953408194136
284,1.6720603621840972661340324873096
285,1.6727681904172430397211096342511
286,1.6734735396763080641070731106759
287,1.6741764272778591109589556666312
288,1.6748768703577257622572806927569
289,1.6755748858735077758958694079564
290,1.6762704906070401693985983504413
291,1.6769637011668138626798573267218
292,1.6776545339903547647422512165257
293,1.6783430053465652100723286181244
294,1.6790291313380227816365853482525
295,1.6797129279032386076085080132197
296,1.6803944108188827173744742100439
297,1.6810735957019663885299569490855
298,1.6817504980119908016041356459674
299,1.6824251330530588053556498636291
300,1.6830975159759515432299173915718
301,1.6837676617801703524001464448130
302,1.6844355853159460283097420990764
303,1.6851013012862126278296589479786
304,1.6857648242485493885447446385393
305,1.6864261686170921926806811309860
306,1.6870853486644138388759534074332
307,1.6877423785233703037575380312206
308,1.6883972721889204717535284832205
309,1.6890500435199154224139642369869
310,1.6897007062408576103906727935038
311,1.6903492739436335329850268142835
312,1.6909957600892173984012145571022
313,1.6916401780093471874594053825509
314,1.6922825409081749130479937165153
315,1.6929228618638903969641180380174
316,1.6935611538303199397898608626380
317,1.6941974296384974224153904458671
318,1.6948317019982131904600880781632
319,1.6954639834995378631597874391559
320,1.6960942866143210679848878243274
321,1.6967226236976690199298517497965
322,1.6973490069893970599120340183774
323,1.6979734486154606663250977413648
324,1.6985959605893639168940056811718
325,1.6992165548135471628192292739427
326,1.6998352430807521524435679271378
327,1.7004520370753674252045438664282
328,1.7010669483747511650739585735210
329,1.7016799884505364883506010221898
330,1.7022911686699155974797352624701
331,1.7029005002969042394828466602569
332,1.7035079944935875302295616503844
333,1.7041136623213475230970066978515
334,1.7047175147420707060301108297618
335,1.7053195626193397419253795976303
336,1.7059198167196055103802578932417
337,1.7065182877133423230441581589568
338,1.7071149861761873714138011929282
339,1.7077099225900604715698462966128
340,1.7083031073442701971866262820849
341,1.7088945507366021143826289524658
342,1.7094842629743916155527644672062
343,1.7100722541755809899619040777997
344,1.7106585343697607247984478026458
345,1.7112431134991968560134779874176
346,1.7118260014198418437316749334644
347,1.7124072079023325375842391336217
348,1.7129867426329720436798699740020
349,1.7135646152146990381299732297151
350,1.7141408351680420694615172076474
351,1.7147154119320609375131375390992
352,1.7152883548652748311729872831111
353,1.7158596732465765093290916338169
354,1.7164293762761339395026199371859
355,1.7169974730762797594412675895434
356,1.7175639726923867714557808439579
357,1.7181288840937327085390063039566
358,1.7186922161743535162691722635211
359,1.7192539777538808956384320027848
360,1.7198141775783730447270808531243
361,1.7203728243211303440952574141062
362,1.7209299265835024674952853343759
363,1.7214854928956815135206051743829
364,1.7220395317174861821894744977842
365,1.7225920514391352328350106991891
366,1.7231430603820091009760174203827
367,1.7236925667994025661839782711125
368,1.7242405788772652596823249041634
369,1.7247871047349346442284559496478
370,1.7253321524258571794617477172291
371,1.7258757299383005260338531845197
372,1.7264178451960557450080830031428
373,1.7269585060591294592525563365577
374,1.7274977203244302853144711978644
375,1.7280354957264402273551542696923
376,1.7285718399378824893700112681451
377,1.7291067605703774949150396865949
378,1.7296402651750902817597321663509
379,1.7301723612433711112798708257317
380,1.7307030562073860493645007131744
381,1.7312323574407403942846226310376
382,1.7317602722590920697034887191018
383,1.7322868079207596575023316769836
384,1.7328119716273200341331185117739
385,1.7333357705241992317649273140184
386,1.7338582117012571828876969879043
387,1.7343793021933620977208238630618
388,1.7348990489809584112361489115959
389,1.7354174589906289744912199872745
390,1.7359345390956486793886497349091
391,1.7364502961165298338126896946628
392,1.7369647368215628955284141284027
393,1.7374778679273500383406483259722
394,1.7379896960993301316174462379119
395,1.7385002279522979900613207677182
396,1.7390094700509175446040733713952
397,1.7395174289102285643431564264195
398,1.7400241109961469376634610898228
399,1.7405295227259570783451217064292
400,1.7410336704688007566249796312834
401,1.7415365605461584041417132532236
402,1.7420381992323236379911015298489
403,1.7425385927548738246419284752308
404,1.7430377472951345768132161404686
405,1.7435356689886356487690672909637
406,1.7440323639255643390774281061233
407,1.7445278381512135175643557435768
408,1.7450220976664217796702630650800
409,1.7455151484280085892973844193228
410,1.7460069963492069246401456562267
411,1.7464976473000876870292148704148
412,1.7469871071079794553926858628593
413,1.7474753815578846654075670629559
414,1.7479624763928886372021411303985
415,1.7484483973145657355863930901541
416,1.7489331499833790924588624063532
417,1.7494167400190767398928286569218
418,1.7498991730010813171542769977626
419,1.7503804544688776301808426040546
420,1.7508605899223930454599581373018
421,1.7513395848223746705082528907360
422,1.7518174445907626025735006084582
423,1.7522941746110570817165227679810
424,1.7527697802286831620184027623795
425,1.7532442667513492802910682302657
426,1.7537176394494033291517805741277
427,1.7541899035561837191111794745867
428,1.7546610642683654433827451122903
429,1.7551311267463050578220494829442
430,1.7556000961143774381220428592401
431,1.7560679774613118179398978758833
432,1.7565347758405242574906288804859
433,1.7570004962704418805264961771565
434,1.7574651437348299776606807527784
435,1.7579287231831097997315176626595
436,1.7583912395306749422203871617553
437,1.7588526976592044821147223046127
438,1.7593131024169718493036064337522
439,1.7597724586191501138333198205801
440,1.7602307710481147602592114687565
441,1.7606880444537411089714485793033
442,1.7611442835536999481631429844052
443,1.7615994930337510241622454377117
444,1.7620536775480290095215952969814
445,1.7625068417193312795513720499692
446,1.7629589901393985216677563410476
447,1.7634101273691953467517639554329
448,1.7638602579391841207470811041909
449,1.7643093863495998570259607794691
450,1.7647575170707183219918187971875
451,1.7652046545431248570397354616054
452,1.7656508031779767582508414334708
453,1.7660959673572649569201096771150
454,1.7665401514340713898944196754425
455,1.7669833597328256836231403158081
456,1.7674255965495564489486288093415
457,1.7678668661521418823737987735452
458,1.7683071727805560697345737544280
459,1.7687465206471135062313975112691
460,1.7691849139367114751965730401810
461,1.7696223568070681353526565556181
462,1.7700588533889595296457379336152
463,1.7704944077864541194586569547847
464,1.7709290240771430051440230826887
465,1.7713627063123698016464189051031
466,1.7717954585174572999484351346100
467,1.7722272846919301948910794245810
468,1.7726581888097388950476747822246
469,1.7730881748194768913867093702463
470,1.7735172466445992093011623839886
471,1.7739454081836362111517986411587
472,1.7743726633104070469775599252484
473,1.7747990158742281043146993606793
474,1.7752244697001239611609141100083
475,1.7756490285890297648837818518264
476,1.7760726963179975509196586795385
477,1.7764954766403968343062764521813
478,1.7769173732861141500813245419981
479,1.7773383899617504319766852608587
480,1.7777585303508166240371638719753
481,1.7781777981139260760839920647830
482,1.7785961968889872918604962254919
483,1.7790137302913924099032433769439
484,1.7794304019142042369441342286497
485,1.7798462153283433107697886728387
486,1.7802611740827695773814729592144
487,1.7806752817046655312896698460291
488,1.7810885416996154154820921397286
489,1.7815009575517837092179484848201
490,1.7819125327240907667462980639701
491,1.7823232706583877412037882201350
492,1.7827331747756293818498531320176
493,1.7831422484760446796209982193786
494,1.7835504951393064550122744500949
495,1.7839579181246980807549285335040
496,1.7843645207712805836796123632281
497,1.7847703063980558112553211065743
498,1.7851752783041296080272426272087
499,1.7855794397688724992423160852508
500,1.785982794052080012102698321888
501,1.786385344394128380625448289192
502,1.786787094016133089226823905155
503,1.787188046120101723095626361433
504,1.787588203889088969127215835367
505,1.787987570487346614817706263137
506,1.788386149060474275138752253948
507,1.788783942735568695348593005686
508,1.789180954621371269630652569240
509,1.789577187808412006375221344004
510,1.789972645369155993267938515260
511,1.790367330358145593189378071193
512,1.790761245812142271047648199157
513,1.791154394750266667210097721225
514,1.791546780174137593928572670362
515,1.791938405068010328990713463856
516,1.792329272398912416922611183972
517,1.792719385116778052473331737751
518,1.793108746154582831763032360677
519,1.793497358428475653035451066860
520,1.793885224837910624020764017792
521,1.794272348265775771142815797068
522,1.794658731578522826777749769135
523,1.795044377626294531736113916805
