Eigenstate,Potential Energy
1,0.500000000033325277179157809939247037
2,0.64623093786864460185001035190730026
3,0.73633761034395197181184690390593957
4,0.79966527914515246432839653404095762
5,0.8480465775910983169346638805872545
6,0.8870660004376735934316939159806122
7,0.9197208291236198114036546794558928
8,0.9477838500261882871193989999160674
9,0.9723835621518401023470176525475037
10,0.9942802196492654918160847191255270
11,1.0140093926595866555576243370340420
12,1.0319621764874963703604249828997145
13,1.0484327011988535878780499250849244
14,1.0636476644768471494432984232479674
15,1.0777854474361819897030501561623737
16,1.090988919493525096967657680615130
17,1.103374271829010530192839378096787
18,1.115037268392439426359078162031362
19,1.126057769007258060458373983758142
20,1.136503067004494645558971404384428
21,1.146430395304456798032018559682165
22,1.155888837575471900394104369632844
23,1.164920806170411940618179606254039
24,1.173563199527115819684286018497791
25,1.181848318964315863753878087984446
26,1.189804602489225673653530267634496
27,1.197457217760116042243755221036955
28,1.204828545445354860476202503820979
29,1.211938576425359110976019902618916
30,1.218805240634419478356410619217167
31,1.225444681193419605154065267300816
32,1.231871484406572437377947391632361
33,1.238098873885648299415094682547349
34,1.244138875314623071803121196061037
35,1.250002457028479779633412046023423
36,1.255699650546418020776155053508809
37,1.261239654395641114592949821507910
38,1.266630923931472108661007200233952
39,1.271881249361701131518620126593653
40,1.276997823787245795902001688642648
41,1.281987302754456083228977708663076
42,1.286855856559402538586292770884728
43,1.291609216338000260567492799370046
44,1.296252714807727154810539267592104
45,1.300791322389125351093328041760179
46,1.305229679322138401257483244088187
47,1.309572124298860262904514656569779
48,1.313822720056685709565073142623375
49,1.317985276311189264149680264328039
50,1.32206337035393703883974177977890
51,1.32606036559496890210834938591367
52,1.32997942829134317926369511873367
53,1.33382354267068597436425989539767
54,1.33759552463112606990084695383742
55,1.34129803417552086813038461700290
56,1.34493358671780426782279437204166
57,1.34850456338208840506444953348470
58,1.35201322040035400047202741750154
59,1.35546169770181010789623828785212
60,1.35885202677597955199362698325477
61,1.36218613788200211454070949682657
62,1.36546586666834652425192930500519
63,1.36869296025988041584286760671549
64,1.37186908286293494415852199905063
65,1.37499582093346589921410847840472
66,1.37807468794856582894206788668297
67,1.38110712881731938511343593172576
68,1.38409452396323794709349009300988
69,1.38703819310719690736500807564462
70,1.38993939877687073448854679167788
71,1.39279934956606222543835749000309
72,1.39561920316502411687263197705349
73,1.39840006918081821849359421326625
74,1.40114301176493838310010911523911
75,1.40384905206379252683266276674382
76,1.40651917050618935635524709426142
77,1.40915430894067306130074023478911
78,1.41175537263438343212610352068429
79,1.41432323214407204353157320680851
80,1.41685872506896701795348650952669
81,1.41936265769432954216389924587347
82,1.42183580653378385945653822419314
83,1.42427891977781372610900605157822
84,1.42669271865519402909501346226928
85,1.42907789871356698584671770213709
86,1.43143513102485648147789470745801
87,1.43376506332075662807884056689639
88,1.43606832106310725295812773796457
89,1.43834550845358552054485571461427
90,1.44059720938679967593574683701009
91,1.44282398835054944602074994560938
92,1.44502639127672933658162370591595
93,1.44720494634608880870238380046580
94,1.44936016474982038909234846247526
95,1.45149254141072561489352963837538
96,1.45360255566650689142762430777203
97,1.45569067191754899922834984105902
98,1.45775734024138111240999722406984
99,1.45980299697585671823413760759644
100,1.46182806527294248732016030221001
101,1.46383295562487783979096304364857
102,1.46581806636434137792397855288948
103,1.46778378414015244226479851974013
104,1.46973048436992878345041931882025
105,1.47165853167102826823194568503089
106,1.47356828027101177394315036681795
107,1.47546007439878634370571310819296
108,1.47733424865750843510761435624597
109,1.47919112838025850155704855947156
110,1.48103102996943572538907084461895
111,1.48285426122075586060376478378139
112,1.48466112163268570948118257285451
113,1.48645190270209222152424725023218
114,1.48822688820683544542450888364279
115,1.48998635447599411624304216104974
116,1.49173057064836432835055249805930
117,1.49345979891984003166400589603525
118,1.49517429478024305761158202173103
119,1.49687430724013666754134133181947
120,1.49856007904813077405414978435275
121,1.50023184689914871849710309409669
122,1.50188984163410657472093668856447
123,1.50353428843142375627291060061333
124,1.50516540699076602438800414053477
125,1.50678341170939242787816339538544
126,1.50838851185146250872178389584915
127,1.50998091171063952926921756913184
128,1.51156081076630288979024161584749
129,1.51312840383367083185127820364283
130,1.51468388120811614114291196367082
131,1.51622742880394215926019421036638
132,1.51775922828787143673753309167179
133,1.51927945720748757805570375605418
134,1.52078828911485955338010618409623
135,1.52228589368555964344658238254179
136,1.52377243683328249648080886766567
137,1.52524808082025946809391409621242
138,1.52671298436364880310606346250217
139,1.52816730273808011234439379435850
140,1.52961118787451615149334473844763
141,1.53104478845559035158533396045581
142,1.53246825000757047745302096649243
143,1.53388171498909014029468584106584
144,1.53528532287678271086764033716380
145,1.53667921024794799206522399000275
146,1.53806351086037414088222731787162
147,1.53943835572942912680751608888443
148,1.54080387320253705564921904673750
149,1.54216018903114115972372344216047
150,1.54350742644025709526245457889588
151,1.54484570619571246126664950455127
152,1.54617514666916283895568852086940
153,1.54749586390097330147798813708428
154,1.54880797166104929310127718620105
155,1.55011158150769511384953749562108
156,1.55140680284457787592379164362879
157,1.55269374297586797848360526864819
158,1.55397250715962791886417741873288
159,1.5552431986595131130355519125640
160,1.5565059187948510628148833202034
161,1.5577607669891573659240547596490
162,1.5590078408171480299651958685582
163,1.5602472360503029435846099891474
164,1.5614790467010351413915182423882
165,1.5627033650655144628204839993656
166,1.5639202817651961204973599722858
167,1.5651298857871014103996860087210
168,1.5663322645228932526963079879981
169,1.5675275038067916253279398922587
170,1.5687156879523686334159295119721
171,1.5698968997882634089310472119484
172,1.5710712206928547072516748683498
173,1.5722387306279266029133741975137
174,1.5733995081713631280351628602529
175,1.5745536305489058383267714526776
176,1.5757011736650040130009645630950
177,1.5768422121327907490997238433468
178,1.5779768193032141046016665836642
179,1.5791050672933497352278727269055
180,1.5802270270139259713162061483195
181,1.5813427681960839833215695210570
182,1.5824523594174007312985706811878
183,1.5835558681271977476118616256451
184,1.5846533606711599943811651758205
185,1.5857449023152866037556169163453
186,1.5868305572691944696074236536746
187,1.5879103887087984911135208403788
188,1.5889844587983839045102058140063
189,1.5900528287120944340792434771554
190,1.5911155586548519134107038153900
191,1.5921727078827265994615597244845
192,1.5932243347227745615796362883444
193,1.5942704965923604493067896567348
194,1.5953112500179789797093840188756
195,1.5963466506535930765595116627646
196,1.5973767532985023532312133727310
197,1.5984016119147563145965388520916
198,1.5994212796441264398639531187841
199,1.6004358088246499801763584850210
200,1.6014452510067594111311121645062
201,1.6024496569690085166023937382207
202,1.6034490767334084799791351143763
203,1.6044435595803846375017633887269
204,1.6054331540633655085612304523098
205,1.6064179080230140682737081018802
206,1.6073978686011142810298518237496
207,1.6083730822541187656455130878986
208,1.6093435947663718135204531431468
209,1.6103094512630135026342521212369
210,1.6112706962225764029801985168999
211,1.6122273734892822323953630348027
212,1.6131795262850486899106597205681
213,1.6141271972212108445107219540740
214,1.6150704283099720549888821254639
215,1.6160092609755836271237395289922
216,1.6169437360652671626297475373701
217,1.6178738938598835589190500826621
218,1.6187997740843576321192988448795
219,1.6197214159178616362784256981827
220,1.6206388580037701868786057242761
221,1.6215521384593844909441291387690
222,1.6224612948854430811031599712610
223,1.6233663643754126144289822645585
224,1.6242673835245737953533770181483
225,1.6251643884389049791890964558954
226,1.6260574147437669941963310888555
227,1.6269464975923978250339140700176
228,1.6278316716742189677888929799634
229,1.6287129712229606087216478527987
230,1.6295904300246103129573987305827
231,1.6304640814251870123804196244337
232,1.6313339583383507016380093043625
233,1.6322000932528428277443135765454
234,1.6330625182397735193360474530452
235,1.6339212649597488266654831284808
236,1.6347763646698476710846807996609
237,1.6356278482304521241332532851027
238,1.6364757461119327472255834511650
239,1.6373200884011944275021606395605
240,1.6381609048080848632460918136549
241,1.6389982246716699801970619761896
242,1.6398320769663791346959993224810
243,1.6406624903080241344167200478627
244,1.6414894929596937649027791155707
245,1.6423131128375281950028997927748
246,1.6431333775163757797544196488205
247,1.6439503142353336424817989939897
248,1.6447639499031796166462525678088
249,1.6455743111036905159433758871090
250,1.6463814241008571167508312040379
251,1.6471853148439937523343714147839
252,1.6479860089727453167084785986732
253,1.6487835318219967497511056654902
254,1.6495779084266846598259015517676
255,1.6503691635265149633376170974628
256,1.6511573215705866259840429953750
257,1.6519424067219278964448137064162
258,1.6527244428619414765625953211043
259,1.6535034535947654308632038004272
260,1.6542794622515502211155291103840
261,1.6550524918946521789850863497728
262,1.6558225653217481415092093508022
263,1.6565897050698700992774691363328
264,1.6573539334193653074713496080542
265,1.6581152723977803842922660279252
266,1.6588737437836715638112553703703
267,1.6596293691103443157738281325081
268,1.6603821696695223653600992041613
269,1.6611321665149503821004383439312
270,1.6618793804659260613722236775366
271,1.6626238321107708817150531301811
272,1.6633655418102335168098130245480
273,1.6641045297008333445165829184145
274,1.6648408156981412612701083717334
275,1.6655744195000016766928406470126
276,1.6663053605896939660589290411009
277,1.6670336582390408639032369853496
278,1.6677593315114555527041067868666
279,1.6684823992649389490888096627600
280,1.6692028801550192804118677263109
281,1.6699207926376418405142517917569
282,1.6706361549720064209159092021629
283,1.6713489852233556298730270608688
284,1.6720593012657112558191306307748
285,1.6727671207845654824362838130660
286,1.6734724612795229800852612266751
287,1.6741753400668989328713609307039
288,1.6748757742822694031062255602929
289,1.6755737808829786812146598932687
290,1.6762693766506043535986278780861
291,1.6769625781933779293836054681802
292,1.6776534019485639109387429343758
293,1.6783418641848012139299610870410
294,1.6790279810044019738063400850629
295,1.6797117683456098258487152463464
296,1.6803932419848252443262309269098
297,1.6810724175387878724703913499636
298,1.6817493104667251600029375068035
299,1.6824239360724641110582695991235
300,1.6830963095065078930883610474280
301,1.6837664457680777181710674536839
302,1.6844343597071220896365933703602
303,1.6851000660262905871242988861875
304,1.6857635792828757675812831669228
305,1.6864249138907246107124838554378
306,1.6870840841221187720843087115030
307,1.6877411041096208258384642561432
308,1.6883959878478939754471066361732
309,1.6890487491954913217777366708147
310,1.6896994018766150236170422226508
311,1.6903479594828489455597160286293
312,1.6909944354748623063978856514727
313,1.6916388431840857207629169636573
314,1.6922811958143614382965477970709
315,1.6929215064435670999976013036101
316,1.6935597880252143873900730198285
317,1.6941960533900201031203686715799
318,1.6948303152474550342328858071708
319,1.6954625861872677396890910283116
320,1.6960928786809832633924242528841
321,1.6967212050833806916568840215039
322,1.6973475776339456695543508915153
323,1.6979720084583013901833778480457
324,1.6985945095696170340036479696477
325,1.6992150928699954202206453540218
326,1.6998337701518381074516373725682
327,1.7004505530991907644325011458346
328,1.7010654532890659999643958586730
329,1.7016784821927486269632789335579
330,1.7022896511770797922825572109369
331,1.7028989715057214108899148657756
332,1.7035064543404019656264749622404
333,1.7041121107421440510910542048376
334,1.7047159516724718456592363877432
335,1.7053179879946028265572986062863
336,1.7059182304746197860290638072366
337,1.7065166897826260208290277307874
338,1.7071133764938847538806781388269
339,1.7077083010899388525941232681839
340,1.7083014739597169351706413226567
341,1.7088929054006215784591212297299
342,1.7094826056196021245010329267559
343,1.7100705847342117235406218730913
344,1.7106568527736486071950376345693
345,1.7112414196797834111062575637993
346,1.7118242953081700218572329061851
347,1.7124054894290435134989773084706
348,1.7129850117283019854004107293376
349,1.7135628718084758463337191296622
350,1.7141390791896820871240619745566
351,1.7147136433105656294558753419560
352,1.7152865735292274331894945494009
353,1.7158578791241386465554885259723
354,1.7164275692950422136924600401425
355,1.7169956531638423048011564522559
356,1.7175621397754797786941463884339
357,1.7181270380987969167754758095595
358,1.7186903570273906724481147378044
359,1.7192521053804501810851534492144
360,1.7198122919035874684813692710801
361,1.7203709252696531026515642726276
362,1.7209280140795432705746306258785
363,1.7214835668629928754944369970562
364,1.7220375920793596787707746623989
365,1.7225900981183977226471268376337
366,1.7231410933010189116049241072240
367,1.7236905858800456443143607032815
368,1.7242385840409512849125910437505
369,1.7247850959025931061553209061770
370,1.7253301295179334176191530542895
371,1.7258736928747517322655820477885
372,1.7264157938963469278487408680133
373,1.7269564404422293698851609327956
374,1.7274956403088073046681412564067
375,1.7280334012300582139000073292949
376,1.7285697308781965871615209386788
377,1.7291046368643299014331671579640
378,1.7296381267391059750834071657033
379,1.7301702079933535361304814685682
380,1.7307008880587127615465253320826
381,1.7312301743082586630449412392576
382,1.7317580740571144375252185552928
383,1.7322845945630594568421743761723
384,1.7328097430271268606046990567723
385,1.7333335265941943732646224129532
386,1.7338559523535690041522311381258
387,1.7343770273395613797994395463359
388,1.7348967585320536453535107289679
389,1.7354151528570616097695144156758
390,1.7359322171872883238914022737921
391,1.7364479583426694083642872835074
392,1.7369623830909137397578088981194
393,1.7374754981480369683882889940046
394,1.7379873101788864489389611490256
395,1.7384978257976604407523838715804
396,1.7390070515684212286639901055676
397,1.7395149940056017942866727098082
398,1.7400216595745060458820042570310
399,1.7405270546918011726114039249859
400,1.7410311857260064231259078408361
401,1.7415340589979743574163930584419
402,1.7420356807813653171425234524937
403,1.7425360573031179351823381456752
404,1.7430351947439135774940894597330
405,1.7435330992386321827382747114463
406,1.7440297768768056086965975862811
407,1.7445252337030656022108630413435
408,1.7450194757175838958386030022988
409,1.7455125088765072923055695378412
410,1.7460043390923902512371303405976
411,1.7464949722346192381894719457325
412,1.7469844141298324185742082878887
413,1.7474726705623357755401384299373
414,1.7479597472745120756614433487406
415,1.7484456499672269664004757491988
416,1.7489303843002286349817466393008
417,1.7494139558925438771705693816787
418,1.7498963703228677391969729572663
419,1.7503776331299510113436429399328
420,1.7508577498129805551246692780015
421,1.7513367258319564162463052782972
422,1.7518145666080650049585792555326
423,1.7522912775240461799445675726049
424,1.7527668639245578494796846590655
425,1.7532413311165344692280155109234
426,1.7537146843695430435230799065576
427,1.7541869289161341147706085863831
428,1.7546580699521877546684710612539
429,1.7551281126372584696391924269287
430,1.7555970620949118825882943041594
431,1.7560649234130606946504173658954
432,1.7565317016442970764455260007689
433,1.7569974018062168267495397844778
434,1.7574620288817463965247534887035
435,1.7579255878194606019917787669286
436,1.7583880835338989277417568177641
437,1.7588495209058785812652603852512
438,1.7593099047828032809712647820311
439,1.7597692399789684590076893807987
440,1.7602275312758639501049291798392
441,1.7606847834224713263035410269008
442,1.7611410011355594412200192351427
443,1.7615961890999778315547387218747
444,1.7620503519689425952202429006547
445,1.7625034943643240767574818941095
446,1.7629556208769273843973076036704
447,1.7634067360667729079433595776911
448,1.7638568444633700556872870522119
449,1.7643059505659920508684138790527
450,1.7647540588439439401279342685952
451,1.7652011737368313170604371300646
452,1.7656472996548226022193899928868
453,1.7660924409789106226575368143261
454,1.7665366020611698799606085195964
455,1.7669797872250131306545731487957
456,1.7674220007654425759960457379252
457,1.7678632469493003568613663859514
458,1.7683035300155147496411377830698
459,1.7687428541753445770750581749977
460,1.7691812236126214763794220455456
461,1.7696186424839878744039696537379
462,1.7700551149191338828773937546611
463,1.7704906450210317175245745486730
464,1.7709252368661658019720950535933
465,1.7713588945047625251901104332307
466,1.7717916219610167831775253170630
467,1.7722234232333145854209535568170
468,1.7726543022944567417790720135556
469,1.7730842630918761065040987705783
470,1.7735133095478559039519133059975
471,1.7739414455597434031031565861865
472,1.7743686750001632385206720914104
473,1.7747950017172257286593353516346
474,1.7752204295347376955376059519243
475,1.7756449622524047085396477509988
476,1.7760686036460372661694577123127
477,1.7764913574677512487689805056001
478,1.7769132274461673182035908972377
479,1.7773342172866081539163639738704
480,1.7777543306712939199468226573052
481,1.7781735712595345138065929936274
482,1.7785919426879221660155078049704
483,1.7790094485705197703105953615712
484,1.7794260924990477643013234334959
485,1.7798418780430710374628390356644
486,1.7802568087501804512775457371742
487,1.7806708881461758203253301444904
488,1.7810841197352449508252999804874
489,1.7814965070001419647458281381620
490,1.7819080534023627725465837766031
491,1.7823187623823198287678949193262
492,1.7827286373595147585908350187764
493,1.7831376817327088303089673287171
494,1.7835458988800923676833578663064
495,1.7839532921594512946067097886665
496,1.7843598649083340564292832395401
497,1.7847656204442146033932996429942
498,1.7851705620646553813570874690533
499,1.7855746930474678270565746247469
500,1.785978016650872498298717579944
501,1.786380536113654585022950757244
502,1.786782254655322256302493745578
503,1.787183175476259311304109371901
504,1.787583301757879977931812159258
505,1.787982636662778706505237328423
506,1.788381183334880688445762617037
507,1.788778944899590947875603874501
508,1.789175924463941645970279545735
509,1.789572125116735828829910541124
510,1.789967549928693671979677274550
511,1.790362201952594452450207023793
512,1.790756084223418148506205832710
513,1.791149199758485282633211915535
514,1.791541551557595684121019729978
515,1.791933142603166545417786180044
516,1.792323975860367982522357532376
517,1.792714054277257174085484030434
518,1.793103380784912864538893665879
519,1.793491958297567013133771715465
520,1.793879789712736445829093586891
521,1.794266877911351305198978659838
522,1.794653225757884574502881413922
523,1.795038836100479113019712369192
