Eigenstate,Potential Energy
1,0.500000000040467430542802213041405137
2,0.64623093791526491720114222316150894
3,0.73633761048089566109019843469949153
4,0.79966527943039131630425628072146178
5,0.8480465780851921094006705972950238
6,0.8870660012022430687213108810712627
7,0.9197208302207841196115430987128845
8,0.9477838515183304509648292352920789
9,0.9723835641014980263632297469118107
10,0.9942802221190767075862595471728673
11,1.0140093957122583635222173074956189
12,1.0319621801857883724665391283079449
13,1.0484327056055682381448976310434534
14,1.0636476696548233434441463102784684
15,1.0777854534482915907462665371861885
16,1.090988926402670892992911923031529
17,1.103374279698125186482811196337978
18,1.115037277284485106178587072737252
19,1.126057778985226505911420847414602
20,1.136503078131407583214278471059735
21,1.146430407643366578687884562601809
22,1.155888851189462310935170474792864
23,1.164920821122599144601923274332043
24,1.173563215880649395787082730070789
25,1.181848336782379919729081911363067
26,1.189804621835040019376674467664031
27,1.197457238696937409605663190846847
28,1.204828568036478160888868384592880
29,1.211938600734118723442898381691898
30,1.218805266724190562671519456288346
31,1.225444709127619435998193577401218
32,1.231871514248661755989039070914526
33,1.238098905699132680203089124338804
34,1.244138909163054301813438690593632
35,1.250002492975457249178258272920492
36,1.255699688655590123878086885898931
37,1.261239694730706658142173870552627
38,1.266630966556181729392475394337529
39,1.271881294339858720079010987378724
40,1.276997871182709927409063913443535
41,1.281987352631141453833220843577575
42,1.286855908981281407632856016637998
43,1.291609271369103898028205137597390
44,1.296252772512147293715804605413479
45,1.300791382831015644742990327888898
46,1.305229742565715885031149579356527
47,1.309572190408406820526457788714893
48,1.313822789096549543708017726923790
49,1.317985348345786371286464090680623
50,1.32206344544775268827280655437709
51,1.32606044381255911912492120492509
52,1.32997950969733623237981971891710
53,1.33382362732978386663403419117796
54,1.33759561260810603427855878155546
55,1.34129812553523686688311597775355
56,1.34493368152518849599960609847478
57,1.34850466170215279803572055402052
58,1.35201332229819174555909184167734
59,1.35546180324259716011717636589950
60,1.35885213602497615395615536139361
61,1.36218625090455432051759416147253
62,1.36546598352988772847834425644574
63,1.36869308102593288507865362380913
64,1.37186920759911135456149562005869
65,1.37499594970547087757341317286633
66,1.37807482082219749832314262985630
67,1.38110726585847091496849934121092
68,1.38409466523789910789355180025559
69,1.38703833868145562981135476271387
70,1.38993954871691467336340713149960
71,1.39279950393818032815608001514949
72,1.39561936203560819679419869538371
73,1.39840023261636453306868803400937
74,1.40114317983204921690224302251155
75,1.40384922482917777955408808945619
76,1.40651934803666813582947168068999
77,1.40915449130317528162157128165445
78,1.41175555989595141693314128306833
79,1.41432342437186213453302020458089
80,1.41685892233025118875805083843812
81,1.41936286005649701749446229958022
82,1.42183601406434273981907192376188
83,1.42427913254439261799103970555130
84,1.42669293672554368076873397030573
85,1.42907812215556192885254043353949
86,1.43143535990649667786506730095285
87,1.43376529771016912348038551245798
88,1.43606856102854783557810889498958
89,1.43834575406344038613666038704084
90,1.44059746070958709885073254186910
91,1.44282424545492145640730015291354
92,1.44502665423147340381530286376394
93,1.44720521522012953112852446056250
94,1.44936043961222119016309270302559
95,1.45149282233069044578195301115051
96,1.45360284271338194020221587300162
97,1.45569096516082440667179397925158
98,1.45775763975069269456680181098106
99,1.45980330282098769577232712990658
100,1.46182837752382522179285865982767
101,1.46383327435159557688435836021807
102,1.46581839163712999777879093994777
103,1.46778411602940221695899892266244
104,1.46973082294618614173163983803330
105,1.47165887700499756758862699114469
106,1.47356863243355708010413445582107
107,1.47546043346093321765867841538753
108,1.47733461469044572772735055346001
109,1.47919150145534015593531632645686
110,1.48103141015818258695837584377758
111,1.48285464859485749514811574504616
112,1.48466151626400222912757608083144
113,1.48645230466265611880927552860109
114,1.48822729756885343553123001688194
115,1.48998677131184898750391249189682
116,1.49173099503061680111296059365571
117,1.49346023092123062561568294335957
118,1.49517473447369396766375280016772
119,1.49687475469875364836840116845606
120,1.49856053434520503338931988449146
121,1.50023231010815881928416936925959
122,1.50189031282872034622305242576985
123,1.50353476768550021424016487212072
124,1.50516589437835730038618564690185
125,1.50678390730474570788201002926510
126,1.50838901572902198107673450504143
127,1.50998142394504834212649388061782
128,1.51156133143240511812092642068472
129,1.51312893300651345414580973299217
130,1.51468441896295102590330658903894
131,1.51622797521622806139306726951512
132,1.51775978343327600395695826716758
133,1.51928002116188936740563730312494
134,1.52078886195435005798707633737360
135,1.52228647548644532961424417913709
136,1.52377302767208685123876628664758
137,1.52524868077372505731412364778945
138,1.52671359350873934030106320130867
139,1.52816792115198253826256659459547
140,1.52961181563464272462720743920130
141,1.53104542563958074970997121630370
142,1.53246889669329391031255540731779
143,1.53388237125464747355574823474314
144,1.53528598880050860145975885897062
145,1.53667988590841303502898338681622
146,1.53806419633638702784712384170838
147,1.53943905110003881622236118528027
148,1.54080457854703495488906319389750
149,1.54216090442906331919822020534590
150,1.54350815197138641465156005165521
151,1.54484644194008090801088654385033
152,1.54617589270705367912896466520795
153,1.54749662031292334317222035950895
154,1.54880873852785114245310005658627
155,1.55011235891039944384049653324520
156,1.55140759086449570808658672352877
157,1.55269454169457297764804115452625
158,1.55397331665895870107760844495387
159,1.5552440190215755667938208996269
160,1.5565067501020206837409304951503
161,1.5577616093240816050325243634274
162,1.5590086942627486556526232154572
163,1.5602481006897784174859197723417
164,1.5614799226178630082448804553949
165,1.5627042523434537544838035045837
166,1.5639211804882897742609134939565
167,1.5651307960396787017407315741865
168,1.5663331863895722426227359183597
169,1.5675284373724816224594300603491
170,1.5687166333022726709523473042054
171,1.5698978570078807366591614500258
172,1.5710721898679832987426562494604
173,1.5722397118446656780648974937322
174,1.5734005015161156911133394171164
175,1.5745546361083812316645485293986
176,1.5757021915262204865110408143700
177,1.5768432423830780457614706128244
178,1.5779778620302160620830645517292
179,1.5791061225850269038048329847538
180,1.5802280949585582482533087140879
181,1.5813438488822732638795791898138
182,1.5824534529340735765357883358501
183,1.5835569745636080691478229889602
184,1.5846544801168917562928184941923
185,1.5857460348602565417776758703327
186,1.5868317030036548278101589598600
187,1.5879115477233397762330012925548
188,1.5889856311839376581075620316829
189,1.5900540145599360227071407365013
190,1.5911167580566033369670719979588
191,1.5921739209303593179121426954777
192,1.5932255615086123402328451125538
193,1.5942717372090822228258783902705
194,1.5953125045586217350489264332944
195,1.5963479192115547550148600408590
196,1.5973780359675447717914489392306
197,1.5984029087890081067932931299566
198,1.5994225908180860163102430283958
199,1.6004371343931885089916207648376
200,1.6014465910651238184503318225922
201,1.6024510116128245073693660176526
202,1.6034504460586835792256438709615
203,1.6044449436835112523165722742899
204,1.6054345530411240109547455896035
205,1.6064193219725758991461567488987
206,1.6073992976200450754529311919557
207,1.6083745264403814996695071350479
208,1.6093450542183299727208853353409
209,1.6103109260794342726143540270629
210,1.6112721865026338820475118604979
211,1.6122288793325606666330762848295
212,1.6131810477915457308663493306966
213,1.6141287344913408297276165318439
214,1.6150719814445693116067577049169
215,1.6160108300759057987790721982805
216,1.6169453212329985598869331869215
217,1.6178754951971385334668465793161
218,1.6188013916936839749691499763396
219,1.6197230499022440002034590128746
220,1.6206405084666335333348654085481
221,1.6215538055045975617177707980474
222,1.6224629786173218949300567040489
223,1.6233680648987239888354687456562
224,1.6242691009445388939696636322878
225,1.6251661228612028847892657881327
226,1.6260591662745383077216023136356
227,1.6269482663382482908584048031546
228,1.6278334577422231254898006004392
229,1.6287147747206654716186111095061
230,1.6295922510600390736882045752454
231,1.6304659201068427757836653423683
232,1.6313358147752202452152023389069
233,1.6322019675544003899777337512535
234,1.6330644105159846161408511403412
235,1.6339231753210740962578043079763
236,1.6347782932272467475504235077633
237,1.6356297950953875399850753079017
238,1.6364777113963738652389449471016
239,1.6373220722176214021237739428934
240,1.6381629072694926318722493185452
241,1.6390002458915722846212718595063
242,1.6398341170588125730294475632536
243,1.6406645493875522437879008421037
244,1.6414915711414111352459803401067
245,1.6423152102370646142485510945395
246,1.6431354942499004107376892325651
247,1.6439524504195592318893119155622
248,1.6447661056553667363239972982851
249,1.6455764865416518368925156169207
250,1.6463836193429617161416685178891
251,1.6471875300091714538722761156122
252,1.6479882441804910646892342095705
253,1.6487857871923750171466289981176
254,1.6495801840803338907452010013530
255,1.6503714595846520502116055784586
256,1.6511596381550114218264604328648
257,1.6519447439550277625456133123734
258,1.6527268008666958659736760500087
259,1.6535058324947505080407612832474
260,1.6542818621709435180871745745183
261,1.6550549129582372884136639327949
262,1.6558250076549194470296661028788
263,1.6565921687986375434872007178284
264,1.6573564186703591979586169970109
265,1.6581177792982562380916563508792
266,1.6588762724615149906794023786199
267,1.6596319196940759406829267193956
268,1.6603847422883027906113431584389
269,1.6611347612985851894639175219186
270,1.6618819975448708546644101473377
271,1.6626264716161363702294418417800
272,1.6633682038737906400214113448049
273,1.6641072144550184384850437512989
274,1.6648435232760612671718266291906
275,1.6655771500354393919164180018957
276,1.6663081142171133383038973542726
277,1.6670364350935923287267685631449
278,1.6677621317289814149655026585942
279,1.6684852229819788087464515570201
280,1.6692057275088155031329981246735
281,1.6699236637661450735626782896831
282,1.6706390500138811547884338707354
283,1.6713519043179858061604690754442
284,1.6720622445532059217736873092492
285,1.6727700884057644927321601341433
286,1.6734754533760027462652545001088
287,1.6741783567809782209777254473155
288,1.6748788157570151800001506764929
289,1.6755768472622120100940168561276
290,1.6762724680789063392302331335673
291,1.6769656948160957135716155832310
292,1.6776565439118167187571531072458
293,1.6783450316354864512536105711016
294,1.6790311740902013766805568929909
295,1.6797149872149956622443314642875
296,1.6803964867870665688331185953214
297,1.6810756884239568344892271123065
298,1.6817526075857033660012265086021
299,1.6824272595769490414636024757290
300,1.6830996595490193743985491152600
301,1.6837698225019644508676849499752
302,1.6844377632865682324953274135980
303,1.6851034966063223985226125840341
304,1.6857670370193683044109461547095
305,1.6864283989404084855121394559414
306,1.6870875966425869690140268125878
307,1.6877446442593355761259762992640
308,1.6883995557861936929429322654366
309,1.6890523450825975992642185236543
310,1.6897030258736396905236031639502
311,1.6903516117518011877449610538427
312,1.6909981161786558486669718211688
313,1.6916425524865460727965201279856
314,1.6922849338802332046761486033901
315,1.6929252734385213550203884573915
316,1.6935635841158561153741683921733
317,1.6941998787438957049108696245628
318,1.6948341700330599006270667701931
319,1.6954664705740538925081062834992
320,1.6960967928393670649357568198222
321,1.6967251491847506232846272244917
322,1.6973515518506701801520186644096
323,1.6979760129637368152725259580793
324,1.6985985445381155862715543252734
325,1.6992191584769132522517425325750
326,1.6998378665735434474526326187814
327,1.7004546805130721257534841016498
328,1.7010696118735404652278067104574
329,1.7016826721272702076228817296207
330,1.7022938726421478644445337060334
331,1.7029032246828892282390412247101
332,1.7035107394122852503103372150235
333,1.7041164278924296634261315346187
334,1.7047203010859265335338470559685
335,1.7053223698570820554164364121971
336,1.7059226449730766503384592974535
337,1.7065211371051202379262175943213
338,1.7071178568295917411328359259575
339,1.7077128146291588887933597714993
340,1.7083060208938844071100526361154
341,1.7088974859223143136441419860289
342,1.7094872199225508109634193418579
343,1.7100752330133094177340477686705
344,1.7106615352249603309642621953049
345,1.7112461365005558387341054167970
346,1.7118290466968412582067772016558
347,1.7124102755852529642812406822222
348,1.7129898328529003206110138505204
349,1.7135677281035350579153560319820
350,1.7141439708585056419255951547984
351,1.7147185705576987185719105979772
352,1.7152915365604673187793981328828
353,1.7158628781465451072538303416507
354,1.7164326045169480897384373632919
355,1.7170007247948641440280425711217
356,1.7175672480265285845358664814061
357,1.7181321831820889994613372145060
358,1.7186955391564586045729967990717
359,1.7192573247701538587571811678159
360,1.7198175487701252792654316698629
361,1.7203762198305732015428499680738
362,1.7209333465537549652523248525617
363,1.7214889374707781221225298784569
364,1.7220430010423846896296592498258
365,1.7225955456597246868965020746722
366,1.7231465796451178304954678609904
367,1.7236961112528062821836364223293
368,1.7242441486696952373182511020151
369,1.7247907000160859865163737660962
370,1.7253357733463971637546366796178
371,1.7258793766498770342386587796714
372,1.7264215178513057785426933449338
373,1.7269622048116877397572505168126
374,1.7275014453289379421464948856027
375,1.7280392471385535729086324462670
376,1.7285756179142818832780034521448
377,1.7291105652687762982051060894066
378,1.7296440967542439020489374083038
379,1.7301762198630861401099694936949
380,1.7307069420285294927937414016727
381,1.7312362706252489978672203050037
382,1.7317642129699817390047556545196
383,1.7322907763221349753121125683762
384,1.7328159678843838755567998416068
385,1.7333397948032624783883995934538
386,1.7338622641697485372277644357572
387,1.7343833830198379991913100765680
388,1.7349031583351130548761192118437
389,1.7354215970433044337190561357124
390,1.7359387060188451340646386818602
391,1.7364544920834159049090141798610
392,1.7369689620064860877260649256294
393,1.7374821225058472918890582276594
394,1.7379939802481384848136890027808
395,1.7385045418493653537230740255515
396,1.7390138138754135899318831050934
397,1.7395218028425557255860269789734
398,1.7400285152179515310224306251187
399,1.7405339574201405385702207105380
400,1.7410381358195309927819980111108
401,1.7415410567388812760452872366044
402,1.7420427264537745548234720998648
403,1.7425431511930894672977497845798
404,1.7430423371394647455337083378835
405,1.7435402904297552376504000966119
406,1.7440370171554854390623671708017
407,1.7445325233632976495487829574950
408,1.7450268150553922593800076615381
409,1.7455198981899630256151926002994
410,1.7460117786816298530869675410411
411,1.7465024624018633401289384806937
412,1.7469919551794046716745670521548
413,1.7474802628006819388271180706185
414,1.7479673910102193087861800175140
415,1.7484533455110433291357113927284
416,1.7489381319650827961688339566341
417,1.7494217559935650357787363360456
418,1.7499042231774057601982715523564
419,1.7503855390575967791432310154351
420,1.7508657091355865473286971927622
421,1.7513447388736575005891043176444
422,1.7518226336952994622523387668721
423,1.7522993989855769559577914605338
424,1.7527750400914940386926279026521
425,1.7532495623223530334563618800768
426,1.7537229709501107684470863778246
427,1.7541952712097298074511258151143
428,1.7546664682995246851762263692662
429,1.7551365673815070599718102712643
430,1.7556055735817226460955415176058
431,1.7560734919905874292367556313700
432,1.7565403276632203148685067710683
433,1.7570060856197675473821067262936
434,1.7574707708457299979991966278998
435,1.7579343882922811451962886841036
436,1.7583969428765836486914937977473
437,1.7588584394821026784237506089219
438,1.7593188829589149806525344827386
439,1.7597782781240143625431080575248
440,1.7602366297616146665170625334548
441,1.7606939426234473942843138918155
442,1.7611502214290575442698057686598
443,1.7616054708660973101974687228165
444,1.7620596955906122602692892965110
445,1.7625129002273293276700756069970
446,1.7629650893699376368140248825461
447,1.7634162675813693345760158939434
448,1.7638664393940736447808731505009
449,1.7643156093102919865286996495628
450,1.7647637818023263088721932264027
451,1.7652109613128081450185578288919
452,1.7656571522549612274797402973302
453,1.7661023590128634073230275493585
454,1.7665465859417042665514441821891
455,1.7669898373680420475671894585809
456,1.7674321175900551968022558335502
457,1.7678734308777932183054584072465
458,1.7683137814734232332716542210790
459,1.7687531735914747595237240691192
460,1.7691916114190823533812969687896
461,1.7696290991162239637317119572081
462,1.7700656408159582114464092050460
463,1.7705012406246591980095829442983
464,1.7709359026222470043598057705720
465,1.7713696308624178487803490691619
466,1.7718024293728710346343269211190
467,1.7722343021555319685640901548432
468,1.7726652531867762648983599662916
469,1.7730952864176474130730091008015
470,1.7735244057740755327108454153270
471,1.7739526151570914835816174400125
472,1.7743799184430406281637072647044
473,1.7748063194837915978259374126459
474,1.7752318221069475667400354633386
475,1.7756564301160489563980697743084
476,1.7760801472907800846609396430618
477,1.7765029773871700924580413369376
478,1.7769249241377928242542169838309
479,1.7773459912519645517933261767950
480,1.7777661824159399358321184090320
481,1.7781855012931047768719731273419
482,1.7786039515241691238090245006745
483,1.7790215367273561206393619109873
484,1.7794382604985894111128281475530
485,1.7798541264116805783529805495640
486,1.7802691380185112043838484918367
487,1.7806832988492163984905818212495
488,1.7810966124123643910524230677409
489,1.7815090821951354210983334022199
490,1.7819207116634977807872464686936
491,1.7823315042623831511698519676055
492,1.7827414634158598174967287983315
493,1.7831505925273037391611657954128
494,1.7835588949795685683955505346059
495,1.7839663741351528103014740472871
496,1.7843730333363673687173806787367
497,1.7847788759054991635306927926264
498,1.7851839051449747647754193471867
499,1.7855881243375215409267009562429
500,1.785991536746328451953188320567
501,1.786394145615202233235318772115
502,1.786795954168726425593086633073
503,1.787196965612414719620223660233
504,1.787597183132866458230188788231
505,1.787996609897917144949766858465
506,1.788395249056789688119169303936
507,1.788793103740244229097136058669
508,1.789190177060726194506777145395
509,1.789586472112510803485444347374
510,1.789981991971850083253099789171
511,1.790376739697115624158138738034
512,1.790770718328940974477889112356
513,1.791163930890362290801877722933
514,1.791556380386957920555573170611
515,1.791948069806987291062723252363
516,1.792339002121527315643495615974
517,1.792729180284607391652561981856
518,1.793118607233344776016041413434
519,1.793507285888077120388463742743
520,1.793895219152495023123326632435
521,1.794282409913771393476683719793
522,1.794668861042691904447656226929
523,1.795054575393782971621100847300
