Eigenstate,Potential Energy
1,0.500000000081542775084010982552928171
2,0.64623093818338437380359016954678868
3,0.73633761126847955194281513821844964
4,0.79966528107085181990139971438137753
5,0.8480465809268345104660078413794821
6,0.8870660055994868619801788772139262
7,0.9197208365309308814579661586405260
8,0.9477838601002182047824935359962215
9,0.9723835753148776311819338843800961
10,0.9942802363242972924087267006825825
11,1.0140094132700982487145897691149159
12,1.0319622014573601315987938337461004
13,1.0484327309522641246275909836288974
14,1.0636476994382839496506004586032227
15,1.0777854880303885253694093143363092
16,1.090988966145498266523445482129585
17,1.103374324963996828857356627262592
18,1.115037328435935631203475091621360
19,1.126057836385015028235934068010501
20,1.136503142142523309208877205993563
21,1.146430478629035750353678159970774
22,1.155888929513156146351611739856144
23,1.164920907148042525883598946221535
24,1.173563309971830127366153965809205
25,1.181848439303558428796781087647004
26,1.189804733150759404381229671262530
27,1.197457359172033766778380349345468
28,1.204828698036091136048728713296694
29,1.211938740623702248908255540492029
30,1.218805416869523748384457109175670
31,1.225444869894817590892546372336648
32,1.231871686004187520861328380442560
33,1.238099088809807257334075875653299
34,1.244139103996068769660363392648583
35,1.250002699898383952846220751551966
36,1.255699908036394133951534048033565
37,1.261239926937757291937484252453692
38,1.266631211958264129871148803218086
39,1.271881553306185488606257008557475
40,1.276998144082932807305921243825211
41,1.281987639835363062290639100104156
42,1.286856210860067014063455964106872
43,1.291609588293493247348689197606273
44,1.296253104853666473398038439138750
45,1.300791730961688994758790494600340
46,1.305230106858077950055763662006746
47,1.309572571235514343967255845788717
48,1.313823186831993503295160179725956
49,1.317985763363704056106740440015018
50,1.32206387812283981725087214726348
51,1.32606089452008200106170524400132
52,1.32997997881314396774856352838601
53,1.33382411523032059141279404368028
54,1.33759611967042320616622463343755
55,1.34129865213700559430535316961746
56,1.34493422804471191036325146586313
57,1.34850522851837846973600061296861
58,1.35201390979072414428476568660596
59,1.35546241179171016003464470682541
60,1.35885276601162558438597757179734
61,1.36218690271039056274577909118670
62,1.36546665753726835937103170273830
63,1.36869377761793536819248847434518
64,1.37186992715954577946364950877442
65,1.37499669261889274810522771294345
66,1.37807558747392057055953381412268
67,1.38110805663458008564236346966080
68,1.38409548052526335407016337148662
69,1.38703917886774100061276261470476
70,1.38994041419059733455651124865164
71,1.39280039508855966043165272938081
72,1.39562027925281994857635195323044
73,1.39840117629139402870660293728501
74,1.40114415035674462110731481840752
75,1.40385022259626341895694965727486
76,1.40652037343975787854196692995149
77,1.40915554473678597569933843116598
78,1.41175664175551638864471235118448
79,1.41432453505374474735135623224293
80,1.41686006223175846400014773926365
81,1.41936402957589331754454982046209
82,1.42183721360086351488041745115567
83,1.42428036249825821732081899307969
84,1.42669419749797322935994624041519
85,1.42907941414878727053629517050749
86,1.43143668352377638581581637630453
87,1.43376665335580257911620264002621
88,1.43606994910788937685730020466314
89,1.43834717498291352626140616683614
90,1.44059891487669881639779156556671
91,1.44282573327827655791537473095255
92,1.44502817612078895986785426978571
93,1.44720677158624938698073113911501
94,1.44936203086713055197087604847654
95,1.45149444888753054350093408213949
96,1.45360450498646476823408366243195
97,1.45569266356564754334546413997008
98,1.45775937470395420155163818559654
99,1.45980507474060109853082945157211
100,1.46183018682893457219025836221779
101,1.46383512146259059908295567105528
102,1.46582027697566131855512010131116
103,1.46778604001839668159240564160526
104,1.46973278600986221662373708916884
105,1.47166087956888083078353006142699
106,1.47357067492449580089047950171733
107,1.47546251630711402644532090754708
108,1.47733673832140937739599808612796
109,1.47919366630199737588456758700561
110,1.48103361665283003106510993337007
111,1.48285689717119378488382346685372
112,1.48466380735714409307905607985248
113,1.48645463870915462986502182639954
114,1.48822967500671034700702388835817
115,1.48998919258053316949327342401287
116,1.49173346057108077836077599298956
117,1.49346274117592721822574507875658
118,1.49517728988659303596394808064612
119,1.49687735571535894327004766912658
120,1.49856318141257115359060390789422
121,1.50023500367490827668077854062752
122,1.50189305334506074090268979594892
123,1.50353755560324152045151367977777
124,1.50516873015092926488652400121129
125,1.50678679138721536208223370305834
126,1.50839194857811126841652946017132
127,1.50998440601915186212710239762756
128,1.51156436319160798857777181066808
129,1.51313201491260929293806521269076
130,1.51468755147946005391277348979087
131,1.51623115880841532804003924240725
132,1.51776301856816973687673582803032
133,1.51928330830829944780446732823758
134,1.52079220158288662323326120366568
135,1.52228986806953750463589624901591
136,1.52377647368400161031636955998607
137,1.52525218069058621787289348203209
138,1.52671714780854669032526059822819
139,1.52817153031463109897095741065343
140,1.52961548014194215006661064341846
141,1.53104914597527486494144770718205
142,1.53247267334308038988301158578343
143,1.53388620470619766196597110687843
144,1.53528987954348747735846876108203
145,1.53668383443449932088131064015877
146,1.53806820313929344684512934140458
147,1.53944311667553249822466623347963
148,1.54080870339295799319600307763432
149,1.54216508904535347998956887011210
150,1.54351239686009800093323481552102
151,1.54485074760540577993858338702917
152,1.54618025965534243259683042789033
153,1.54750104905270664857608167297547
154,1.54881322956986124555928435627829
155,1.55011691276759183071296794476418
156,1.55141220805207093604746919726733
157,1.55269922272999867426861997410869
158,1.55397806206199173322012465758691
159,1.5552488293142843817470548379503
160,1.5565116258088078245164474222618
161,1.5577665509717064019117657807101
162,1.5590137023803500960996529322167
163,1.5602531758088981965645828245579
164,1.5614850652724687617045016840582
165,1.5627094630699624767024512815597
166,1.5639264598255914232609525052666
167,1.5651361445291599935170984845665
168,1.5663386045751406370513896465975
169,1.5675339258005895030792056554737
170,1.5687221925219417209414931746058
171,1.5699034875707265133546996569898
172,1.5710778923282400090791029160256
173,1.5722454867592111573368547569307
174,1.5734063494444965874955029190515
175,1.5745605576128383989518925851752
176,1.5757081871717145875714078628671
177,1.5768493127373153692229417821751
178,1.5779840076636745548090543845687
179,1.5791123440709824217408309039176
180,1.5802343928731110282606091989910
181,1.5813502238043746192032595615448
182,1.5824599054455528185863894753611
183,1.5835635052491996583095671851326
184,1.5846610895642626845038467558473
185,1.5857527236600339496628122719695
186,1.5868384717494538591792496627970
187,1.5879183970117916727948122917504
188,1.5889925616147180972832369357261
189,1.5900610267357937014636058179377
190,1.5911238525833888046272442312857
191,1.5921810984170540609362018424865
192,1.5932328225673581220017782415836
193,1.5942790824552106814973084712936
194,1.5953199346106842425932343820541
195,1.5963554346913525405800916117039
196,1.5973856375001593125841916143032
197,1.5984105970028317897039943653296
198,1.5994303663448530735525581013883
199,1.6004449978680062310671428263910
200,1.6014545431265040477922242781235
201,1.6024590529027154160614395323082
202,1.6034585772225017342382726581521
203,1.6044531653701739717433934022490
204,1.6054428659030820147809186591057
205,1.6064277266658462581235976579169
206,1.6074077948042444617050662547818
207,1.6083831167787597426951307208579
208,1.6093537383778039245142904536103
209,1.6103197047306219856683551915596
210,1.6112810603198891040548524366280
211,1.6122378489940076557516954211378
212,1.6131901139791143954656940356206
213,1.6141378978908021965846308277814
214,1.6150812427455713265724986618893
215,1.6160201899720094639904584652191
216,1.6169547804217144116528979609428
217,1.6178850543799634650125459639357
218,1.6188110515761384082777579377586
219,1.6197328111939094112531282284131
220,1.6206503718811903350845529010343
221,1.6215637717598633492553064465420
222,1.6224730484352900572551531304148
223,1.6233782390056026918109401213371
224,1.6242793800707904390349649174837
225,1.6251765077415834480940823204023
226,1.6260696576481380643999576449238
227,1.6269588649485319292272987869883
228,1.6278441643370707560242631417458
229,1.6287255900524139356189554376519
230,1.6296031758855236566246235650694
231,1.6304769551874393303710281901813
232,1.6313469608768877293411409323398
233,1.6322132254477238246779598490248
234,1.6330757809762184688873582994209
235,1.6339346591281860948991353385918
236,1.6347898911659621303172591925745
237,1.6356415079552337470506547009287
238,1.6364895399717256773992929846469
239,1.6373340173077465322422141599670
240,1.6381749696785977748113387600867
241,1.6390124264288496314658101641613
242,1.6398464165384867954858742618523
243,1.6406769686289279547300335981666
244,1.6415041109689208314597076402247
245,1.6423278714803171075156156658826
246,1.6431482777437297534858584021943
247,1.6439653570040741437241913554792
248,1.6447791361760005378494765192345
249,1.6455896418492128973176285022574
250,1.6463969002936844212654588448181
251,1.6472009374647677011332881298467
252,1.6480017790082022920621785768112
253,1.6487994502650247727674407039898
254,1.6495939762763809502453802461122
255,1.6503853817882440888436844828693
256,1.6511736912560392485661867116947
257,1.6519589288491801234607155139006
258,1.6527411184555148242562271022793
259,1.6535202836856874082076934499953
260,1.6542964478774155419648680156920
261,1.6550696340996846106335847991997
262,1.6558398651568629978770275197972
263,1.6566071635927373870592998747862
264,1.6573715516944735337086632333371
265,1.6581330514965010339530445113355
266,1.6588916847843242560875823409348
267,1.6596474730982626479358545492549
268,1.6604004377371204531363744089270
269,1.6611505997617901056864006709211
270,1.6618979799987850263045223404902
271,1.6626425990437111039860589707547
272,1.6633844772646708417375736594349
273,1.6641236348056076090264861124617
274,1.6648600915895872093900495171339
275,1.6655938673220206382097712264379
276,1.6663249814938263084359086815953
277,1.6670534533845392277068497959793
278,1.6677793020653588809478335327072
279,1.6685025464021473210554079321714
280,1.6692232050583695606779180315394
281,1.6699412964979841540636591711930
282,1.6706568389882814653950088966577
283,1.6713698506026728362078161441417
284,1.6720803492234278085892582575936
285,1.6727883525443662115735377906009
286,1.6734938780735011356422948007056
287,1.6741969431356378547890237135368
288,1.6748975648749250980908111691896
289,1.6755957602573633190244598042532
290,1.6762915460732706952304881206381
291,1.6769849389397046998444654864132
292,1.6776759553028421294844984997647
293,1.6783646114403214948561973244665
294,1.6790509234635428110801649701577
295,1.6797349073199268750791110758434
296,1.6804165787951416157840049104011
297,1.6810959535152854490840584019608
298,1.6817730469490369544780811803433
299,1.6824478744097676764910074436567
300,1.6831204510576198016731295758552
301,1.6837907919015491228347217739551
302,1.6844589118013353836677905009269
303,1.6851248254695571771080831951744
304,1.6857885474735349751943956870880
305,1.6864500922372437191850049964532
306,1.6871094740431942333882835614117
307,1.6877667070342806449224640533452
308,1.6884218052156012881012171457161
309,1.6890747824562491829811237710704
310,1.6897256524910724234957855481266
311,1.6903744289224080703601559115459
312,1.6910211252217870621675042957488
313,1.6916657547316115377178001931027
314,1.6923083306668063741511650095490
315,1.6929488661164442608340918537905
316,1.6935873740453456849486248277858
317,1.6942238672956513677062757295820
318,1.6948583585883725027535684876884
319,1.6954908605249159386583013543166
320,1.6961213855885843070690323677371
321,1.6967499461460550158226535784588
322,1.6973765544488342217787576974090
323,1.6980012226346892977726708231385
324,1.6986239627290587711868645118949
325,1.6992447866464414964910794929604
326,1.6998637061917632993500365271564
327,1.7004807330617239134370657311958
328,1.7010958788461213995378308080257
329,1.7017091550291590221981552505567
330,1.7023205729907310159875045787581
331,1.7029301440076886803665874003842
332,1.7035378792550878648026382074817
333,1.7041437898074182230994438449865
334,1.7047478866398124213846189764144
335,1.7053501806292396151139515234217
336,1.7059506825556792535814244768836
337,1.7065494031032780846268903131447
338,1.7071463528614914188470287984737
339,1.7077415423262047182816550841912
340,1.7083349819008416013893437650148
341,1.7089266818974539783720127412144
342,1.7095166525377968144944613872796
343,1.7101049039543871596894485940774
344,1.7106914461915474386714793945873
345,1.7112762892064348214163606896697
346,1.7118594428700541493409680782635
347,1.7124409169682579830863542069056
348,1.7130207212027305841894689723130
349,1.7135988651919593761364288369765
350,1.7141753584721914277242947933270
351,1.7147502104983770469263556115022
352,1.7153234306451001682381640135451
353,1.7158950282074948185011193358330
354,1.7164650124021490763158824154983
355,1.7170333923679968909765749118709
356,1.7176001771671959713784106433566
357,1.7181653757859949846194435183805
358,1.7187289971355893089934963415923
359,1.7192910500529610872292405840740
360,1.7198515433017125186184029857810
361,1.7204104855728841356494715116766
362,1.7209678854857645475059763137244
363,1.7215237515886862468177195551737
364,1.7220780923598125044550086358284
365,1.7226309162079135895415722652009
366,1.7231822314731311931881054081342
367,1.7237320464277339487980581914080
368,1.7242803692768608385477930619147
369,1.7248272081592571194655495983696
370,1.7253725711479984831922492782045
371,1.7259164662512063036552604111694
372,1.7264589014127529300815287671616
373,1.7269998845129569930284910937837
374,1.7275394233692730329023476941977
375,1.7280775257369661435402104086608
376,1.7286141993097830881040088397753
377,1.7291494517206116775510737141732
378,1.7296832905421315801684341773973
379,1.7302157232874584030773898384684
380,1.7307467574107778035954675855253
381,1.7312764003079725070467977798105
382,1.7318046593172393503650097189568
383,1.7323315417197010273535978671778
384,1.7328570547400075005369274521332
385,1.7333812055469307021147983408019
386,1.7339040012539531839553771210038
387,1.7344254489198464672827706718497
388,1.7349455555492430301998448594153
389,1.7354643280932026091055187735143
390,1.7359817734497700045185954402613
391,1.7364978984645247096869030242043
392,1.7370127099311259718248535836026
393,1.7375262145918507609748650594269
394,1.7380384191381232291219915270507
395,1.7385493302110385180084302170529
396,1.7390589544018805681308454958430
397,1.7395672982526335604667955058796
398,1.7400743682564870007600239944409
399,1.7405801708583330138731220805875
400,1.7410847124552601499368354998542
401,1.7415879993970397530215505308622
402,1.7420900379866056393992045740522
403,1.7425908344805299080288907833400
404,1.7430903950894927782967251099904
405,1.7435887259787439224440153390560
406,1.7440858332685614037503582571088
407,1.7445817230347053392756898662981
408,1.7450764013088637924904856248638
409,1.7455698740790937590564774428512
410,1.7460621472902597624755701575698
411,1.7465532268444643219181282728264
412,1.7470431186014738771697043779743
413,1.7475318283791412521662370720923
414,1.7480193619538210834262761903309
415,1.7485057250607824998745386472114
416,1.7489909233946154862778821475364
417,1.7494749626096337814387548029089
418,1.7499578483202714771013868937632
419,1.7504395861014775988745814419023
420,1.7509201814891036539522203109838
421,1.7513996399802881007459945532363
422,1.7518779670338370250398794990189
423,1.7523551680705988618903162794751
424,1.7528312484738367801540701877233
425,1.7533062135895951122467318430127
426,1.7537800687270634392942080137442
427,1.7542528191589358197176063948008
428,1.7547244701217651784345104787130
429,1.7551950268163167726501768319631
430,1.7556644944079136000231820919014
431,1.7561328780267812566360766130240
432,1.7566001827683893981559023681256
433,1.7570664136937851460556688122655
434,1.7575315758299295409149297710619
435,1.7579956741700248706508347873470
436,1.7584587136738407789759180753133
437,1.7589206992680373198516633386840
438,1.7593816358464839445345541607624
439,1.7598415282705751071614332266456
440,1.7603003813695435648620785618117
441,1.7607581999407685371460245089845
442,1.7612149887500822932470912105590
443,1.7616707525320748202813561098279
444,1.7621254959903911969003240784949
445,1.7625792237980310085471657857746
446,1.7630319405976408342684860273790
447,1.7634836510018069799964636782863
448,1.7639343595933416824263305103673
449,1.7643840709255706300559871001868
450,1.7648327895226139600807516771217
451,1.7652805198796682406523969130241
452,1.7657272664632822864444821209658
453,1.7661730337116325573797319874993
454,1.7666178260347945364369487005055
455,1.7670616478150137175811278506785
456,1.7675045034069715081810058987556
457,1.7679463971380507492108340122407
458,1.7683873333085972569201656010852
459,1.7688273161921799079235580079598
460,1.7692663500358489183007952639548
461,1.7697044390603901749242631517212
462,1.7701415874605788407922494325459
463,1.7705777994054308471373600753232
464,1.7710130790384504424602186924851
465,1.7714474304778777767445390080921
466,1.7718808578169336613623008404149
467,1.7723133651240607952638099606140
468,1.7727449564431664834947183864529
469,1.7731756357938593354310897191157
470,1.7736054071716874782923661745075
471,1.7740342745483725643898489545569
472,1.7744622418720438814118702549708
473,1.7748893130674679286938609273818
474,1.7753154920362809758729393202770
475,1.7757407826572135394725054455264
476,1.7761651887863193043965716241868
477,1.7765887142571988369122991603207
478,1.7770113628812227791114892666480
479,1.7774331384477534286648598150718
480,1.7778540447243651133318138104523
481,1.7782740854570619264468967601763
482,1.7786932643704964079902605611791
483,1.7791115851681845675658221216297
484,1.7795290515327200858734408641754
485,1.7799456671259891889254037805535
486,1.7803614355893807977174764679849
487,1.7807763605439988206370333493141
488,1.7811904455908712041769359499165
489,1.7816036943111589897580741684733
490,1.7820161102663632600477930698667
491,1.7824276969985321299714763975114
492,1.7828384580304663922010649056631
493,1.7832483968659238144502844473014
494,1.7836575169898232056503383129268
495,1.7840658218684464673137166526731
496,1.7844733149496418991139787327054
497,1.7848799996630244696078195844105
498,1.7852858794201770236415765219948
499,1.7856909576148499509117015453914
500,1.786095237623161474229470423758
501,1.786498722803794332533091708581
502,1.786901416498196343818175543767
503,1.787303322030776347133450101772
504,1.787704442709103399566913121126
505,1.788104781824102108886277490788
506,1.788504342650249866273229888003
507,1.788903128445773862724747365458
508,1.789301142452847565877466284433
509,1.789698387897784926239043215192
510,1.790094867991238405502346467019
511,1.790490585928394098862475939848
512,1.790885544889167893827200647150
513,1.791279748038401325100178723251
514,1.791673198526057847390517136770
515,1.792065899487419947508568279978
516,1.792457854043285354912154535828
517,1.792849065300163476045510310275
518,1.793239536350473890332165850877
519,1.793629270272743744172482304629
520,1.794018270131806956382012394679
521,1.794406538979002088827496741464
522,1.794794079852373219190751941574
523,1.795180895776870316033656662143
