Eigenstate,Potential Energy
1,0.500000000024920599158636063794124383
2,0.64623093781378322366424397523831285
3,0.73633761018280100866338261248358241
4,0.79966527880949314782813266586060009
5,0.8480465770096671160885428858045486
6,0.8870659995379594161593819064759695
7,0.9197208278325262487880917155501491
8,0.9477838482703098515746673552108830
9,0.9723835598575907291056608933427680
10,0.9942802167429438056202815025009460
11,1.0140093890674114692997066900338858
12,1.0319621721356270143790391176827792
13,1.0484326960134019810079210298520892
14,1.0636476583838851174313577264157133
15,1.0777854403617457164485331997755884
16,1.090988911363617774737993159751779
17,1.103374262569603838286948377148619
18,1.115037257929474224085261077762049
19,1.126057757266644538871840364479751
20,1.136503053912112097370893239429020
21,1.146430380786153112359153533608412
22,1.155888821557062855384078441889167
23,1.164920788577680344997487395939487
24,1.173563180285810539575986891718277
25,1.181848298000150761082945872330347
26,1.189804579727878475488334925850130
27,1.197457193127227155496667078340846
28,1.204828518866526142851310751082028
29,1.211938547826152606478711453308025
30,1.218805209940356123781788821046416
31,1.225444648329977912554574680290165
32,1.231871449299187156441224551464825
33,1.238098836459709062867405197036326
34,1.244138835495473026325530164080959
35,1.250002414741414204289578156136989
36,1.255699605716682934567943025472500
37,1.261239606948431874457684914222372
38,1.266630873791931998983514025423807
39,1.271881196454919946038251040668357
40,1.276997768038258412739151887493491
41,1.281987244088241033629164497615744
42,1.286855794900880569876587617806717
43,1.291609151612032893735239063360607
44,1.296252646939115237044221221171387
45,1.300791251302607603567277047281113
46,1.305229604942389962393568875978991
47,1.309572046550491227303310530855307
48,1.313822638864239662764729870902531
49,1.317985191599141813341800550107263
50,1.32206328204669433964697822718908
51,1.32606027361686618150749220037159
52,1.32997933256664325472010070709481
53,1.33382344312357776922808767678990
54,1.33759542118572312510229609823901
55,1.34129792675585985019966449543495
56,1.34493347524784347325059339304610
57,1.34850444778570626101002109933631
58,1.35201310060134756181839810692465
59,1.35546157362389355064545062612102
60,1.35885189834278266298906144983846
61,1.36218600501706877749839600985156
62,1.36546572929513320207819145243773
63,1.36869281830175462921159774154804
64,1.37186893624317374631780101751694
65,1.37499566957525434698864898326036
66,1.37807453177499544989506229809957
67,1.38110696775138664082883625136358
68,1.38409435792784269253737272410408
69,1.38703802202514084628254891996523
70,1.38993922257085587079127566380878
71,1.39279916815868931053451438033351
72,1.39561901647879109289192796229397
73,1.39839987713811865735615091417191
74,1.40114281428805992137803939691454
75,1.40384884907491529635146303285617
76,1.40651896192738441048106389137568
77,1.40915409469390079685844179353538
78,1.41175515264149200689212019351540
79,1.41432300632679578924448139253898
80,1.41685849334892484878448026824164
81,1.41936241999302335858840084020320
82,1.42183556277259694746742765171621
83,1.42427866987800915171119251236552
84,1.42669246253791302802034474722093
85,1.42907763629982734842753352288760
86,1.43143486223555093261687031544695
87,1.43376478807665120225211857676986
88,1.43606803928483966418812319880951
89,1.43834522006166352727851891642681
90,1.44059691430159944076349186001027
91,1.44282368649231389017067263980052
92,1.44502608256556648912308649637591
93,1.44720463070197015039250212961023
94,1.44935984209257919079837828912548
95,1.45149221166005527052361896524528
96,1.45360221874195924530188627252181
97,1.45569032773853266782168174612812
98,1.45775698872715980039759746487536
99,1.45980263804554752877011468473150
100,1.46182769884551422647917645070897
101,1.46383258161914931510232690239651
102,1.46581768469897969092711262121639
103,1.46778339473367127501453802250355
104,1.46973008714068667890002895567883
105,1.47165812653722690442133975739415
106,1.47356786715069423191924671217612
107,1.47545965320983536910136774474520
108,1.47733381931764469330510155385128
109,1.47919069080703882636153519224901
110,1.48103058408025136113703734829306
111,1.48285380693283069763082380868495
112,1.48466065886307451287324073557291
113,1.48645143136767885307545747249830
114,1.48822640822433107872493335063833
115,1.48998586576193544481842727452654
116,1.49173007311911176677611974564253
117,1.49345929249157590957363339207321
118,1.49517377936896980652319615780185
119,1.49687378276167500041886496446237
120,1.49855954541811785752575582018808
121,1.50023130403303633764902903247827
122,1.50188928944715929038554353957962
123,1.50353372683871705472913153535428
124,1.50516483590718445939176973480482
125,1.50678283104962775493984622281852
126,1.50838792153001181154711236804943
127,1.50998031164180333827955996503794
128,1.51156020086418329263756468470247
129,1.51312778401216957584251549929035
130,1.51468325138093272748790112059371
131,1.51622678888457192905674926979645
132,1.51775857818960364860652632901544
133,1.51927879684340347733860184500570
134,1.52078761839783043281062562495354
135,1.52228521252824489520757355249830
136,1.52377174514812765555692273618949
137,1.52524737851949424682981813408435
138,1.52671227135928511687945897824539
139,1.52816657894191009626241803631005
140,1.52961045319811016802020964027391
141,1.53104404281029498900852956365309
142,1.53246749330450653909461574772716
143,1.53388094713915062437362993760034
144,1.53528454379063078091831742825177
145,1.53667841983601493781677980814173
146,1.53806270903285732950252022769465
147,1.53943754239628994441478873895244
148,1.54080304827349883899394844239293
149,1.54215935241568711794230863446533
150,1.54350657804762822160374722979967
151,1.54484484593490543469150897342710
152,1.54617427444892791550909198352865
153,1.54749497962981219533238570742301
154,1.54880707524721304716918746143998
155,1.55011067285918195986259255372912
156,1.55140588186913108387456854373220
157,1.55269280958097369532597516500577
158,1.55397156125251299636692551535414
159,1.5552422401471429246833434759206
160,1.5565049475839273096497746210201
161,1.5577597829861158712199030254755
162,1.5590068439281565226265450634357
163,1.5602462261812588301607980008728
164,1.5614780237575632665958168513790
165,1.5627023289529648584432374246203
166,1.5639192323886417426013452957589
167,1.5651288230513358646848744858339
168,1.5663311883324285079203920605817
169,1.5675264140658557146681052164870
170,1.5687145845649033436563551597083
171,1.5698957826579219573598112547090
172,1.5710700897229994061497493919429
173,1.5722375857216265115174514346941
174,1.5733983492313916918550972790144
175,1.5745524574777385156974889379915
176,1.5756999863648158887476987319089
177,1.5768410105054541351944261246924
178,1.5779756032502961276875430153897
179,1.5791038367161099108878325289109
180,1.5802257818133137649601668912775
181,1.5813415082727363575663399407633
182,1.5824510846716396797132157178965
183,1.5835545784590278147002056835133
184,1.5846520559802657816721543055848
185,1.5857435825010302618710282262431
186,1.5868292222306131761756123488511
187,1.5879090383446019143964144808446
188,1.5889830930069516526099750845137
189,1.5900514473914734895897754701299
190,1.5911141617027540533778790441489
191,1.5921712951965258005152603738629
192,1.5932229061995043900991935181349
193,1.5942690521287114364803693202062
194,1.5953097895102959813466962753736
195,1.5963451739978726175160074385743
196,1.5973752603903899563006973386837
197,1.5984001026495438137278425124392
198,1.5994197539167492775562118563197
199,1.6004342665296844889060439986658
200,1.6014436920384200786627535049612
201,1.6024480812211452350336789786059
202,1.6034474840995037783696579302972
203,1.6044419499535508979335099074341
204,1.6054315273363421654774583123539
205,1.6064162640881647909416375992594
206,1.6073962073504241389710830343334
207,1.6083714035791913768768710683803
208,1.6093418985584264754464385164897
209,1.6103077374128823054309237253398
210,1.6112689646207013253089103759358
211,1.6122256240257122192833128032911
212,1.6131777588494367126337744655437
213,1.6141254117028109423129041121306
214,1.6150686245976363584701456583278
215,1.6160074389577593631283567778690
216,1.6169418956299936404638490583359
217,1.6178720348947891377257289967061
218,1.6187978964766566692376795523673
219,1.6197195195543514164114620808511
220,1.6206369427708278318929759371694
221,1.6215502042429638501238658177198
222,1.6224593415710716016770112728502
223,1.6233643918481881921899500309389
224,1.6242653916691616051871674526092
225,1.6251623771395342853264647574353
226,1.6260553838842279400027231856251
227,1.6269444470560382021480267457531
228,1.6278296013439409644199828969453
229,1.6287108809812175369138165056375
230,1.6295883197534033146270613556581
231,1.6304619510060617439316305964981
232,1.6313318076523939969582431365222
233,1.6321979221806793393817334954959
234,1.6330603266615623376571023825959
235,1.6339190527551800767900885746443
236,1.6347741317181390873941952840279
237,1.6356255944103456021445122961814
238,1.6364734713016908726223554102516
239,1.6373177924785969821134358054945
240,1.6381585876504253077585469341641
241,1.6389958861557519133870504944339
242,1.6398297169685127289645026138175
243,1.6406601087040225474083679668968
244,1.6414870896248695269883058137473
245,1.6423106876466895724019320276067
246,1.6431309303438231130735371005946
247,1.6439478449548556604407629764297
248,1.6447614583880497247628804853543
249,1.6455717972266630599455048771270
250,1.6463788877341636204814011229048
251,1.6471827558593391299136477659921
252,1.6479834272413040587148869283383
253,1.6487809272144090831799870244967
254,1.6495752808130526815831522867484
255,1.6503665127763987470227961653179
256,1.6511546475530003017149542311704
257,1.6519397093053357034735562585694
258,1.6527217219142537884301428864894
259,1.6535007089833347528374422491323
260,1.6542766938431671596551823200594
261,1.6550496995555413829689845310628
262,1.6558197489175642149683827804312
263,1.6565868644656934853644245363277
264,1.6573510684796981433987401713596
265,1.6581123829865423269700730795330
266,1.6588708297641955859092132331547
267,1.6596264303453724719329420071165
268,1.6603792060212015282744159547750
269,1.6611291778448279481873755373082
270,1.6618763666349456257470802761679
271,1.6626207929792678821823649573734
272,1.6633624772379308465812324667506
273,1.6641014395468369333623531214777
274,1.6648376998209356248078815149811
275,1.6655712777574454335149121272003
276,1.6663021928390153223956732414875
277,1.6670304643368330655176442639456
278,1.6677561113136723037092462960535
279,1.6684791526268897973766404042809
280,1.6691996069313649693790472842165
281,1.6699174926823896267670436120438
282,1.6706328281385053576332647069769
283,1.6713456313642918155033649978767
284,1.6720559202331030477834876864346
285,1.6727637124297586755065273532916
286,1.6734690254531859491031633966162
287,1.6741718766190177394706224148090
288,1.6748722830621428660961302217337
289,1.6755702617392134102804175571991
290,1.6762658294311097459701221255018
291,1.6769590027453611291204203652713
292,1.6776497981185247304756345950949
293,1.6783382318185270175236071624056
294,1.6790243199469625225199684590106
295,1.6797080784413520837077942194276
296,1.6803895230773681452743624260398
297,1.6810686694710170477507486615006
298,1.6817455330807876255866520419909
299,1.6824201292097629147370294603150
300,1.6830924730076967208449023702234
301,1.6837625794730554594364039736128
302,1.6844304634550273610396510600421
303,1.6850961396554962143345187931153
304,1.6857596226309832248411653258045
305,1.6864209267945584176524341690731
306,1.6870800664177208474080558524685
307,1.6877370556322447974627243077218
308,1.6883919084319994466747474997865
309,1.6890446386747380930792552326483
310,1.6896952600838572695907563976303
311,1.6903437862501293466362142951400
312,1.6909902306334061348496348607189
313,1.6916346065642948805754406286103
314,1.6922769272458084584525712820897
315,1.6929172057549890807208171076299
316,1.6935554550445068988901884595987
317,1.6941916879442310363764141248288
318,1.6948259171627784033461558588465
319,1.6954581552890374353328786827620
320,1.6960884147936667568796070743129
321,1.6967167080305726891418654612055
322,1.6973430472383617158803746993108
323,1.6979674445417714218808594314096
324,1.6985899119530788809396905156823
325,1.6992104613734882553946534476618
326,1.6998291045944958444261311156735
327,1.7004458532992354018828169562220
328,1.7010607190638009128250959947522
329,1.7016737133585518036433928824439
330,1.7022848475493970174160897079381
331,1.7028941328990593930819636779871
332,1.7035015805683214096492242575752
333,1.7041072016172526739781868580139
334,1.7047110070064173361409504829396
335,1.7053130075980657472716719339167
336,1.7059132141573064179396999783497
337,1.7065116373532611492722756429327
338,1.7071082877602043956590941500911
339,1.7077031758586829235267648760209
340,1.7082963120366218575036522275746
341,1.7088877065904128275335923033068
342,1.7094773697259867140684122081924
343,1.7100653115598706291089242176540
344,1.7106515421202291267821097610771
345,1.7112360713478914627693687459967
346,1.7118189090973623773612367519339
347,1.7124000651378199674775185859491
348,1.7129795491540974593580992489125
349,1.7135573707476524268289937262828
350,1.7141335394375209974655070552065
351,1.7147080646612591342366053570835
352,1.7152809557758706749770171968167
353,1.7158522220587214140463721720378
354,1.7164218727084406406328109427886
355,1.7169899168458104989668342742236
356,1.7175563635146413802153123449916
357,1.7181212216826365850827949345099
358,1.7186845002422455011091144896956
359,1.7192462080115010397907296333263
360,1.7198063537348502714339579646112
361,1.7203649460839700025979452752333
362,1.7209219936585737777171426643508
363,1.7214775049872049005058430113631
364,1.7220314885280204991286889765381
365,1.7225839526695648714950291536124
366,1.7231349057315309883367935329773
367,1.7236843559655130460718105809989
368,1.7242323115557468581725306607277
369,1.7247787806198427175772206842443
370,1.7253237712095064433109549368073
371,1.7258672913112514646176222984015
372,1.7264093488471008990746198385099
373,1.7269499516752795913985484923238
374,1.7274891075909004214140175129973
375,1.7280268243266355727485084502007
376,1.7285631095533842184618404178815
377,1.7290979708809284128140387835502
378,1.7296314158585803565762961326481
379,1.7301634519758228756798300312442
380,1.7306940866629398699609280012264
381,1.7312233272916396074310007246545
382,1.7317511811756679822351790046380
383,1.7322776555714164109537010587552
384,1.7328027576785193309406134574789
385,1.7333264946404449219470379817766
386,1.7338488735450797096744935917297
387,1.7343699014253028005863826000175
388,1.7348895852595536847679137995146
389,1.7354079319723942815104225135202
390,1.7359249484350624167168487660919
391,1.7364406414660170490581426331990
392,1.7369550178314788532465561513443
393,1.7374680842459636339014110808012
394,1.7379798473728071510917081411714
395,1.7384903138246842144168440380970
396,1.7389994901641216964799961880928
397,1.7395073829040050956500215014674
398,1.7400139985080786562333762379994
399,1.7405193433914376118338755831937
400,1.7410234239210168518456510036239
401,1.7415262464160720599847857520736
402,1.7420278171486540700638741904859
403,1.7425281423440792597349436233318
404,1.7430272281813938752777350955200
405,1.7435250807938297528644973440934
406,1.7440217062692575453229766697661
407,1.7445171106506345711034657115190
408,1.7450112999364447886305894253908
409,1.7455042800811337571033479415839
410,1.7459960569955410982077282834119
411,1.7464866365473247187466834848913
412,1.7469760245613803767626280338135
413,1.7474642268202576701989325609503
414,1.7479512490645688719315399706831
415,1.7484370969933948951206182287877
416,1.7489217762646848185005779182917
417,1.7494052924956518200826324509533
418,1.7498876512631626824920744722811
419,1.7503688581041251484389709116914
420,1.7508489185158681082303199433614
421,1.7513278379565185714942278591319
422,1.7518056218453747047049794689066
423,1.7522822755632727706356572884919
424,1.7527578044529515834494829748668
425,1.7532322138194108587757019143118
426,1.7537055089302670655966546996575
427,1.7541776950161042645612746796545
428,1.7546487772708199463984824829870
429,1.7551187608519697828032229242648
430,1.7555876508811041518860561730398
431,1.7560554524441039418250524792751
432,1.7565221705915127822188668761284
433,1.7569878103388610410218284506316
434,1.7574523766669926849822091070402
435,1.7579158745223828272409043406787
436,1.7583783088174538630645768632543
437,1.7588396844308883550647631111216
438,1.7593000062079376499502258216466
439,1.7597592789607269080986687229573
440,1.7602175074685576171426535551684
441,1.7606746964782047494043593474503
442,1.7611308507042121268058717669992
443,1.7615859748291856409312428661133
444,1.7620400735040789475914086368090
445,1.7624931513484809665305175796826
446,1.7629452129508962106021254190785
447,1.7633962628690251135629202150618
448,1.7638463056300375746645401179273
449,1.7642953457308475605253697193284
450,1.7647433876383809167026991577012
451,1.7651904357898438920358427501405
452,1.7656364945929852170862261456226
453,1.7660815684263574797233429430877
454,1.7665256616395741867811859331811
455,1.7669687785535661356343359502104
456,1.7674109234608323926680209821290
457,1.7678521006256905743251209709393
458,1.7682923142845228266012334997892
459,1.7687315686460200168878621726614
460,1.7691698678914237804808796783481
461,1.7696072161747642714535884540294
462,1.7700436176230968309181955847823
463,1.7704790763367361764209438154280
464,1.7709135963894862733493143059114
465,1.7713471818288698570605606619982
466,1.7717798366763547364006139284990
467,1.7722115649275761591023069599770
468,1.7726423705525602546759250243821
469,1.7730722574959410314608699210941
470,1.7735012296771784523503567182640
471,1.7739292909907718562676557129882
472,1.7743564453064730229764223424506
473,1.7747826964694942320980957305821
474,1.7752080483007188203003318084693
475,1.7756325045969031593815190894673
476,1.7760560691308825690254828747142
477,1.7764787456517714971925018969834
478,1.7769005378851626441033457461793
479,1.7773214495333239191678290269942
480,1.7777414842753936254071304377902
481,1.7781606457675724222106283949193
482,1.7785789376433156351807899090427
483,1.7789963635135212930282410247010
484,1.7794129269667167112367141833893
485,1.7798286315692450993380185666317
486,1.7802434808654467765528036067718
487,1.7806574783778418445426939980946
488,1.7810706276073089137211480325183
489,1.7814829320332631111838991368280
490,1.7818943951138312332632322515692
491,1.7823050202860261768661086375076
492,1.7827148109659192376572124806614
493,1.7831237705488102499688625225863
494,1.7835319024093966623479701104041
495,1.7839392099019397411037026181331
496,1.7843456963604311461438224656201
497,1.7847513650987555644832150734419
498,1.7851562194108533465403738348491
499,1.7855602625708806424013843183692
500,1.785963497833369168379651141718
501,1.786365928433381349736887735227
502,1.786767557586668294569693709729
503,1.787168388489822066805980263394
504,1.787568424320430101966248196916
505,1.787967668237224612966373231662
506,1.788366123380232715858783231599
507,1.788763792870925123342974459556
508,1.789160679812363045806560837005
509,1.789556787289341530583967261822
510,1.789952118368535292462992899912
511,1.790346676098640266308325306624
512,1.790740463510514781787004605217
513,1.791133483617318975721251222093
514,1.791525739414653118322079450654
515,1.791917233880695227388811008496
516,1.792307969976336180654713473083
517,1.792697950645313400857267084796
518,1.793087178814344898762082968292
519,1.793475657393260455925521923865
520,1.793863389275132804044098638616
521,1.794250377336405595960717279243
522,1.794636624437022444373962112155
523,1.795022133420553465250501597686
