Eigenstate,Potential Energy
1,0.500000000038660060293054661297846305
2,0.64623093790346732727112055879826016
3,0.73633761044624110674781893505367140
4,0.79966527935820959155920201853526503
5,0.8480465779601580502242942914404411
6,0.8870660010087629597457611625348915
7,0.9197208299431380357324859673665456
8,0.9477838511407315908301599180356078
9,0.9723835636081202760036941718734494
10,0.9942802214940686057594527843694286
11,1.0140093949397506655715639567350159
12,1.0319621792498983520485125821174603
13,1.0484327044904022130073172025584779
14,1.0636476683444781791105286886154399
15,1.0777854519268555875570019154795424
16,1.090988924654224285767351410455671
17,1.103374277706740392160886199225771
18,1.115037275034226802414853774675232
19,1.126057776460151593182383859849441
20,1.136503075315565064713910531779430
21,1.146430404520797380944176093332477
22,1.155888847744199060847712055078855
23,1.164920817338665913872086200694146
24,1.173563211742061420551163145227883
25,1.181848332273143301048054995407722
26,1.189804616939151408737432902910231
27,1.197457233398383682529385075349757
28,1.204828562319236080981955231054345
29,1.211938594582154598672535034561855
30,1.218805260121459895239779822487438
31,1.225444702058066566883958959639376
32,1.231871506696219504997014943505482
33,1.238098897647721982183776126633720
34,1.244138900596583839582804610969056
35,1.250002483877823083560828972548124
36,1.255699679010675321214860617743709
37,1.261239684522380915539713973156647
38,1.266630955768300997937749335272321
39,1.271881282956264826203041104610525
40,1.276997859187230192548934036652927
41,1.281987340007588312514780204153203
42,1.286855895713452024074217853118283
43,1.291609257440779781345864470715390
44,1.296252757907093911800109669223369
45,1.300791367532982036857157289534015
46,1.305229726558434273177547336843116
47,1.309572173675592219615112573679924
48,1.313822771621899370554898250253422
49,1.317985330112980052462850125869595
50,1.32206342644045126682172521350531
51,1.32606042401440486015610257634093
52,1.32997948909195222755074075629118
53,1.33382360590077363752127089869018
54,1.33759559033905313464078164449538
55,1.34129810240970448381456783501699
56,1.34493365752671904997071513750599
57,1.34850463681426754181561890763802
58,1.35201329650439036201311740574171
59,1.35546177652635735887100351861498
60,1.35885210836975326691687900639476
61,1.36218622229378089624095664946523
62,1.36546595394697312537027667317294
63,1.36869305045426286341838844856188
64,1.37186917602204766733269519820665
65,1.37499591710635086008902526768915
66,1.37807478718433365662901724259320
67,1.38110723116515051301022279419655
68,1.38409462947238375343038699580477
69,1.38703830182698085906068506973954
70,1.38993951075668953435861249394937
71,1.39279946485538696280036789845677
72,1.39561932181340142159249916105731
73,1.39840019123787141851937133920722
74,1.40114313728036866553006901978484
75,1.40384918108738010256548393387538
76,1.40651930308779462837093029165604
77,1.40915444513023779662167577189152
78,1.41175551248193193750846165012817
79,1.41432337569971234493784784554772
80,1.41685887238289204385772379835073
81,1.41936280881681831074176007330946
82,1.42183596151520266971297240936788
83,1.42427907866861735299686381324471
84,1.42669288150592692267853429261161
85,1.42907806557486447456434599121819
86,1.43143530194744597955941931661898
87,1.43376523835545884717237890046568
88,1.43606850026083741802297577844870
89,1.43834569186535459006672615442748
90,1.44059739706371556652139426649739
91,1.44282418034381826142948523673701
92,1.44502658763765660125167197592717
93,1.44720514712608070583052473713165
94,1.44936037000038500332573812855092
95,1.45149275118347417969307423485046
96,1.45360277001315504116269891750956
97,1.45569089088991802606317855021142
98,1.45775756389139922804240391709699
99,1.45980322535556032054786581164334
100,1.46182829843447743201241245717072
101,1.46383319362050071703725846456344
102,1.46581830924642079414289185673805
103,1.46778403196117030704559315803422
104,1.46973073718248160170706106867121
105,1.47165878952782843764743248937690
106,1.47356854322488888776856875316115
107,1.47546034250268849897888143765325
108,1.47733452196450354635666862422268
109,1.47919140694353562005478073490932
110,1.48103131384230636402431446513885
111,1.48285455045665532443658779266398
112,1.48466141628517443204916546383900
113,1.48645220282485710696758086172852
114,1.48822719385369121649815106817905
115,1.48998666570088466828467098446021
116,1.49173088750536408927355732251607
117,1.49346012146315532804527031324490
118,1.49517462306421348694428646704032
119,1.49687464131923647672356535162032
120,1.49856041897697024418463007412757
121,1.50023219273247555604991173537101
122,1.50189019342680730917145247849313
123,1.50353464623852514424799717685228
124,1.50516577086743646041381967885638
125,1.50678378171094336179960515846366
126,1.50838888803334986986813568716164
127,1.50998129412846515744108632901940
128,1.51156119947581597314351245163170
129,1.51312879889076935175431279248649
130,1.51468428266884832408386080397755
131,1.51622783672450793588182628029882
132,1.51775964272462390807767760722734
133,1.51927987821693448907186981100161
134,1.52078871675366477383755734046436
135,1.52228632801054465624975445392198
136,1.52377287790142789352853498979186
137,1.52524852868870645373957988948317
138,1.52671343908970070530442180645473
139,1.52816776437920390156754252464595
140,1.52961165648834396749880672877521
141,1.53104526409992103812008001209906
142,1.53246873274037112497774407186712
143,1.53388220486849763681342592407448
144,1.53528581996110530094855538918341
145,1.53667971459566684413891776284338
146,1.53806402253014492290480566520461
147,1.53943887478008359037624897856524
148,1.54080439969308462865938716069599
149,1.54216072302077054765598830989284
150,1.54350796798833789119071906699775
151,1.54484625536179676467733204327016
152,1.54617570351298688346988194953579
153,1.54749642848245909156884392354162
154,1.54880854404030624989969474499857
155,1.55011216174502173013202783178686
156,1.55140739100046338037719585399331
157,1.55269433911099400934212164451976
158,1.55397311133487020701494278876915
159,1.5552438109359431746899014461961
160,1.5565065392337379018432025577644
161,1.5577613956519691859529770063692
162,1.5590084777655539563367739139857
163,1.5602478813461747552778971487369
164,1.5614797004064490130079332829636
165,1.5627040272427527167351663731894
166,1.5639209524767489892796082604477
167,1.5651305650956688096065401865017
168,1.5663329524913865641441722643591
169,1.5675282004983354909480586884423
170,1.5687163934303027598005787848432
171,1.5698976141161443826780674034188
172,1.5710719439344578212161550506412
173,1.5722394628472476934760163860541
174,1.5734002494326204234980272666491
175,1.5745543809165418185480204818249
176,1.5757019332036872803812350593924
177,1.5768429809074179110337141208875
178,1.5779775973789116675097057127899
179,1.5791058547354760102830990230747
180,1.5802278238880729919841399879068
181,1.5813435745680794348299316568664
182,1.5824531753533098921562001523868
183,1.5835566936933254432967719805686
184,1.5846541959340525633188216088000
185,1.5857457473417338757096626281104
186,1.5868314121262317566061370188033
187,1.5879112534637085910365758986506
188,1.5889853335186991174613142535847
189,1.5900537134655985916715494220884
190,1.5911164535095824210928780624910
191,1.5921736129069764920138315825564
192,1.5932252499850945719101771121552
193,1.5942714221615610906800481822097
194,1.5953121859631326415393175959643
195,1.5963475970440361339018054030043
196,1.5973777102038372901099445624499
197,1.5984025794048538613019736133093
198,1.5994222577891277243594786071589
199,1.6004367976949686937539078804017
200,1.6014462506730839884557042750390
201,1.6024506675023043302878289262226
202,1.6034500982049200498382874730911
203,1.6044445920616378546160911153954
204,1.6054341976261698743158224365511
205,1.6064189627394649485053702290766
206,1.6073989345435951754373312424746
207,1.6083741594953035926122445378281
208,1.6093446833792272105018351534057
209,1.6103105513208011422628796679979
210,1.6112718077988553250439809833911
211,1.6122284966579111918450198335421
212,1.6131806611201885210545294121775
213,1.6141283437973268415565975408545
214,1.6150715867018363690938023601639
215,1.6160104312582776801147235912759
216,1.6169449183141840775596870094139
217,1.6178750881507306076238108698974
218,1.6188009804931586999437380152685
219,1.6197226345209597041405576852583
220,1.6206400888778298308431170682668
221,1.6215533816813943994778802329041
222,1.6224625505327185901872386558983
223,1.6233676325255982607035806792808
224,1.6242686642556458874734907891482
225,1.6251656818291741875710134079255
226,1.6260587208718809593364616064716
227,1.6269478165373437845836241694712
228,1.6278330035153264025706463655740
229,1.6287143160399039078739112916458
230,1.6295917878974114583972883195029
231,1.6304654524342182827755877287479
232,1.6313353425643373960806185950897
233,1.6322014907768660093224105610643
234,1.6330639291432727787993533636300
235,1.6339226893245250663848366417370
236,1.6347778025780659095065779478704
237,1.6356292997646443209324153702987
238,1.6364772113550006493614613950261
239,1.6373215674364124363865224672931
240,1.6381623977191029232319774630188
241,1.6389997315425164886007109789610
242,1.6398335978814638735660369426486
243,1.6406640253521412242671539258920
244,1.6414910422180246406283750273336
245,1.6423146763956446041981710425314
246,1.6431349554602428036594178836375
247,1.6439519066513127397805840146010
248,1.6447655568780316903461914344542
249,1.6455759327245790035657280282604
250,1.6463830604553511040657383458690
251,1.6471869660200711108757545709801
252,1.6479876750587958653069947507544
253,1.6487852129068254403253866726118
254,1.6495796045995147876757359593272
255,1.6503708748769914021844195779508
256,1.6511590481887790880073918556847
257,1.6519441486983342175660084030405
258,1.6527262002874909272290775729264
259,1.6535052265608220525903767732930
260,1.6542812508499161890455029813971
261,1.6550542962175711907245006294443
262,1.6558243854619088325110680166708
263,1.6565915411204094850350115307698
264,1.6573557854738722527948364968744
265,1.6581171405502990999424925379308
266,1.6588756281287051307667179280567
267,1.6596312697428582374113389926128
268,1.6603840866849481478318432415189
269,1.6611341000091891431937111876122
270,1.6618813305353521681408944273888
271,1.6626257988522356171753780092925
272,1.6633675253210687759961723208383
273,1.6641065300788553601962671006792
274,1.6648428330416543596195170100152
275,1.6655764539078020632406094012969
276,1.6663074121610735422051474791834
277,1.6670357270737910743274833033819
278,1.6677614177098712639782208346156
279,1.6684845029278223598140240045363
280,1.6692050013836838632036933370892
281,1.6699229315339163161618125536977
282,1.6706383116382387650463777646558
283,1.6713511597624171124553203125357
284,1.6720614937810005138452014781783
285,1.6727693313800126261216152132103
286,1.6734746900595937329347077290010
287,1.6741775871365988059597780653091
288,1.6748780397471479039278975165717
289,1.6755760648491335574590700833481
290,1.6762716792246858722146134227032
291,1.6769648994825931912978273822230
292,1.6776557420606812017987772848160
293,1.6783442232281543912464535740632
294,1.6790303590878948908731180846508
295,1.6797141655787207928239110072788
296,1.6803956584776115268621161266613
297,1.6810748534018902282840589233390
298,1.6817517658113724137844385127555
299,1.6824264110104777681174414139768
300,1.6830988041503067921464670772487
301,1.6837689602306827237076155408627
302,1.6844368941021608242072975535058
303,1.6851026204680022040699783185692
304,1.6857661538861157645534284840268
305,1.6864275087709696844455098354006
306,1.6870866993954717148498485705875
307,1.6877437398928154640223594835844
308,1.6883986442583001506944698611889
309,1.6890514263511199151572834516348
310,1.6897020998961230232607836444682
311,1.6903506784855445582398822273810
312,1.6909971755807101135081482823512
313,1.6916416045137118791766836702419
314,1.6922839784890589265806319452212
315,1.6929243105853010104656909052955
316,1.6935626137566272644853617213263
317,1.6941989008344373286236444277722
318,1.6948331845288902597973773679935
319,1.6954654774304283672102801691745
320,1.6960957920112759737263299795641
321,1.6967241406269170222069289365325
322,1.6973505355175476412533558132993
323,1.6979749888095071844034708485297
324,1.6985975125166867199329928014536
325,1.6992181185419167332530541565881
326,1.6998368186783322791413673945920
327,1.7004536246107184045732789147136
328,1.7010685479168330313587346250064
329,1.7016816000687122734551887241299
330,1.7022927924339546206331408704541
331,1.7029021362769854270831769899945
332,1.7035096427603027661996827826756
333,1.7041153229457050300909023265393
334,1.7047191877954984578332201677436
335,1.7053212481736889073963990201238
336,1.7059215148471539292863852065133
337,1.7065199984867980141458479375103
338,1.7071167096686920731600727557977
339,1.7077116588751932157696349335758
340,1.7083048564960509160257871474138
341,1.7088963128294952811619427323479
342,1.7094860380833099195257853644850
343,1.7100740423758890456574934844803
344,1.7106603357372788162168817185544
345,1.7112449281102047160906931103333
346,1.7118278293510824694704733991154
347,1.7124090492310160412572348754549
348,1.7129885974367795405136673639636
349,1.7135664835717865708852373082520
350,1.7141427171570445703294936169777
351,1.7147173076320962277540018826503
352,1.7152902643559476589272468754944
353,1.7158615966079826260389248445122
354,1.7164313135888642153854703519731
355,1.7169994244214243384636495273044
356,1.7175659381515392662618724675179
357,1.7181308637489944357933908550414
358,1.7186942101083377728802012729160
359,1.7192559860497172763337471991779
360,1.7198162003197118014601615852619
361,1.7203748615921467877671843434103
362,1.7209319784689014124826142043985
363,1.7214875594807017655072066789654
364,1.7220416130879050698057743937594
365,1.7225941476812731836156917150682
366,1.7231451715827342621536511061717
367,1.7236946930461354708426234167648
368,1.7242427202579835388027586589851
369,1.7247892613381777851630632817875
370,1.7253343243407313313851987026592
371,1.7258779172544833529216720210713
372,1.7264200480038013267044022540810
373,1.7269607244492732411939784743094
374,1.7274999543883940774861641051310
375,1.7280377455562372530620048792953
376,1.7285741056261224844142352095089
377,1.7291090422102718577790146266694
378,1.7296425628604572754019103819792
379,1.7301746750686411171585413084173
380,1.7307053862676068743137790465178
381,1.7312347038315826308745005289614
382,1.7317626350768545107255431157455
383,1.7322891872623747652304154513959
384,1.7328143675903594650176983126207
385,1.7333381832068794172290699989078
386,1.7338606412024449669011398788563
387,1.7343817486125804318387193714328
388,1.7349015124183921077979792859934
389,1.7354199395471305186850951469097
390,1.7359370368727441008963049604039
391,1.7364528112164246387596711569220
392,1.7369672693471480594752564436403
393,1.7374804179822080610594688918745
394,1.7379922637877411544104944555951
395,1.7385028133792459763867877614157
396,1.7390120733220965247872052128851
397,1.7395200501320489451598847834820
398,1.7400267502757418775954134491039
399,1.7405321801711889293168397897063
400,1.7410363461882675730444556154787
401,1.7415392546492005200775527497856
402,1.7420409118290303133316111973099
403,1.7425413239560899610929361832080
404,1.7430404972124675046041118047596
405,1.7435384377344619849483014353872
406,1.7440351516130369182919563528536
407,1.7445306448942683962298098125875
408,1.7450249235797853144518965218521
409,1.7455179936272045908348016353822
410,1.7460098609505638874625615112479
411,1.7465005314207460966213070465564
412,1.7469900108658991733849040956836
413,1.7474783050718523938793003945465
414,1.7479654197825254631001917282736
415,1.7484513607003347562753881691456
416,1.7489361334865931234357119826227
417,1.7494197437619061057116948157587
418,1.7499021971065617266246882519035
419,1.7503834990609181369156007329472
420,1.7508636551257840948669255347540
421,1.7513426707627962343354891277651
422,1.7518205513947924021328448362296
423,1.7522973024061789009286017727268
424,1.7527729291432952514378387236770
425,1.7532474369147728532883074960723
426,1.7537208309918911514453365207732
427,1.7541931166089287928618723563623
428,1.7546642989635097870790398240241
429,1.7551343832169485832046367823736
430,1.7556033744945869254145624243117
431,1.7560712778861299906696506209791
432,1.7565380984459789582059441130511
433,1.7570038411935553487336180737975
434,1.7574685111136282313248877875359
435,1.7579321131566321217072443936693
436,1.7583946522389834729943984640456
437,1.7588561332433939202698943605480
438,1.7593165610191792611295542482986
439,1.7597759403825648535331436167655
440,1.7602342761169885022239251735044
441,1.7606915729733979936153436836934
442,1.7611478356705468428369093342244
443,1.7616030688952879006832325932878
444,1.7620572773028594398842898344288
445,1.7625104655171730514059850617036
446,1.7629626381310943751782269609313
447,1.7634137997067238344709895253601
448,1.7638639547756705921696678625643
449,1.7643131078393275695079625477065
450,1.7647612633691396797504346760825
451,1.7652084258068727799743024017188
452,1.7656545995648761823528623134581
453,1.7660997890263444680675660085885
454,1.7665439985455749928548207525708
455,1.7669872324482247081165740444315
456,1.7674294950315615946527264127856
457,1.7678707905647154047822822488340
458,1.7683111232889241088090087627910
459,1.7687504974177785598204755875316
460,1.7691889171374650192238122294587
461,1.7696263866070033928090357023904
462,1.7700629099584843904546356253071
463,1.7704984912973042133133303903274
464,1.7709331347023949294510496116838
465,1.7713668442264545067447909711227
466,1.7717996238961736338063709299291
467,1.7722314777124586095193922995476
468,1.7726624096506553169043972611942
469,1.7730924236607667580840848966155
470,1.7735215236676716749641972531892
471,1.7739497135713385228151782319568
472,1.7743769972470390944464751387501
473,1.7748033785455571459550550602701
474,1.7752288612933995281247588618331
475,1.7756534492929987463156115130812
476,1.7760771463229194627328205783862
477,1.7764999561380592741599257975634
478,1.7769218824698484412320637019381
479,1.7773429290264474587234345406264
480,1.7777630994929428615218157070006
481,1.7781823975315398172584425803880
482,1.7786008267817550744738943063980
483,1.7790183908606056464144880550958
484,1.7794350933627960503100083924456
485,1.7798509378609055791108776527865
486,1.7802659279055701905762865261429
487,1.7806800670256658626005096161518
488,1.7810933587284880113669115461094
489,1.7815058064999302005364329528983
490,1.7819174138046600046229252736476
491,1.7823281840862941608640915123904
492,1.7827381207675715978057499815562
493,1.7831472272505243156345858786253
494,1.7835555069166472123292704270453
495,1.7839629631270650481567321714929
496,1.7843695992226997929640841107381
497,1.7847754185244340418189208828545
498,1.7851804243332744442844885550106
499,1.7855846199305126446808898034805
500,1.785988008577885863841339348025
501,1.786390593517732868406069967866
502,1.786792377973152782843245349940
503,1.787193365148158212327454659251
504,1.787593558227830520321382633953
505,1.787992960378470108331748682152
506,1.788391574747747427932680171393
507,1.788789404464852573089513663285
508,1.789186452640643092748298622149
509,1.789582722367788254588356634507
510,1.789978216720915813178297017234
511,1.790372938756754513623175318815
512,1.790766891514276230907055526761
513,1.791160078014836360682695160904
514,1.791552501262313137988282258908
515,1.791944164243246258212429397852
516,1.792335069926973010723046268780
517,1.792725221265762999982061337670
518,1.793114621194953239621630655580
519,1.793503272633080401518709027228
520,1.793891178482013076970829710761
521,1.794278341627080845306335614961
522,1.794664764937204426240815958774
523,1.795050451265023353250789976669
