Eigenstate,Potential Energy
1,0.500000000000089528493623460111979109
2,0.64623093765169927591624393179351945
3,0.73633760970669404658426920362003109
4,0.79966527781782114916374727115779413
5,0.8480465752918980804237999660832024
6,0.8870659968798829978105217674440983
7,0.9197208240182122343560849425946779
8,0.9477838430829262093740084480690223
9,0.9723835530797851816953672066413752
10,0.9942802081570385806113125371804521
11,1.0140093784555101036882915389688110
12,1.0319621592796763433162987089211645
13,1.0484326806952297294152405030360453
14,1.0636476403852234516117036445333662
15,1.0777854194642463262178405626367861
16,1.090988887348861636026609365513399
17,1.103374235219107516025883074424888
18,1.115037227024693855484189769983049
19,1.126057722588978219377463383969055
20,1.136503015242901140372318943362845
21,1.146430337906682497884007831494802
22,1.155888774248561083661476299130748
23,1.164920736621318845803206278562138
24,1.173563123462702744845874642862843
25,1.181848236091350918651433580165609
26,1.189804512514380261218831056941641
27,1.197457120389962126519240109225331
28,1.204828440386362064179723077654336
29,1.211938463383891675676896845319410
30,1.218805119316733112743506792416644
31,1.225444551305658241275110411138522
32,1.231871345654764910501097358382209
33,1.238098725975704963938616139297207
34,1.244138717952332363155222783445993
35,1.250002289919504730173827480246521
36,1.255699473396292736198092093410609
37,1.261239466909767216128641641489992
38,1.266630725815115145442692359765608
39,1.271881040319986966684159373947142
40,1.276997603525156969418945651155096
41,1.281987070976828153911321554637258
42,1.286855612970920407370039154001352
43,1.291608960643194476775957721821870
44,1.296252446710970206863594600372811
45,1.300791041594627942885076619037564
46,1.305229385533945715235283618014934
47,1.309571817220848210721852159103452
48,1.313822399392557171045697513470364
49,1.317984941764470315186374042465562
50,1.32206302162797316875429904606618
51,1.32606000239292122091687688811509
52,1.32997905031618461522091367320442
53,1.33382314962519746210005600549941
54,1.33759511621789272941025598733810
55,1.34129761009692817483328877821705
56,1.34493314667603421387065495184507
57,1.34850410707911565203763100314107
58,1.35201274753794202358163040647871
59,1.35546120798150733177873580755852
60,1.35885151989911547816387896694171
61,1.36218561354968344054910151583876
62,1.36546532458145325457379571235996
63,1.36869240011906196451289835386756
64,1.37186850436860622914915722056311
65,1.37499522378580342854460056698515
66,1.37807407184750377849409652406436
67,1.38110649346254566811942567399787
68,1.38409386905419027525507032925778
69,1.38703751834305884355113612561778
70,1.38993870385656773695600419366566
71,1.39279863418825768351067122571558
72,1.39561846702811537800800865639462
73,1.39839931198293260666700072318927
74,1.40114223320392920842004470118407
75,1.40384825183723508630869876878687
76,1.40651834831137692572859290641074
77,1.40915346447461287784633670710510
78,1.41175450559379266833145908482895
79,1.41432234222537377155441426168361
80,1.41685781196828616475756256585452
81,1.41936172110748883522948963273618
82,1.42183484615629976295982948171319
83,1.42427793530489236746220411223974
84,1.42669170978172711573688957130456
85,1.42907686513412771217125345634850
86,1.43143407243369542578686551458342
87,1.43376397941179763944226963923907
88,1.43606721152994332786492825064923
89,1.43834437298947466922435594958409
90,1.44059604768466077822924771258301
91,1.44282280010295809668076536571728
92,1.44502517617591367987511472677061
93,1.44720370408392536219289514076300
94,1.44935889501782985647468548012109
95,1.45149124390006868775331394874246
96,1.45360123006798003979696073551412
97,1.45568931792158025080747223730327
98,1.45775595753802582032385227116380
99,1.45980158525479331719149246883570
100,1.46182662422346823804194064651158
101,1.46383148493590456157331365222048
102,1.46581656572439116920054471847363
103,1.46778225323735338903177603415859
104,1.46972892289201065541663813609631
105,1.47165693930531820255557612950206
106,1.47356665670442994641539443627279
107,1.47545841931784162724094437353444
108,1.47733256174829404539847968053415
109,1.47918940932844762975197260008331
110,1.48102927846027715764876847468089
111,1.48285247693906958439230646950859
112,1.48465930426285850644623369320549
113,1.48645005192807324682019362199403
114,1.48822500371213179333115406779948
115,1.48998443594366637193163477171709
116,1.49172861776102210564797189451194
117,1.49345781135963749666498376614870
118,1.49517227222887443798779909924015
119,1.49687224937883174739542047565971
120,1.49855798555765037416547813087763
121,1.50022971745978016180550649653686
122,1.50188767592565913689326188914397
123,1.50353208613322410119657825753083
124,1.50516316778165362443464854252801
125,1.50678113526771496877944842244509
126,1.50838619785507127889852725004284
127,1.50997855983688479345394972166446
128,1.51155842069202924678228430506433
129,1.51312597523521255624247652640411
130,1.51468141376129250885112594739736
131,1.51622492218405275670662468529550
132,1.51775668216969145350276627290479
133,1.51927687126526308284871613287427
134,1.52078566302230275315295901170418
135,1.52228322711584412548669635943740
136,1.52376972945903845331179318670733
137,1.52524533231356890501448078825836
138,1.52671019439604072819578015411687
139,1.52816447098052570876379852710360
140,1.52960831399742393190476462547362
141,1.53104187212880129451992110942199
142,1.53246529090035314544799790964487
143,1.53387871277013577962396528707565
144,1.53528227721420033268761788035555
145,1.53667612080925943479659340470510
146,1.53806037731250911364730321939049
147,1.53943517773872023374141002553387
148,1.54080065043471480090216395869391
149,1.54215692115132893297038917690375
150,1.54350411311296613753314366467675
151,1.54484234708483681091373284089384
152,1.54617174143797425756768923596034
153,1.54749241221211617955221193321282
154,1.54880447317653553528488034321858
155,1.55010803588889900355742224599103
156,1.55140320975223091914035883857931
157,1.55269010207005372655446726734612
158,1.55396881809977677008217756157155
159,1.5552394611043970928243707955842
160,1.5565021324025785823120717592836
161,1.5577569314171679587639353509739
162,1.5590039557222070670606851198291
163,1.5602433010884963257058563919925
164,1.5614750615277639693375100359209
165,1.5626993293354896849783905156691
166,1.5639161951324331575833064984756
167,1.5651257479049147571728461948208
168,1.5663280750438910564366839365992
169,1.5675232623828702408671427370485
170,1.5687113942347071545081983170018
171,1.5698925534273181757507662104485
172,1.5710668213383537898017294152676
173,1.5722342779288642601274156515086
174,1.5733950017759942423550843645111
175,1.5745490701047403255352082618918
176,1.5756965588188012070870514822690
177,1.5768375425305537619346724531791
178,1.5779720945901841601991912949909
179,1.5791002871140004783627420963820
180,1.5802221910119577502725810988442
181,1.5813378760144181065410826681293
182,1.5824474106981736976965238667554
183,1.5835508625117554503279787565789
184,1.5846482978000518977298691430314
185,1.5857397818282598931386286625043
186,1.5868253788051881741503745733539
187,1.5879051519059375787857701281255
188,1.5889791632939733494857243069864
189,1.5900474741426132560943983743330
190,1.5911101446559471888729397192487
191,1.5921672340892074440611917327522
192,1.5932188007686060841549591672832
193,1.5942649021106576767109436459307
194,1.5953055946410007524252962099911
195,1.5963409340127359148075293319513
196,1.5973709750242942933119073568778
197,1.5983957716368507152091336357422
198,1.5994153769912957581390736357034
199,1.6004298434247795171593592820681
200,1.6014392224868410264505633921297
201,1.6024435649551343120562144850904
202,1.6034429208507644517682811524624
203,1.6044373394532442968399698679423
204,1.6054268693150834703865241380007
205,1.6064115582760196077858608277268
206,1.6073914534769048577751098029378
207,1.6083666013732535148682601182593
208,1.6093370477484650044988990653194
209,1.6103028377267279637151316453748
210,1.6112640157856169130251514086448
211,1.6122206257683888783493523172795
212,1.6131727108959901902005791211666
213,1.6141203137787778379796485598368
214,1.6150634764279703550694649946707
215,1.6160022402668274409515383095913
216,1.6169366461415722747949594170830
217,1.6178667343320604795526684263809
218,1.6187925445622047090073285695363
219,1.6197141160101581306949166651546
220,1.6206314873182693128262378030848
221,1.6215446966028064174881358267954
222,1.6224537814634678974818733902611
223,1.6233587789926732576218064992232
224,1.6242597257846489397842676618189
225,1.6251566579443118882407244137312
226,1.6260496110959543332078173444298
227,1.6269386203917384354520583171217
228,1.6278237205200026021399336774397
229,1.6287049457133866260681533893168
230,1.6295823297567803345016619664790
231,1.6304559059950975368732569526988
232,1.6313257073408856802486177630206
233,1.6321917662817661980443111496043
234,1.6330541148877216980474375488693
235,1.6339127848182231608197421510755
236,1.6347678073292068472369644373805
237,1.6356192132799045352724843197074
238,1.6364670331395288170185045669413
239,1.6373112969938188915060715872733
240,1.6381520345514490067217957868496
241,1.6389892751503038321505236316854
242,1.6398230477636236177741788933900
243,1.6406533810060231702791911254720
244,1.6414803031393863346882453178846
245,1.6423038420786403545058347374058
246,1.6431240253974126289237509564557
247,1.6439408803335712488506194070215
248,1.6447544337946568922976153974739
249,1.6455647123632010476140368953496
250,1.6463717423019409486711855360712
251,1.6471755495589291213993114278861
252,1.6479761597725403395704662629671
253,1.6487735982763810614229918524184
254,1.6495678901041010033772859801208
255,1.6503590599941107302652183750900
256,1.6511471323942053468322037750165
257,1.6519321314661006812491986557043
258,1.6527140810898784046857632127032
259,1.6534930048683468897872170866884
260,1.6542689261313181937527319603481
261,1.6550418679398014790641476411663
262,1.6558118530901175965896574634510
263,1.6565789041179336809419572041760
264,1.6573430433022232082407354478427
265,1.6581042926691500408044128017342
266,1.6588626739958786258004993830828
267,1.6596182088143135603836631396552
268,1.6603709184147685563173169882657
269,1.6611208238495690732749230974367
270,1.6618679459365843442419815254927
271,1.6626123052626980762519138296244
272,1.6633539221872118052963240974514
273,1.6640928168451883478007710960669
274,1.6648290091507325569596686637105
275,1.6655625188002132587861840419901
276,1.6662933652754246455052256056982
277,1.6670215678466946095796350688953
278,1.6677471455759317722930968430427
279,1.6684701173196227093338914975909
280,1.6691905017317714662250857456365
281,1.6699083172667892524038812015962
282,1.6706235821823318101979790487421
283,1.6713363145420876711249356443898
284,1.6720465322185144560291927084165
285,1.6727542528955300262967438453527
286,1.6734594940711545108725126642350
287,1.6741622730601082683507077650888
288,1.6748626069963621858937517679712
289,1.6755605128356449630234030026457
290,1.6762560073579081127905994268750
291,1.6769491071697465212438480560109
292,1.6776398287067774500817911424199
293,1.6783281882359818882441518260207
294,1.6790142018580032893344304445061
295,1.6796978855094057819991193888213
296,1.6803792549648994388020167127981
297,1.6810583258395225352978938610586
298,1.6817351135907901160360411769420
299,1.6824096335208056703278904939976
300,1.6830819007783376683610408446316
301,1.6837519303608613690738929309259
302,1.6844197371165679927001443115687
303,1.6850853357463384310882919350750
304,1.6857487408056850733017587844134
305,1.6864099667066631750023668434454
306,1.6870690277197510348134011879681
307,1.6877259379756961596115291461022
308,1.6883807114673348971725364579387
309,1.6890333620513816254322469274162
310,1.6896839034501878335053735493992
311,1.6903323492534746893612038591371
312,1.6909787129200366072842463858608
313,1.6916230077794172078654810889189
314,1.6922652470335594747934117277663
315,1.6929054437584294280840088671726
316,1.6935436109056146893878896709135
317,1.6941797613038954779755780092346
318,1.6948139076607933886419042503789
319,1.6954460625640950930875870497216
320,1.6960762384833509660323284592989
321,1.6967044477713525549898562548758
322,1.6973307026655850081315040083247
323,1.6979550152896579742740483542095
324,1.6985773976547139521268793564263
325,1.6991978616608158507758011255322
326,1.6998164190983119986255929574267
327,1.7004330816491814215532219556405
328,1.7010478608883565794616991448958
329,1.7016607682850285360892707370680
330,1.7022718152039309937356935191856
331,1.7028810129066046314776046669716
332,1.7034883725526428080928038611800
333,1.7040939052009190082264591323356
334,1.7046976218107942158007515881957
335,1.7052995332433085295781350536011
336,1.7058996502623530789075910220114
337,1.7064979835358251118771832702942
338,1.7070945436367673147028584992438
339,1.7076893410444874268379335168930
340,1.7082823861456642431209050255693
341,1.7088736892354357165166649267641
342,1.7094632605184716585780034239719
343,1.7100511101100306753940249052030
344,1.7106372480370013327098140961617
345,1.7112216842389293695287688889976
346,1.7118044285690284349698520586286
347,1.7123854907951779137156630120253
348,1.7129648806009046517524910470900
349,1.7135426075863521273043119378114
350,1.7141186812692346092782282875779
351,1.7146931110857783908029878446252
352,1.7152659063916497802027983099274
353,1.7158370764628691337622753373104
354,1.7164066304967123447367862208933
355,1.7169745776126001538697277070787
356,1.7175409268529734911836514758704
357,1.7181056871841580880677772611891
358,1.7186688674972176036479294698364
359,1.7192304766087910105622406696337
360,1.7197905232619231780466237947817
361,1.7203490161268803971845907567624
362,1.7209059638019573299065509113580
363,1.7214613748142699773377670969394
364,1.7220152576205396914747420308147
365,1.7225676206078664665432817692276
366,1.7231184720944903876947372096856
367,1.7236678203305441290375247732182
368,1.7242156734987932897197990578120
369,1.7247620397153692005963604083843
370,1.7253069270304899146425404914773
371,1.7258503434291722344122091200854
372,1.7263922968319337330069255571055
373,1.7269327950954847352603055459973
374,1.7274718460134145676052673868834
375,1.7280094573168627681824237820355
376,1.7285456366751867133938009770576
377,1.7290803916966174501006067373436
378,1.7296137299289069008656845086031
379,1.7301456588599682820303795915673
380,1.7306761859185064913792660339455
381,1.7312053184746413408168700520768
382,1.7317330638405207522149338674470
383,1.7322594292709285910797577420460
384,1.7327844219638821017288159072672
385,1.7333080490612225652189845307296
386,1.7338303176491998386668262905073
387,1.7343512347590465252839354818934
388,1.7348708073675457119119768233631
389,1.7353890423975929487288402401802
390,1.7359059467187496602164468261552
391,1.7364215271477883043153050542390
392,1.7369357904492328881260181798974
393,1.7374487433358923136275752726198
394,1.7379603924693851344917875820550
395,1.7384707444606585808488436141440
396,1.7389798058705015028533685637589
397,1.7394875832100508629406254222576
398,1.7399940829412917848887523882821
399,1.7404993114775497254591971362559
400,1.7410032751839790685539499081654
401,1.7415059803780441907900923156122
402,1.7420074333299937436884874031766
403,1.7425076402633309731972199774420
404,1.7430066073552779696195526987802
405,1.7435043407372313133718341948720
406,1.7440008464952152255860242908778
407,1.7444961306703293402567705385122
408,1.7449901992591886011070769493884
409,1.7454830582143581442291896659462
410,1.7459747134447856809585804250812
411,1.7464651708162256409788930943026
412,1.7469544361516586582263954026630
413,1.7474425152317074786329862213762
414,1.7479294137950457135326259346273
415,1.7484151375388037226729478428746
416,1.7488996921189680564444656495338
417,1.7493830831507773057933315342474
418,1.7498653162091115230329176681330
419,1.7503463968288794920451281874155
420,1.7508263305053988297725641267354
421,1.7513051226947728711638971779048
422,1.7517827788142636191539187609880
423,1.7522593042426585957972235031855
424,1.7527347043206352082583643233032
425,1.7532089843511190089970652127472
426,1.7536821495996394569664170165784
427,1.7541542052946806644314748229817
428,1.7546251566280271430731896604308
429,1.7550950087551084617424914304891
430,1.7555637667953356779466393959925
431,1.7560314358324370466982974870385
432,1.7564980209147901562171219697050
433,1.7569635270557458283564255600001
434,1.7574279592339548816668293970777
435,1.7578913223936855807457771522554
436,1.7583536214451396728367391965884
437,1.7588148612647651730220204105478
438,1.7592750466955648800455806840179
439,1.7597341825474013040434583165097
440,1.7601922735972990773672787273364
441,1.7606493245897420083250518047644
442,1.7611053402369683414569285453749
443,1.7615603252192638720119185339391
444,1.7620142841852475339668827669493
445,1.7624672217521587922158898773429
446,1.7629191425061378632486227487873
447,1.7633700510025059334550577445902
448,1.7638199517660385932257181580269
449,1.7642688492912403273202384790010
450,1.7647167480426122139122913127075
451,1.7651636524549203353718799684706
452,1.7656095669334577420995256324229
453,1.7660544958543057124494804696799
454,1.7664984435645906976566351905087
455,1.7669414143827405756034761901162
456,1.7673834125987355103910314239427
457,1.7678244424743581133841515288460
458,1.7682645082434393015910304366974
459,1.7687036141121023672646575471718
460,1.7691417642590049010314505580354
461,1.7695789628355764182338787349530
462,1.7700152139662549014989062461920
463,1.7704505217487208632639149034424
464,1.7708848902541270891270499129914
465,1.7713183235273280307172767104848
466,1.7717508255871059787406632909792
467,1.7721824004263932966785578219793
468,1.7726130520124957307368958998621
469,1.7730427842873092727021136521287
470,1.7734716011675381002020382816790
471,1.7738995065449078614359088572928
472,1.7743265042863786019421994902520
473,1.7747525982343526842629797592304
474,1.7751777922068852044542551946997
475,1.7756020899978858281524260644428
476,1.7760254953773245599567862734882
477,1.7764480120914317790785851799381
478,1.7768696438628972171981017447024
479,1.7772903943910667678666657859135
480,1.7777102673521375219859618439137
481,1.7781292663993495801906046287471
482,1.7785473951631782108711497968784
483,1.7789646572515217337833406391205
484,1.7793810562498879489471532695255
485,1.7797965957215805876585311408961
486,1.7802112792078803703539365816270
487,1.7806251102282275200545762085512
488,1.7810380922804003278217205429551
489,1.7814502288406929982659132364469
490,1.7818615233640906380966748133380
491,1.7822719792844435218544946073077
492,1.7826816000146392228682423528679
493,1.7830903889467725843013660154284
494,1.7834983494523146241783218435494
495,1.7839054848822785667364848122473
496,1.7843117985673862443711759309615
497,1.7847172938182305555391421985969
498,1.7851219739254379237155122808009
499,1.7855258421598282545642564033744
500,1.785928901772574521630758071966
501,1.786331155995357726400443687689
502,1.786732608040524687707400675700
503,1.787133261101240128416748482350
504,1.787533118351640903013686258451
505,1.787932182946985213354779072730
506,1.788330458023802542455865139070
507,1.788727946700042154126323779987
508,1.789124652075219798187433717917
509,1.789520577230560851939183803006
510,1.789915725229145950883978150696
511,1.790310099116052339550926877311
512,1.790703701918494842383311329457
513,1.791096536645965070190687139480
514,1.791488606290369538393204955237
515,1.791879913826167071120803884055
516,1.792270462210503701320038615242
517,1.792660254383346141423554615076
518,1.793049293267615609784233524552
519,1.793437581769318794634311756498
520,1.793825122777678812389258971534
521,1.794211919165262955341439123495
522,1.794597973788111504761223731361
523,1.794983289485864046379439426233
