Eigenstate,Potential Energy
1,0.500000000263950982897316736011012661
2,0.64623093937406497329427474144025234
3,0.73633761476607559753089769335709385
4,0.79966528835613866635147407872547270
5,0.8480465935468696218041247608023055
6,0.8870660251286740967259798407472123
7,0.9197208645567170442467035553345309
8,0.9477838982171672524425665007414084
9,0.9723836251219513344534104245205748
10,0.9942802994235083981081944402859402
11,1.0140094912658098135817684594062344
12,1.0319622959559141971412230264097117
13,1.0484328435617897490569330530165256
14,1.0636478317686085237289576941973072
15,1.0777856416930114621085433278995787
16,1.090989142753603936650825200388899
17,1.103374526132493091625490580435417
18,1.115037555781509597346372892720756
19,1.126058091526200761371043342152767
20,1.136503426699778017623261437679994
21,1.146430794224822165926940639267412
22,1.155889277772029517442774755977485
23,1.164921289696741128319341738263251
24,1.173563728439368516799532896051825
25,1.181848895321322875455853293757968
26,1.189805228352605102573053832112706
27,1.197457895194383518497534105295053
28,1.204829276518035284844998005106282
29,1.211939363207099696101071524592083
30,1.218806085199103924985675267049040
31,1.225445585618283289432277266271925
32,1.231872450772318514609621527831279
33,1.238099904276564652206058959280577
34,1.244139971818700047821103088617529
35,1.250003621737528677725814339706867
36,1.255700885556190294786519109930700
37,1.261240961805948272620255611110661
38,1.266632305846306292218584269725481
39,1.271882707889356364455407012413341
40,1.276999361040439897336228047347361
41,1.281988920850453242331847972161379
42,1.286857557620136552009177314227527
43,1.291611002490198435759791475174560
44,1.296254588183034884526987251556495
45,1.300793285124231366118560918122049
46,1.305231733558900709843829936626712
47,1.309574272184432786674863917275320
48,1.313824963743645626716603478647941
49,1.317987617957665071736329485462255
50,1.32206581212373734673743165502943
51,1.32606290965771197199823859687764
52,1.32998207682258722262028794121149
53,1.33382629785206022402187243888098
54,1.33759838865046264030473680127368
55,1.34130100922698741986659409362671
56,1.34493667500203749247131705891847
57,1.34850776710632834683987553766931
58,1.35201654177857923151097916997157
59,1.35546513895487377442315402226290
60,1.35885559013174630895307131892695
61,1.36218982557548596662615156458321
62,1.36546968094184959159173711587358
63,1.36869690336313264292544034341695
64,1.37187315705323477089262337709355
65,1.37500002847582191333031703680933
66,1.37807903111583941924528157232346
67,1.38111160989036841539940319341274
68,1.38409914523106147084230820051249
69,1.38704295686708094362637914024145
70,1.38994430733453512567144735413982
71,1.39280440523580859802197693158872
72,1.39562440826988496635613131634285
73,1.39840542605270714020957493726960
74,1.40114852274480147082356400488023
75,1.40385471950176096142963716270152
76,1.40652499676173320702965607297136
77,1.40916029638275632231809600581207
78,1.41176152364162031821645115983500
79,1.41432954910488456750303717590222
80,1.41686521038174387438086666187330
81,1.41936931376758632135759237653859
82,1.42184263578632461626120842782161
83,1.42428592463889392843307448682975
84,1.42669990156468491142984587460719
85,1.42908526212212133339828979833515
86,1.43144267739407587090447345816724
87,1.43377279512336015120697142026587
88,1.43607624078310175023358861975149
89,1.43835361858643735136867235125874
90,1.44060551243960805343513705000418
91,1.44283248684222136421439853505397
92,1.44503508773815611831384465387483
93,1.44721384332032430314691166035192
94,1.44936926479226084805946658516342
95,1.45150184708929127761669802833800
96,1.45361206956182530795695413203626
97,1.45570039662314012301996787044242
98,1.45776727836384419316880752672344
99,1.45981315113505902654932156664359
100,1.46183843810220990312083813536762
101,1.46384354977118733715100109718002
102,1.46582888448851543925428979193586
103,1.46779482891705543545274564973283
104,1.46974175848866533603908156921399
105,1.47167003783514367327372906568313
106,1.47358002119869446271770842714427
107,1.47547205282307246105837240009031
108,1.47734646732648855374266883093873
109,1.47920359005728651221093681430560
110,1.48104373743333994041110179717566
111,1.48286721726605236908830929695636
112,1.48467432906979402272420417944081
113,1.48646536435755324821859380798736
114,1.48824060692353183666530467716325
115,1.49000033311337302108376231729167
116,1.49174481208266260133532543662241
117,1.49347430604431193445973787114367
118,1.49518907050539049757864914364427
119,1.49688935449394201680983203540897
120,1.49857540077629231341799129387538
121,1.50024744606531875119995867371637
122,1.50190572122013225598478328569956
123,1.50355045143759068521433247561005
124,1.50518185643604464577880186848653
125,1.50680015063168729203672775359925
126,1.50840554330786443866805062573839
127,1.50999823877768074514183682184102
128,1.51157843654021514140947590106928
129,1.51314633143064659121449268312569
130,1.51470211376457290756318413715953
131,1.51624596947678993080215544723888
132,1.51777808025478340257145361650852
133,1.51929862366717408733275748997263
134,1.52080777328734541724283962555377
135,1.52230569881246482781722595782371
136,1.52379256617810626432231231726359
137,1.52526853766866803091607124231376
138,1.52673377202376654258794666190125
139,1.52818842454078443406912193746792
140,1.52963264717373603394264279246078
141,1.53106658862860865471384505320024
142,1.53249039445533007636644066900099
143,1.53390420713650395078443177021389
144,1.53530816617304767481088566213069
145,1.53670240816686309198360259308083
146,1.53808706690066251426842859072716
147,1.53946227341506435217149062239040
148,1.54082815608307368360983689854256
149,1.54218484068204956388006128770049
150,1.54353245046326271901299287795190
151,1.54487110621913953822026396042313
152,1.54620092634828266607891937406127
153,1.54752202691835714566529339931936
154,1.54883452172692601342850097851500
155,1.55013852236031358338259843487917
156,1.55143413825057428860453978263014
157,1.55272147673063812829971809140699
158,1.55400064308770454023878514629433
159,1.5552717406149483731372182485133
160,1.5565348706616042982989221785037
161,1.5577901326814881584652504214749
162,1.5590376242800147168379466492376
163,1.5602774412597666614835989966912
164,1.5615096776646695036742252121174
165,1.5627344258228209723832100783793
166,1.5639517763880254225774311281839
167,1.5651618183800804917268751449971
168,1.5663646392238586956000995405684
169,1.5675603247872290276377811462294
170,1.5687489594178583072832702288873
171,1.5699306259789324740414121105219
172,1.5711054058838356962981927447328
173,1.5722733791298226996586692106030
174,1.5734346243307201608084183485745
175,1.5745892187486911543818258989542
176,1.5757372383250923618043423427412
177,1.5768787577104573053251443801646
178,1.5780138502936347643820268070149
179,1.5791425882301088220599912615312
180,1.5802650424695314909262999172591
181,1.5813812827824905697865586837460
182,1.5824913777865404297782655850798
183,1.5835953949715187821856465376037
184,1.5846934007241736726975483693759
185,1.5857854603521225135031856661523
186,1.5868716381071641251914054429310
187,1.5879519972079675923929342887458
188,1.5890265998621533730027786630772
189,1.5900955072877903956862969013411
190,1.5911587797343248004525386079898
191,1.5922164765029595486479822312279
192,1.5932686559665012884736186947469
193,1.5943153755886927838723972956992
194,1.5953566919430442516749978432792
195,1.5963926607311815435735182065551
196,1.5974233368007248691439103853713
197,1.5984487741627124396744448276652
198,1.5994690260085831993293032713013
199,1.6004841447267314821766191918954
200,1.6014941819186475400746688170203
201,1.6024991884146549227576379762809
202,1.6034992142892580913330515421095
203,1.6044943088761109250970869964595
204,1.6054845207826177419065595149187
205,1.6064698979041768029308937035255
206,1.6074504874380793261482973984511
207,1.6084263358970698850276550167267
208,1.6093974891225824197762346823193
209,1.6103639922976576101193961311287
210,1.6113258899595531115162168725524
211,1.6122832260120540202457414370470
212,1.6132360437374938011437240371945
213,1.6141843858084900627182129091133
214,1.6151282942994101623562692435093
215,1.6160678106975658550736319475780
216,1.6170029759141509476841722599992
217,1.6179338302949259250592503346927
218,1.6188604136306585287694285772764
219,1.6197827651673235691092466354921
220,1.6207009236160744869246254508555
221,1.6216149271629845760591209753306
222,1.6225248134785750725575925278026
223,1.6234306197271236804789850582804
224,1.6243323825757686028971743468277
225,1.6252301382034106441837225718696
226,1.6261239223094169313357799697648
227,1.6270137701221349073072459590287
228,1.6278997164072184169471556577014
229,1.6287817954757730484005870529472
230,1.6296600411923254272319139162312
231,1.6305344869826182638787696923450
232,1.6314051658412415750437620221534
233,1.6322721103390950765423872376980
234,1.6331353526306979060671510758010
235,1.6339949244613388597146660022783
236,1.6348508571740768541836158389446
237,1.6357031817165952483069138501934
238,1.6365519286479117688723405702285
239,1.6373971281449494906767998851296
240,1.6382388100089710390416310031082
241,1.6390770036718803113985256143798
242,1.6399117382023945896167286550727
243,1.6407430423120910900718302988895
244,1.6415709443613296564010690476853
245,1.6423954723650559852978330451085
246,1.6432166539984879216929974303093
247,1.6440345166026862234393828629221
248,1.6448490871900173949704616098474
249,1.6456603924495035779563126438040
250,1.6464684587520699032199678467140
251,1.6472733121556872241041089030410
252,1.6480749784104130506504632683453
253,1.6488734829633357783416245275131
254,1.6496688509634218905201979997563
255,1.6504611072662700375119725729450
256,1.6512502764387721016051816995393
257,1.6520363827636876637859856522226
258,1.6528194502441283422795231222351
259,1.6535995026079588326129459927164
260,1.6543765633121150626322733662562
261,1.6551506555468398041960709957579
262,1.6559218022398404959080531906060
263,1.6566900260603681573713872680199
264,1.6574553494232228767876224574020
265,1.6582177944926844291361013359601
266,1.6589773831863702258058313838002
267,1.6597341371790238431979047969703
268,1.6604880779062341994862664462571
269,1.6612392265680896861704775771796
270,1.6619876041327630165707243618104
271,1.6627332313400361145789368880317
272,1.6634761287047590639869487622754
273,1.6642163165202506037051981793600
274,1.6649538148616374216157430605884
275,1.6656886435891361679237946777800
276,1.6664208223512765132992068647348
277,1.6671503705880727844406696214372
278,1.6678773075341359821051701241732
279,1.6686016522217377370305016658819
280,1.6693234234838183514641097393535
281,1.6700426399569468719877540403927
282,1.6707593200842307488487567377254
283,1.6714734821181783553417310607646
284,1.6721851441235115871459298152068
285,1.6728943239799354145861501997574
286,1.6736010393848604807228418359389
287,1.6743053078560838752763706677365
288,1.6750071467344245595357778272748
289,1.6757065731863181664730703073443
290,1.6764036042063719876217220195211
291,1.6770982566198780697391428042844
292,1.6777905470852873913570330271478
293,1.6784804920966491135093354782082
294,1.6791681079860100334749794919375
295,1.6798534109257764241971782525526
296,1.6805364169310459441989985436707
297,1.6812171418618996528747437989705
298,1.6818956014256635551548051955329
299,1.6825718111791365899167685956131
300,1.6832457865307869287001889953123
301,1.6839175427429171167944758137898
302,1.6845870949338002751345683897633
303,1.6852544580797846667195457272438
304,1.6859196470173703410101468630017
305,1.6865826764452594263460622747055
306,1.6872435609263794809363406055936
307,1.6879023148898772378577408553348
308,1.6885589526330903823649281427198
309,1.6892134883234936173653872245386
310,1.6898659360006195258050507344341
311,1.6905163095779580058337710098489
312,1.6911646228448319805725047593237
313,1.6918108894682509719926162987470
314,1.6924551229947445484298308225321
315,1.6930973368521751795458722290476
316,1.6937375443515320978455661905791
317,1.6943757586887039386612114460292
318,1.6950119929462357534153957286202
319,1.6956462600950677921112015032747
320,1.6962785729962563220435112751527
321,1.6969089444026806793028217421902
322,1.6975373869607329577251526867555
323,1.6981639132119941526562180956348
324,1.6987885355948960539268822827024
325,1.6994112664463709817982606321322
326,1.7000321180034879502585381085634
327,1.7006511024050784417022192229896
328,1.7012682316933493624866478138205
329,1.7018835178154885523987731514032
330,1.7024969726252596967681777769881
331,1.7031086078845885167223088375624
332,1.7037184352651417567228022782315
333,1.7043264663498998278903467434893
334,1.7049327126347217944676552617976
335,1.7055371855299075462248772178055
336,1.7061398963617537687505952642485
337,1.7067408563741071651763222411851
338,1.7073400767299165984640451151908
339,1.7079375685127808596578739919199
340,1.7085333427284988267042228244577
341,1.7091274103066184349146990910150
342,1.7097197821019876999157332608393
343,1.7103104688963082129003018935078
344,1.7108994813996919244614742008060
345,1.7114868302522239019048060323339
346,1.7120725260255294458875947464074
347,1.7126565792243500910540396286644
348,1.7132390002881263128590443833138
349,1.7138197995925915502127604356869
350,1.7143989874513762085987257962752
351,1.7149765741176249146831529567139
352,1.7155525697856279531210113294023
353,1.7161269845924674872605315576737
354,1.7166998286196813688481080962223
355,1.7172711118949463706175018639422
356,1.7178408443937806030954670798830
357,1.7184090360412699945080046107170
358,1.7189756967138198116312484293362
359,1.7195408362409288007318089609278
360,1.7201044644069968272761987885871
361,1.7206665909531598138601455941847
362,1.7212272255791606339991220827149
363,1.7217863779452528630528755961892
364,1.7223440576741448543676155306434
365,1.7229002743529849690441731847065
366,1.7234550375353895871037444703899
367,1.7240083567435197113441880095442
368,1.7245602414702060528591622609542
369,1.7251107011811305248035109777633
370,1.7256597453170633592286530705127
371,1.7262073832961624244678391924258
372,1.7267536245163376624459668858526
373,1.7272984783576848315679349720530
374,1.7278419541849973577240673000661
375,1.7283840613503517744629993079764
376,1.7289248091957833157146701575237
377,1.7294642070560488991939876952713
378,1.7300022642614864845623601543147
379,1.7305389901409788590751022519616
380,1.7310743940250252473384770490575
381,1.7316084852489307210319222727595
382,1.7321412731561181241114354864920
383,1.7326727671015753222596499624313
384,1.7332029764554414544959845918656
385,1.7337319106067451495788284262756
386,1.7342595789673053862875984151504
387,1.7347859909758015025929011108756
388,1.7353111561020278431587675499185
389,1.7358350838513461370291352647970
390,1.7363577837693461501964170894122
391,1.7368792654467293051066921989670
392,1.7373995385244343591942407287767
393,1.7379186126990193059493994210316
394,1.7384364977283160834190449774175
395,1.7389532034373803830263852811752
396,1.7394687397247572080557436360006
397,1.7399831165690845164100580278747
398,1.7404963440360595254537249408206
399,1.7410084322857928545761064141357
400,1.7415193915805836495724715884926
401,1.7420292322931430308986697047656
402,1.7425379649153005912489159681148
403,1.7430456000672336948726651479225
404,1.7435521485072576485160563985681
405,1.7440576211422179579519433822205
406,1.7445620290385384633136668308332
407,1.7450653834339744956352410152343
408,1.7455676957501253779442957888126
409,1.7460689776057712533603899461367
410,1.7465692408311047443141523205206
411,1.7470684974829261966836210347776
412,1.7475667598608878031306984693232
413,1.7480640405248774167292555750796
414,1.7485603523136371345221489011728
415,1.7490557083647295333126811762527
416,1.7495501221359676784479140119033
417,1.7500436074284438393099606465437
418,1.7505361784113000282269342387151
419,1.7510278496484061356061277337358
420,1.7515186361271195803050795985786
421,1.7520085532893289722669205750785
422,1.7524976170650016922773082925708
423,1.7529858439084787495329224841558
424,1.7534732508377941899973892471943
425,1.7539598554773209376931565023892
426,1.7544456761040882870833452878016
427,1.7549307316981511638764293758316
428,1.7554150419974404944621527279261
429,1.7558986275575811806088310619705
430,1.7563815098172139956275589092153
431,1.7568637111694420792066570401874
432,1.7573452550400923861942915392525
433,1.7578261659735727129589842816967
434,1.7583064697272268775322321664999
435,1.7587861933751901224210882178138
436,1.7592653654229091740841658312983
437,1.7597440159336469983617076700944
438,1.7602221766684857729109052780499
439,1.7606998812415684188125261632599
440,1.7611771652925832465262486800079
441,1.7616540666788024753154549615568
442,1.7621306256893574724615666001270
443,1.7626068852848622670479904805899
444,1.7630828913660054349653644864555
445,1.7635586930753569979284583762030
446,1.7640343431373502825525978446681
447,1.7645098982422930559532501670630
448,1.7649854194813068008287545859341
449,1.7654609728403887948381546111672
450,1.7659366297633335632585754019210
451,1.7664124677951680690375762137574
452,1.7668885713200753314307014155609
453,1.7673650324106746328556614196959
454,1.7678419518090899013262813317766
455,1.7683194400647015963962227277582
456,1.7687976188590612115255398477739
457,1.7692766225555183941083413717288
458,1.7697566000200790276232826032034
459,1.7702377167715108859656048566326
460,1.7707201575335339472601128668951
461,1.7712041292812039449230171168350
462,1.7716898648988760508001864585162
463,1.7721776276005733521170658617617
464,1.7726677163082686867494011807096
465,1.7731604722439247939317132331423
466,1.7736562870735039702346301583587
467,1.7741556130549969032199966022418
468,1.7746589758019135536685939193364
469,1.7751669905000215558433374548947
470,1.7756803827416005997288449511230
471,1.7762000156203561719580049397206
472,1.7767269254457859144189382230876
473,1.7772623695273724349998951695952
474,1.7778078911823469605558107808675
475,1.7783654098471227228069033713910
476,1.7789373486627189247527983778815
477,1.7795268195427037161939543508361
478,1.7801378992147705483798717062039
479,1.7807760545633990687771992912389
480,1.7814488236921269627950881001520
481,1.7821669579175647903630456686692
482,1.7829464478800373123111651020956
483,1.7838123821953256831390916512707
484,1.7848070027897014147046357981244
485,1.7860087468337002375669001174102
486,1.7875861024878621882719464153615
487,1.7900006419323672876224750839433
488,1.7953623439993633194409228190414
