Eigenstate,Potential Energy
1,0.500000000031830721428498219126208220
2,0.64623093785888891307509648694906057
3,0.73633761031529538808753310772204317
4,0.79966527908546397228795997379878360
5,0.8480465774877054129394029287774061
6,0.8870660002776818497985432160256539
7,0.9197208288940306196645696484788477
8,0.9477838497139479600118375141045447
9,0.9723835617438627046190077418601149
10,0.9942802191324444263326110393597624
11,1.0140093920208009559081237367921042
12,1.0319621757136142959713638090858907
13,1.0484327002767347505908448172609908
14,1.0636476633933437949396701297120644
15,1.0777854461781397690568211782748922
16,1.090988918047783517909433873918327
17,1.103374270182403200021594498965591
18,1.115037266531794155115820110812158
19,1.126057766919396867828742338991825
20,1.136503064676233699850620753263475
21,1.146430392722606306193661766823628
22,1.155888834726835962062136829846007
23,1.164920803041788375266783566786425
24,1.173563196105295973340869347991417
25,1.181848315236084399958289883438272
26,1.189804598441360352100140485480715
27,1.197457213379387487669608648930088
28,1.204828540718526323729838282462860
29,1.211938571339186223743957811826347
30,1.218805235175650002686827253821847
31,1.225444675348793178665271399195600
32,1.231871478162820314849112702341125
33,1.238098867229493091311617112865389
34,1.244138868232778480177323807461495
35,1.250002449507650331754414811667071
36,1.255699642573298800774714468735323
37,1.261239645956917493353283838697955
38,1.266630915013819472148815584059846
39,1.271881239951784607700200755934668
40,1.276997813871719980381659714285967
41,1.281987292319964763709447904996937
42,1.286855845592578418238513656752022
43,1.291609204825464680380980865014944
44,1.296252702736089814983139887050898
45,1.300791309744984031508774195325300
46,1.305229666092078681090546684963548
47,1.309572110469455239386304027469624
48,1.313822705614495715934932334460924
49,1.317985261242761586814985689225940
50,1.32206335464580563376052177074017
51,1.32606034923365411041991378117602
52,1.32997941126335144214727130770770
53,1.33382352496250954717288658874552
54,1.33759550622924273554540588516171
55,1.34129801506639364972861337203737
56,1.34493356688788114061232798811724
57,1.34850454281780200757940822094582
58,1.35201319908812134498128919502833
59,1.35546167562803229010037114112967
60,1.35885200392704145997638488552142
61,1.36218611424427213697008936573948
62,1.36546584222817625782495735348748
63,1.36869293500360437196754288837546
64,1.37186905677687025486573485832812
65,1.37499579400391202229171302923282
66,1.37807466016180425228280897184657
67,1.38110710015961333026794358070576
68,1.38409449442083207201912189205621
69,1.38703816266631700836093611790404
70,1.38993936742372344730714239690510
71,1.39279931728683472556259316670459
72,1.39561916994588381894892646545245
73,1.39840003500791247490925106332415
74,1.40114297662439418169425554236367
75,1.40384901594171618772934768382686
76,1.40651913338866622790715735784411
77,1.40915427081376721513176172601572
78,1.41175533348413735726079847189100
79,1.41432319195650633959942297291904
80,1.41685868383008008745561600129693
81,1.41936261539009728178981272725723
82,1.42183576315015935043824500855071
83,1.42427887530072692359977098492862
84,1.42669267307055145055982832913577
85,1.42907785200725139845144062036697
86,1.43143508318272658846388106400975
87,1.43376501432864675410975727601654
88,1.43606827090682702842552061103978
89,1.43834545711891956481891400454291
90,1.44059715685950727954759434449441
91,1.44282393461636425176246668647834
92,1.44502633632135901951010395729549
93,1.44720489015521475503299732719200
94,1.44936010730909737396829296976747
95,1.45149248270578147901662883152298
96,1.45360249568294221653621752803340
97,1.45569061064093678240781793673264
98,1.45775727765726643922137210400314
99,1.45980293306975643464611100658122
100,1.46182800003034487042971131935160
101,1.46383288903124226731772907811669
102,1.46581799840509799646336925731272
103,1.46778371480070183428476390533889
104,1.46973041363564163301664312861646
105,1.47165845952724502544617927186853
106,1.47356820670304231807924786294311
107,1.47545999939190964502784764971747
108,1.47733417219697221535503435439934
109,1.47919105045127889307963030712236
110,1.48103095055719692891781032153389
111,1.48285418031040980164024333157239
112,1.48466103920935169328992938812773
113,1.48645181875085658671181193191572
114,1.48822680271275121608894460086249
115,1.48998626742408065267737429937428
116,1.49173048202360697628371699905332
117,1.49345970870718977002260425356991
118,1.49517420296461614478568578525613
119,1.49687421380641428613748378738248
120,1.49855998398115867411848923746396
121,1.50023175018373685919165175225331
122,1.50188974325502876443560674494358
123,1.50353418837341729115602305548291
124,1.50516530523853132527776805091671
125,1.50678330824759267561753516206957
126,1.50838840666472327783893636157290
127,1.50998080478354842000578796763096
128,1.51156070208340915845935798395826
129,1.51312829337948501950722228828250
130,1.51468376896710970054419614778942
131,1.51622731476054708010764014992580
132,1.51775911242647986916884003341691
133,1.51927933951245145437784964974434
134,1.52078816957049020802079372797953
135,1.52228577227612743110577661187604
136,1.52377231354301640846331885708430
137,1.52524795563334674680377142916290
138,1.52671285726423455468335604924339
139,1.52816717371026691742506206898706
140,1.52961105690236367407224181065016
141,1.53104465552311494596281739198138
142,1.53246811509874479324506353349618
143,1.53388157808784272548640217859432
144,1.53528518396699761289003097445068
145,1.53667906931346435687465336801942
146,1.53806336788498581002212240852114
147,1.53943821069688423243151573387270
148,1.54080372609653761348489381807395
149,1.54216003983534265995584090496824
150,1.54350727513826809131451292820902
151,1.54484555277109415645934049526772
152,1.54617499110542867102073220275937
153,1.54749570618158852490559569428605
154,1.54880781176943055929935918391925
155,1.55011141942721004909260317658460
156,1.55140663855854465706922713409965
157,1.55269357646755490643298703359966
158,1.55397233841225298974696447938682
159,1.5552430276562435870923656321878
160,1.5565057455188030309574610128001
161,1.5577605914233953139486127718244
162,1.5590076629446844003959343524028
163,1.5602470558540976951238085229779
164,1.5614788641639953059524464053301
165,1.5627031801704937001192320327636
166,1.5639200944949942701794547901771
167,1.5651296961244640416771668384432
168,1.5663320724505112114707240271583
169,1.5675273093073005787745218675667
170,1.5687154910083486120040154624916
171,1.5698967003822383458555930302538
172,1.5710710188072919752505077858129
173,1.5722385262452365484445880643360
174,1.5733993012738986027888570385070
175,1.5745534211189617280451258049475
176,1.5757009616848167635804291292967
177,1.5768419975845378899488219054527
178,1.5779766021690137692277648181033
179,1.5791048475552601790259631435762
180,1.5802268046539450865325966051304
181,1.5813425431961488111650131789233
182,1.5824521317593869711713026699977
183,1.5835556377929192634326001624858
184,1.5846531276423683179720474707422
185,1.5857446665736704352646254297781
186,1.5868303187963791749377784931850
187,1.5879101474863455963311244603108
188,1.5889842148077905872000610771815
189,1.5900525819347930116214803967602
190,1.5911153090722093281465610135963
191,1.5921724554760439007194360411889
192,1.5932240794732863845310929743111
193,1.5942702384812344906219908530114
194,1.5953109890263154699813429874543
195,1.5963463867624242494661216249411
196,1.5973764864887919114038702990725
197,1.5984013421673988921637081706161
198,1.5994210069399470616379577077727
199,1.6004355331444035174511967378924
200,1.6014449723311300340589395044122
201,1.6024493752786091431159729414745
202,1.6034487920087802212271946085573
203,1.6044432718019962397640112611150
204,1.6054328632116127916093697100588
205,1.6064176140782193601445689330111
206,1.6073975715435258491763685423122
207,1.6083727820639102444310194030294
208,1.6093432914236416280213885265185
209,1.6103091447477842887161167266237
210,1.6112703865147944236112104726540
211,1.6122270605688167901619233336411
212,1.6131792101316915356984924594153
213,1.6141268778146755823151252623630
214,1.6150701056298935428171479795267
215,1.6160089350015173739526296278380
216,1.6169434067766887213803367193344
217,1.6178735612361879154110596491872
218,1.6187994381048585899666234493286
219,1.6197210765617911976871374717556
220,1.6206385152502779293084620623287
221,1.6215517922875369395941667519793
222,1.6224609452742230771815350549751
223,1.6233660113037186791669733404339
224,1.6242670269712194897229660115728
225,1.6251640283826182592831473508009
226,1.6260570511631895622300829806461
227,1.6269461304660844759260553032075
228,1.6278313009806369312799642408025
229,1.6287125969404888869874083766860
230,1.6295900521315390136739932955949
231,1.6304636998997166771980866858265
232,1.6313335731585916300194422508320
233,1.6321997043968143961234906616868
234,1.6330621256854034955528366176426
235,1.6339208686848726796308537298925
236,1.6347759646522078756310169499852
237,1.6356274444476974610037590815960
238,1.6364753385416175981562755233012
239,1.6373196770207780653495182958190
240,1.6381604895949307371130282520029
241,1.6389978056030449955092702345549
242,1.6398316540194529281803478094311
243,1.6406620634598683439329344546161
244,1.6414890621872812940790165309587
245,1.6423126781177324726253868215281
246,1.6431329388259700138608791925400
247,1.6439498715509900691079144439757
248,1.6447635032014687431736690389200
249,1.6455738603610803589975183714573
250,1.6463809692937124345961075978902
251,1.6471848559485752717138436349045
252,1.6479855459652089540746060305689
253,1.6487830646783928268334599700473
254,1.6495774371229571134814139439389
255,1.6503686880385005496281548882836
256,1.6511568418740141184257420143917
257,1.6519419227924172783729013594138
258,1.6527239546750031275548036877836
259,1.6535029611257993071644672991767
260,1.6542789654758450300059259503473
261,1.6550519907873845470325037149464
262,1.6558220598579817766473558530654
263,1.6565891952245549466495109342686
264,1.6573534191673366989788260641579
265,1.6581147537137581817880458617786
266,1.6588732206422592958749748947875
267,1.6596288414860283080072993941727
268,1.6603816375366708641398546471560
269,1.6611316298478126717236274840839
270,1.6618788392386315745315411405280
271,1.6626232862973283032377958295567
272,1.6633649913845298805951309595555
273,1.6641039746366331236047748801939
274,1.6648402559690854509768240364111
275,1.6655738550796068707402331927594
276,1.6663047914513514256353092144724
277,1.6670330843560155795820641445195
278,1.6677587528568852991522745355918
279,1.6684818158118333324933693070061
280,1.6692022918762587785538817429851
281,1.6699201995059768354173687293171
282,1.6706355569600562239967515826447
283,1.6713483823036074995193259709893
284,1.6720586934105194073213646745959
285,1.6727665079661500901970780683575
286,1.6734718434699691720304506813163
287,1.6741747172381557769856366860167
288,1.6748751464061488860154544842373
289,1.6755731479311546787361066601778
290,1.6762687385946115931795755377198
291,1.6769619350046109443479077390403
292,1.6776527535982759864597527447597
293,1.6783412106441033246478664522959
294,1.6790273222442617130066869435668
295,1.6797111043368503261179847178616
296,1.6803925726981240895995765560462
297,1.6810717429446760013855755602386
298,1.6817486305355857604738696393754
299,1.6824232507745315059798429120483
300,1.6830956188118664170843753709777
301,1.6837657496466605852949602052616
302,1.6844336581287102519346665116677
303,1.6850993589605115839693420035404
304,1.6857628666992025656839736754268
305,1.6864241957584744347166361932541
306,1.6870833604104519256511875697049
307,1.6877403747875395031242955437969
308,1.6883952528842410628765108848981
309,1.6890480085589491900152474515424
310,1.6896986555357043096373929698015
311,1.6903472074059273247166278832933
312,1.6909936776301232543899100443780
313,1.6916380795395572653936155044075
314,1.6922804263379049009254752364522
315,1.6929207311028758265769223595201
316,1.6935590067878124689808446528620
317,1.6941952662232610857810607805782
318,1.6948295221185206181716876117813
319,1.6954617870631664675701552312572
320,1.6960920735285491976850456926264
321,1.6967203938692720809151445714813
322,1.6973467603246436035137510230063
323,1.6979711850201084435596538293853
324,1.6985936799686558988772868439492
325,1.6992142570722075268897569727560
326,1.6998329281229822336340600496649
327,1.7004497048048416326969308785980
328,1.7010645986946128632688705636859
329,1.7016776212633938421778649697752
330,1.7022887838778373815716690324599
331,1.7028980978014156108283608319248
332,1.7035055741956657639218271727287
333,1.7041112241214177107831198278072
334,1.7047150585400014166664926885512
335,1.7053170883144386444380362101567
336,1.7059173242106149578239963209329
337,1.7065157768984348978500599312309
338,1.7071124569529613913092461153005
339,1.7077073748555354557506797731432
340,1.7083005409948822923154958760308
341,1.7088919656681994799829713598828
342,1.7094816590822297683619542913462
343,1.7100696313543181068025535974597
344,1.7106558925134529035210064908745
345,1.7112404525012933340579921128129
346,1.7118233211731801738509386435101
347,1.7124045082991337202651470098695
348,1.7129840235648356157941928447335
349,1.7135618765725981173396362389653
350,1.7141380768423183538981549746186
351,1.7147126338124196602453446289034
352,1.7152855568407796689687965234561
353,1.7158568552056444452154564926481
354,1.7164265381065300786172549508664
355,1.7169946146651120976657345846630
356,1.7175610939261009163130218065563
357,1.7181259848581065518313420795031
358,1.7186892963544918579268649632904
359,1.7192510372342100182419375143941
360,1.7198112162426352381597860907212
361,1.7203698420523783797762887802891
362,1.7209269232640940216352117284275
363,1.7214824684072735388361593579497
364,1.7220364859410292275060167475908
365,1.7225889842548677099983261203319
366,1.7231399716694514984878173961231
367,1.7236894564373516089682027604912
368,1.7242374467437880143812415295324
369,1.7247839507073625694209671088309
370,1.7253289763807801201876146049573
371,1.7258725317515606520001478679468
372,1.7264146247427414318464757356506
373,1.7269552632135691121874510241347
374,1.7274944549601861045942702144423
375,1.7280322077163019147902652905880
376,1.7285685291538608953132271502593
377,1.7291034268836982050109743385588
378,1.7296369084561871427817304178746
379,1.7301689813618796953635656357048
380,1.7306996530321370559386716317315
381,1.7312289308397529889907413544733
382,1.7317568220995671595863064059643
383,1.7322833340690731017443286139106
384,1.7328084739490157895964536672169
385,1.7333322488839824325948481535389
386,1.7338546659629871534213183359358
387,1.7343757322200452979358956126680
388,1.7348954546347413139640622538509
389,1.7354138401327908736080392492587
390,1.7359308955865944281884523988565
391,1.7364466278157825127561443050624
392,1.7369610435877564085495499700630
393,1.7374741496182216368832639496659
394,1.7379859525717128655627861999701
395,1.7384964590621130846960241571400
396,1.7390056756531667027676093002364
397,1.7395136088589861928815152320464
398,1.7400202651445522973044964673620
399,1.7405256509262063560991875483315
400,1.7410297725721390598028192920220
401,1.7415326364028716750686947565449
402,1.7420342486917304884850984278763
403,1.7425346156653172893095561586632
404,1.7430337435039737842061890314145
405,1.7435316383422374094297051731300
406,1.7440283062692946494889581570886
407,1.7445237533294289790088920525011
408,1.7450179855224609309829812457730
409,1.7455110088041831524925651623375
410,1.7460028290867929623702706346612
411,1.7464934522393166708241505404668
412,1.7469828840880292436118106683855
413,1.7474711304168703898230285853505
414,1.7479581969678534971167111649599
415,1.7484440894414716983739141223944
416,1.7489288134970974994006064979378
417,1.7494123747533788161669147306746
418,1.7498947787886285848203612361519
419,1.7503760311412122229849344748696
420,1.7508561373099279242695605323921
421,1.7513351027543837381704172995237
422,1.7518129328953707169715331578790
423,1.7522896331152299657851126745532
424,1.7527652087582172094582125382654
425,1.7532396651308612557073904467898
426,1.7537130075023199613232489820688
427,1.7541852411047311860765518343150
428,1.7546563711335587480158942703355
429,1.7551264027479372925453140386191
430,1.7555953410710089373907585838518
431,1.7560631911902591971096058103123
432,1.7565299581578493366609153325234
433,1.7569956469909404919333312782025
434,1.7574602626720206551707954151377
435,1.7579238101492223489702815461494
436,1.7583862943366388898443945856589
437,1.7588477201146374027189317029068
438,1.7593080923301675684310761441487
439,1.7597674157970667855336739645183
440,1.7602256952963628176200670158350
441,1.7606829355765710860230674842069
442,1.7611391413539901715354705570728
443,1.7615943173129951728480730129708
444,1.7620484681063235410769726892343
445,1.7625015983553627210395624508002
446,1.7629537126504306236287723264488
447,1.7634048155510560984549394488208
448,1.7638549115862526249569599062684
449,1.7643040052547930624878917373333
450,1.7647521010254776118163798940696
451,1.7651992033374024911387985421840
452,1.7656453166002221679500206344068
453,1.7660904451944108898457397066127
454,1.7665345934715199032048693667759
455,1.7669777657544339836251679900812
456,1.7674199663376225751110062430775
457,1.7678611994873902337210823818489
458,1.7683014694421227715730268640406
459,1.7687407804125316151300369750869
460,1.7691791365818960201124580629736
461,1.7696165421063009927618048687183
462,1.7700530011148741305060967937110
463,1.7704885177100199857995194170316
464,1.7709230959676501140435470175052
465,1.7713567399374127743253698117455
466,1.7717894536429194136728116954706
467,1.7722212410819672153426032285305
468,1.7726521062267627267844568721462
469,1.7730820530241390439813228039837
470,1.7735110853957740767054479351192
471,1.7739392072384041618021897563213
472,1.7743664224240373221138315953935
473,1.7747927348001615219488181795377
474,1.7752181481899554230928601092598
475,1.7756426663924905641193935029698
476,1.7760662931829374768075632508891
477,1.7764890323127660726668075167289
478,1.7769108875099449755600656963773
479,1.7773318624791386898114000371002
480,1.7777519609019029983835822932768
481,1.7781711864368771420009054315188
482,1.7785895427199763480098173025588
483,1.7790070333645800889749905378082
484,1.7794236619617188907686584993650
485,1.7798394320802611670323860045616
486,1.7802543472670946648051665360606
487,1.7806684110473093701042105372547
488,1.7810816269243764699452449106978
489,1.7814939983803265989047518577706
490,1.7819055288759252332696827989500
491,1.7823162218508473669767595249807
492,1.7827260807238500574464725874094
493,1.7831351088929428162357611374763
494,1.7835433097355569384656994173663
495,1.7839506866087119634316094339778
496,1.7843572428491825107303577285549
497,1.7847629817736611773348046754219
498,1.7851679066789214407773210792661
499,1.7855720208419780656724548184954
500,1.785975327520247143953467473347
501,1.786377829951701514740177585037
502,1.786779531355029018890556972170
503,1.787180434929785056235108665857
504,1.787580543856547289197224236900
505,1.787979861297065340133276385998
506,1.788378390394411212340207173016
507,1.788776134273128282618355994739
508,1.789173096039378505205926825476
509,1.789569278781086057829301397965
510,1.789964685568083482955770616331
511,1.790359319452253555179027910081
512,1.790753183467670774779593644080
513,1.791146280630741103047481467123
514,1.791538613940340615682282588120
515,1.791930186377953448418122419231
516,1.792321000907807245117722949028
517,1.792711060477007182979087746769
518,1.793100368015670360149043013509
519,1.793488926437057327597830224025
520,1.793876738637703622167985023820
521,1.794263807497548095940518468566
522,1.794650135880062318032198219454
523,1.795035726632377485897962946927
