Eigenstate,Potential Energy
1,0.500000000089090139123309427943356899
2,0.64623093823264993040646950796559006
3,0.73633761141319450547454858900051739
4,0.79966528137228041420242700406743125
5,0.8480465814489790617947829323162136
6,0.8870660064074752191359847986704094
7,0.9197208376904230739869069623719279
8,0.9477838616771597244579082245168617
9,0.9723835773753853818861843443022661
10,0.9942802389346023261017286584297838
11,1.0140094164965152345406183765801775
12,1.0319622053662704486323217587098775
13,1.0484327356101063722216049552695968
14,1.0636477049115487274783370291184184
15,1.0777854943856157901541637802933435
16,1.090988973449276308192116654847132
17,1.103374333282962300995978909208866
18,1.115037337836774289452854064012652
19,1.126057846934462957265054736158420
20,1.136503153907368495265565982242668
21,1.146430491676119903756742968261707
22,1.155888943909376708493399077415438
23,1.164920922960354815058383700947659
24,1.173563327267249590941541704673039
25,1.181848458149162978252364138129664
26,1.189804753613691815998244126290327
27,1.197457381319504135188072946023734
28,1.204828721935379371022409158979642
29,1.211938766342160608083611918903715
30,1.218805444474579400327705099595257
31,1.225444899453975204168910740704915
32,1.231871717585031875747428621021121
33,1.238099122480005877539074901744403
34,1.244139139823374571987682020606455
35,1.250002737950637913166931724552590
36,1.255699948381527968205038164022373
37,1.261239969643796151147491180391920
38,1.266631257093329308381996977377160
39,1.271881600938497144918776383712272
40,1.276998194280812697032802064224669
41,1.281987692667237282865744890186842
42,1.286856266394468760933257448090954
43,1.291609646599065581451192958215800
44,1.296253165999165099798543357595874
45,1.300791795015985052365075796926357
46,1.305230173890160812380033004506715
47,1.309572641314494430939709991876385
48,1.313823260027105104166029797053057
49,1.317985839744308163500725953577640
50,1.32206395775842697246119262638520
51,1.32606097748027515069101509492511
52,1.32998006516770133182130624751260
53,1.33382420504913854309867667635753
54,1.33759621302353916326769507684080
55,1.34129874909460092267362975465790
56,1.34493432867711483941773019877270
57,1.34850533289606702027104183259124
58,1.35201401798432906875615595963911
59,1.35546252387201789552535540928841
60,1.35885288204958121845764643074954
61,1.36218702277710081238845325497499
62,1.36546678170400456326939790792686
63,1.36869390595613649253199152844717
64,1.37187005974082143750477415096198
65,1.37499682951502623375878352033017
66,1.37807572875687190620006390473769
67,1.38110820237648908440079335812741
68,1.38409563079845269685077250386440
69,1.38703933374471932808317428296122
70,1.38994057374406235436296900685402
71,1.39280055939140126989533950348381
72,1.39562044837812337312978915286522
73,1.39840135031244297633247801797669
74,1.40114432934702445304524463664637
75,1.40385040662946433694687856485485
76,1.40652056258977812887589963178786
77,1.40915573907773507035629786785238
78,1.41175684136171834378676095765369
79,1.41432473999974133946156512266180
80,1.41686027259231250394642503192156
81,1.41936424542599194285624186603068
82,1.42183743501572150052761294497448
83,1.42428058955332130528928701279054
84,1.42669443026892147731768935819191
85,1.42907965271153841989075438001868
86,1.43143692795448924946378460945892
87,1.43376690373088044919163971241210
88,1.43607020550398345278537415539099
89,1.43834743747692636343012608674945
90,1.44059918354578779576187568142974
91,1.44282600819985737685017439594067
92,1.44502845737253914459438006331555
93,1.44720705924611182688613271448832
94,1.44936232501331705615204138119921
95,1.45149474959852541986223912076005
96,1.45360481234102842547367174315967
97,1.45569297764282011616805800216794
98,1.45775969558305919944916426119976
99,1.45980540250124907847586544132790
100,1.46183052155102683559079800809602
101,1.46383546322632291335071578426841
102,1.46582062586152766364331595965551
103,1.46778639610719302186252035147856
104,1.46973314938269029840492010645503
105,1.47166125030715200599181794384645
106,1.47357105310993487707918423406672
107,1.47546290202176314366185538253790
108,1.47733713164763191222439473096686
109,1.47919406732248187305711114781911
110,1.48103402545059416303074374266739
111,1.48285731382958833972506914916031
112,1.48466423195985699117363038544613
113,1.48645507134021496969266914310419
114,1.48823011575049248050646887681956
115,1.48998964152176080737880613425353
116,1.49173391779483112581242746822420
117,1.49346320676763514137185339052129
118,1.49517776393205525957941658721427
119,1.49687783830073828011857132556360
120,1.49856367262440076584390295248733
121,1.50023550360009596985292015067394
122,1.50189356207089329074257253305013
123,1.50353807321738903324159340493127
124,1.50516925674144957160127239924538
125,1.50678732704255844686483871931980
126,1.50839249338712373183796379835126
127,1.50998496007108141969689869295237
128,1.51156492657610800498144608557539
129,1.51313258771974335248181938429885
130,1.51468813379970656766167404475879
131,1.51623175073267217814189953155114
132,1.51776362018775895856938019098542
133,1.51928391971497194961060512209652
134,1.52079282286882694585277794005115
135,1.52229049932736861905182043873893
136,1.52377711500678975563685505724180
137,1.52525283217184577943821887181189
138,1.52671780954224511861496311262810
139,1.52817220239519386985302015030197
140,1.52961616266425776693722919943117
141,1.53104983903469990331071219406175
142,1.53247337703544458496869893001732
143,1.53388691912780903986467537836057
144,1.53529060479113753037035101841118
145,1.53668457060546822757218243216348
146,1.53806895033135533743654467807125
147,1.53944387498696076591058674780736
148,1.54080947292253065199189582754919
149,1.54216586989235856972758690512737
150,1.54351318912433904002502145479234
151,1.54485155138720726653509901273563
152,1.54618107505555539478264946590285
153,1.54750187617271424424400940228677
154,1.54881406851158441261930774940178
155,1.55011776363349498829805623943979
156,1.55141307094516773738741693019106
157,1.55270009775385781191182883261288
158,1.55397894932074279729216315498238
159,1.5552497289126237719438385382659
160,1.5565125378520047165390063656251
161,1.5577674755656087690590608438235
162,1.5590146396313907867452207091434
163,1.5602541258241010682524744205068
164,1.5614860281594548726098606404344
165,1.5627104389369563352119622198824
166,1.5639274487814272964384342468528
167,1.5651371466832882752299783232873
168,1.5663396200376342765440726645402
169,1.5675349546821504947900054812759
170,1.5687232349339076563707443305467
171,1.5699045436250771958023511402577
172,1.5710789621376041320815149453723
173,1.5722465704368730476436585701049
174,1.5734074471044030134392436028689
175,1.5745616693696054450741657443342
176,1.5757093131406345963818325888381
177,1.5768504530343639509793306146520
178,1.5779851624055176662187200920997
179,1.5791135133749835144963607590764
180,1.5802355768573382683358457698135
181,1.5813514225876081778477611288710
182,1.5824611191472922359702816613726
183,1.5835647339896712807837853772937
184,1.5846623334644271764544061047700
185,1.5857539828415938809515870193651
186,1.5868397463348613691776463586086
187,1.5879196871242562120310669457390
188,1.5889938673782142477384145841861
189,1.5900623482750690765666466213022
190,1.5911251900239720300136278948633
191,1.5921824518852628370505579695474
192,1.5932341921903073696401049209067
193,1.5942804683608207714003942364249
194,1.5953213369276893102185225203790
195,1.5963568535493088871957694540924
196,1.5973870730294538938461494215902
197,1.5984120493346907928925712954315
198,1.5994318356113505846634104786488
199,1.6004464842020729929681693843530
200,1.6014560466619363106759215004378
201,1.6024605737741838814401875516982
202,1.6034601155655605937485957903561
203,1.6044547213212700420434157571093
204,1.6054444395995639698448215761654
205,1.6064293182459739602557239875727
206,1.6074094044071983926158684273005
207,1.6083847445446505360018254996776
208,1.6093553844476820010484750843858
209,1.6103213692464872929943605350998
210,1.6112827434247009616228641468532
211,1.6122395508316947071314207404284
212,1.6131918346945846691285408387442
213,1.6141396376299532767235881588420
214,1.6150830016553006354719760192003
215,1.6160219682002246574815636368262
216,1.6169565781173438892123043448545
217,1.6178868716929669960869215097137
218,1.6188128886575178764405050274404
219,1.6197346681957196778240026592240
220,1.6206522489565502238682634653697
221,1.6215656690629667540799921964255
222,1.6224749661214171740184630048190
223,1.6233801772311313767667087703682
224,1.6242813389932076950816880648600
225,1.6251784875194970408520937138896
226,1.6260716584412882698930372315993
227,1.6269608869178034150127061002513
228,1.6278462076445045976431540863127
229,1.6287276548612197702699100484975
230,1.6296052623600919759908499508218
231,1.6304790634933539145641168704613
232,1.6313490911809382239541613718614
233,1.6322153779179184629718128202851
234,1.6330779557817969411676044312715
235,1.6339368564396325671718817174710
236,1.6347921111550184143462703161799
237,1.6356437507949126239722014558706
238,1.6364918058363243770850211425755
239,1.6373363063728603706357791724465
240,1.6381772821211339514998610849797
241,1.6390147624270411897842279448368
242,1.6398487762719067474885608524300
243,1.6406793522785035734021239640134
244,1.6415065187169481125791888939189
245,1.6423303035104754036158384601357
246,1.6431507342410965824082695844110
247,1.6439678381551401742920397145841
248,1.6447816421686847552336370097464
249,1.6455921728728779507087297579381
250,1.6463994565391521565086872249295
251,1.6472035191243348810266336714046
252,1.6480043862756565070628203937388
253,1.6488020833356605448964853777502
254,1.6495966353470160330276045999887
255,1.6503880670572359661656543868248
256,1.6511764029233018353842687990230
257,1.6519616671162006713397349306932
258,1.6527438835253710347684263427385
259,1.6535230757630647572732343875802
260,1.6542992671686248182665875254537
261,1.6550724808126796712915728433616
262,1.6558427395012587446213491680602
263,1.6566100657798279661958091551520
264,1.6573744819372507632269727275980
265,1.6581360100096730611830239840233
266,1.6588946717843344493693934671433
267,1.6596504888033087258269503311518
268,1.6604034823671738547390956386733
269,1.6611536735386156057418255777827
270,1.6619010831459605987604901939835
271,1.6626457317866480378107596479168
272,1.6633876398306341128159333189350
273,1.6641268274237365120423419343642
274,1.6648633144909162536649677731706
275,1.6655971207395007115387552983547
276,1.6663282656623461130293466683529
277,1.6670567685409469924221287762807
278,1.6677826484484843540643071939160
279,1.6685059242528240479234432413623
280,1.6692266146194574506479392230821
281,1.6699447380143923411783400481310
282,1.6706603127069914674077389744037
283,1.6713733567727620165710678116148
284,1.6720838880960931461380482462611
285,1.6727919243729483827151924769083
286,1.6734974831135089139476175193815
287,1.6742005816447728329683928680679
288,1.6749012371131067374274083224118
289,1.6755994664867543314290951457488
290,1.6762952865583027631737457374141
291,1.6769887139471045395182732712945
292,1.6776797651016579026412257034814
293,1.6783684563019495748720637443980
294,1.6790548036617549088911804926264
295,1.6797388231308975307400093332986
296,1.6804205304974760615058022969996
297,1.6810999413900478497139162933772
298,1.6817770712797790314926928651052
299,1.6824519354825577216884006954991
300,1.6831245491610720868605016130983
301,1.6837949273268537119268923004251
302,1.6844630848422883537298405766266
303,1.6851290364225912549957512150635
304,1.6857927966377505965724463777220
305,1.6864543799144405168274230126194
306,1.6871138005379029617944200890121
307,1.6877710726537955484163474103962
308,1.6884262102700129197136016297191
309,1.6890792272584776815538707532989
310,1.6897301373569012565870928080165
311,1.6903789541705182506735650695046
312,1.6910256911737918453731503131742
313,1.6916703617120916096861849479841
314,1.6923129790033455357707027271495
315,1.6929535561396656187409232993173
316,1.6935921060889483566570871912074
317,1.6942286416964477097914291247263
318,1.6948631756863258709036169540097
319,1.6954957206631789885855728517721
320,1.6961262891135378454424710116566
321,1.6967548934073474105621057577062
322,1.6973815457994213812336572440976
323,1.6980062584308752284934526780020
324,1.6986290433305367241878995188099
325,1.6992499124163357120972827983700
326,1.6998688774966713609188083674351
327,1.7004859502717597204490243835407
328,1.7011011423349587707587961966935
329,1.7017144651740759398261729913008
330,1.7023259301726545219151888684866
331,1.7029355486112404359105511931357
332,1.7035433316686303854812838685323
333,1.7041492904231018002689838362266
334,1.7047534358536227427829340709454
335,1.7053557788410460966018485457781
336,1.7059563301692840946224988748500
337,1.7065551005264660602972752136859
338,1.7071521005060804214301222936306
339,1.7077473406080970617635101220916
340,1.7083408312400761024466221345022
341,1.7089325827182588277213123853801
342,1.7095226052686432527540330275980
343,1.7101109090280439721987301548088
344,1.7106975040451362840075110959389
345,1.7112824002814864086578508438441
346,1.7118656076125652794340331811426
347,1.7124471358287494699931847630744
348,1.7130269946363060718226492676204
349,1.7136051936583650674194388125438
350,1.7141817424358767424586516434768
351,1.7147566504285562254995963906551
352,1.7153299270158148385619256446964
353,1.7159015814976775439391401144296
354,1.7164716230956879027381373686807
355,1.7170400609538009114592086079840
356,1.7176069041392619274655849471223
357,1.7181721616434749234649596001451
358,1.7187358423828593161183978782116
359,1.7192979551996911150501221325585
360,1.7198585088629373313413908059622
361,1.7204175120690753915655723716878
362,1.7209749734429040401792770701306
363,1.7215309015383403271289779075512
364,1.7220853048392077059379218766896
365,1.7226381917600134799411802359366
366,1.7231895706467144756719004197250
367,1.7237394497774738367682066390348
368,1.7242878373634057285277558252958
369,1.7248347415493125870771146618810
370,1.7253801704144106277926598406219
371,1.7259241319730464677740111837694
372,1.7264666341754038203777200998140
373,1.7270076849082002300904191267565
374,1.7275472919953781578177271098235
375,1.7280854631987811098009437182548
376,1.7286222062188262680473149041475
377,1.7291575286951654132058902751925
378,1.7296914382073373090485155741990
379,1.7302239422754133901607369925733
380,1.7307550483606335114420626892963
381,1.7312847638660346367387939240899
382,1.7318130961370695867019200597050
383,1.7323400524622205225100801725043
384,1.7328656400736021311756755967764
385,1.7333898661475581357609718622618
386,1.7339127378052517912719398770747
387,1.7344342621132461177373445795635
388,1.7349544460840778094946679556363
389,1.7354732966768254976376220915360
390,1.7359908207976695570655700584813
391,1.7365070253004437774591476844831
392,1.7370219169871825090024049935034
393,1.7375355026086607588431847545763
394,1.7380477888649258219504261304124
395,1.7385587824058233058725497542806
396,1.7390684898315172029579050055623
397,1.7395769176930036427007523898180
398,1.7400840724926183351830665103756
399,1.7405899606845362742992741272308
400,1.7410945886752680036951572302958
401,1.7415979628241484973884617961565
402,1.7421000894438194034155939837574
403,1.7426009748007074744450271360556
404,1.7431006251154970817336650716269
405,1.7435990465635942812457572559126
406,1.7440962452755885444213388394181
407,1.7445922273377092738619107469380
408,1.7450869987922746107646269109314
409,1.7455805656381353989126279484858
410,1.7460729338311168235322766395002
411,1.7465641092844519889585583977087
412,1.7470540978692110217315398904110
413,1.7475429054147267823246339217105
414,1.7480305377090136135889710185114
415,1.7485170004991834142437070924481
416,1.7490022994918554715115643841156
417,1.7494864403535629059861962839589
418,1.7499694287111528966798285240880
419,1.7504512701521849696092531650644
420,1.7509319702253223368099552857153
421,1.7514115344407202430740842891073
422,1.7518899682704106072572879095268
423,1.7523672771486807996831687288383
424,1.7528434664724501749029363060865
425,1.7533185416016407448604977457503
426,1.7537925078595456051359349597921
427,1.7542653705331926049106945843724
428,1.7547371348737032805008806941789
429,1.7552078060966509711896546373316
430,1.7556773893824109859781983617413
431,1.7561458898765103316057014558095
432,1.7566133126899741582387719111443
433,1.7570796628996642678026612406730
434,1.7575449455486207901715147922910
435,1.7580091656463948583688833910783
436,1.7584723281693801914755690293268
437,1.7589344380611417545166122232074
438,1.7593955002327404855437762191183
439,1.7598555195630547795883449010624
440,1.7603145008990998093173334892408
441,1.7607724490563418511076430361351
442,1.7612293688190111893159777080657
443,1.7616852649404132558263805672884
444,1.7621401421432326339066564679097
445,1.7625940051198392669929737358202
446,1.7630468585325879069814706046071
447,1.7634987070141179817510876694225
448,1.7639495551676471109754140007366
449,1.7643994075672661219095931675738
450,1.7648482687582277291138018174808
451,1.7652961432572363930732797467786
452,1.7657430355527322112853360476462
453,1.7661889501051745974784063305306
454,1.7666338913473221508916503679152
455,1.7670778636845123528593180161404
456,1.7675208714949364014819428396848
457,1.7679629191299138943021310942628
458,1.7684040109141637695302724840805
459,1.7688441511460740348437003101526
460,1.7692833440979699416815797929781
461,1.7697215940163784708180310122086
462,1.7701589051222923588300958624427
463,1.7705952816114322863255390769796
464,1.7710307276545054064594430814856
465,1.7714652473974642006736640523920
466,1.7718988449617628111268463457501
467,1.7723315244446101497057695491032
468,1.7727632899192248192593949213933
469,1.7731941454350843444035820322577
470,1.7736240950181762577504932026317
471,1.7740531426712453306812502600878
472,1.7744812923740412690194751606233
473,1.7749085480835622479800281277568
474,1.7753349137343018146500311967331
475,1.7757603932384881058283592481574
476,1.7761849904863279209161687620709
477,1.7766087093462460096346360782475
478,1.7770315536651242782203596516487
479,1.7774535272685398320828068923802
480,1.7778746339610022790792226154111
481,1.7782948775261888748621174814088
482,1.7787142617271811107083019169742
483,1.7791327903066981565422722813325
484,1.7795504669873300127490517568926
485,1.7799672954717718826728612952954
486,1.7803832794430543868224280573873
487,1.7807984225647765050782709768318
488,1.7812127284813358822039500372014
489,1.7816262008181597649613195664865
490,1.7820388431819344754906515387844
491,1.7824506591608355982555673946061
492,1.7828616523247575133187232938809
493,1.7832718262255422971106297881925
494,1.7836811843972091325806828723092
495,1.7840897303561824708078203454839
496,1.7844974676015222398798844328437
497,1.7849043996151518398450110449475
498,1.7853105298620879242295482560782
499,1.7857158617906695227426736601026
500,1.786120398832788695053776035680
501,1.786524144404118523315804599535
502,1.786927101904345962550885967469
503,1.787329274717401083376399293186
504,1.787730666211690619801790902740
505,1.788131279740328741048511360438
506,1.788531118641370851749865260290
507,1.788930186238048345656900707687
508,1.789328485839004032923040511563
509,1.789726020738526555074184123943
510,1.790122794216789927380217479663
511,1.790518809540091529594625908391
512,1.790914069961092538700702745536
513,1.791308578719059516560425859161
514,1.791702339040107929977858767333
515,1.792095354137448082593996762019
516,1.792487627211631778357180041125
517,1.792879161450800905165257851020
518,1.793269960030939842581386260875
519,1.793660026116128598932278593218
520,1.794049362858799663259660599843
521,1.794437973399995501148217194692
522,1.794825860869631110011719044817
523,1.795213028386758216213830792805
