Eigenstate,Potential Energy
1,0.500000000512965884809767893965730491
2,0.64623094099954555443415695148367775
3,0.73633761954098098055764422782690900
4,0.79966529830225598130403913074242885
5,0.8480466107767602918551305029335340
6,0.8870660517926203560689107961754910
7,0.9197209028232954357365786507411440
8,0.9477839502652591192529591881545116
9,0.9723836931371308567112929641058753
10,0.9942803855963045699771212344257535
11,1.0140095977908508372142570641303245
12,1.0319624250315217995140355434157087
13,1.0484329973898187007974668306192420
14,1.0636480125544275397790005328279054
15,1.0777858516455696680789665033972416
16,1.090989384085551360569213356200804
17,1.103374801060336579827457479465561
18,1.115037866525792771629428810484373
19,1.126058440311700825293140816453210
20,1.136503815755714739806298460614927
21,1.146431225785075931447290669798940
22,1.155889754075366335420071047664392
23,1.164921812987043135779106825242007
24,1.173564300965868954914252014172804
25,1.181849519338844811903640732205544
26,1.189805906121803380744626935385336
27,1.197458628981989560723973349814963
28,1.204830068597104482075658944993500
29,1.211940215857261193237963776335823
30,1.218807000706812667861240087922342
31,1.225446566277074241961083403454574
32,1.231873498883062986918559441013175
33,1.238101022147728705326286734067759
34,1.244141161766604959771559500475931
35,1.250004886086613470940409998997314
36,1.255702226639276336854807197171696
37,1.261242381964505971973420399763785
38,1.266633807430723918250867128265832
39,1.271884293259211028040293399888468
40,1.277001032564770733088287857016808
41,1.281990680908036838515300210361622
42,1.286859408599764677886204882319195
43,1.291612946790958119544505397731135
44,1.296256628214590898074057801130341
45,1.300795423307111175114931481824085
46,1.305233972324781950655008966168814
47,1.309576613976433333177068316697891
48,1.313827411016616312466184925296950
49,1.317990173178485134722108874360388
50,1.32206847777161266575845375251645
51,1.32606568822447616543117706101479
52,1.32998497081300568200651277153451
53,1.33382930978413715652804953921713
54,1.33760152105575119570819491366866
55,1.34130426465090297929497156368339
56,1.34494005600417419769653558358961
57,1.34851127626077895049575128422342
58,1.35202018167425835018017943889155
59,1.35546891219584462812425052005098
60,1.35885949933755103216191927307972
61,1.36219387338147957758891536066623
62,1.36547386999953770833475498948228
63,1.36870123634051303604142786261506
64,1.37187763663514284488908696821896
65,1.37500465736428021006631457874752
66,1.37808381203041123875727463132761
67,1.38111654556851565123199510585668
68,1.38410423842850675885457200181937
69,1.38704821035817422514338103214378
70,1.38994972391262472779283317359951
71,1.39280998771361693589152633802265
72,1.39563015947988897423411119017201
73,1.39841134884752354028188883452714
74,1.40115461999757699082397083350702
75,1.40386099410656761435093590554173
76,1.40653145163396874845292192148777
77,1.40916693445955000320380823455187
78,1.41176834788224405337510561488213
79,1.41433656249116964239875458329260
80,1.41687241591850331542192947077498
81,1.41937671448304305739510932855648
82,1.42185023473254556165218252871410
83,1.42429372489223012072922089968657
84,1.42670790622621783953164590187772
85,1.42909347431811559486657067127094
86,1.43145110027643830005033184882549
87,1.43378143187010556259000426830796
88,1.43608509459882544528821562712445
89,1.43836269270279453905088580703319
90,1.44061481011580033904275419656995
91,1.44284201136549046388225379353076
92,1.44504484242428496012514553386432
93,1.44722383151414567933608821966564
94,1.44937948986817378641255618872220
95,1.45151231245178530390669178413132
96,1.45362277864601277508313669862136
97,1.45571135289529678646120682992909
98,1.45777848532195821640738125137363
99,1.45982461230938860428090983712893
100,1.46185015705584969434444767240522
101,1.46385553010064390462360829994446
102,1.46584112982429189631377893708743
103,1.46780734292424550585493214804985
104,1.46975454486755703722788866100603
105,1.47168310032183283840980053632875
106,1.47359336356570832183645941381849
107,1.47548567888000350691565733414117
108,1.47736038092063892323885079907265
109,1.47921779507432311977118068781298
110,1.48105823779796060533968265109199
111,1.48288201694266318471608602738061
112,1.48468943206319822113596025511131
113,1.48648077471365182048500487834020
114,1.48825632873003617481944676429160
115,1.49001637050052985457818483268976
116,1.49176116922399150739781559569372
117,1.49349098715735570864664593911699
118,1.49520607985247867789877394514489
119,1.49690669638296786207608522633516
120,1.49859307956150354398052346873646
121,1.50026546614812236792924738751918
122,1.50192408704991376131471783586674
123,1.50356916751254803823392290501337
124,1.50520092730403729177529948796192
125,1.50681958089110061556355039316249
126,1.50842533760848999813469313454174
127,1.51001840182161265611425425668026
128,1.51159897308276298527666130962574
129,1.51316724628126523562733404411497
130,1.51472341178780963509657373537251
131,1.51626765559324928263867414632910
132,1.51780015944211015466864471988469
133,1.51932110096105478751898393048716
134,1.52083065378252892301153074147012
135,1.52232898766380229625655998960512
136,1.52381626860161105764259316313560
137,1.52529265894259601343720672541138
138,1.52675831748971725782998214773557
139,1.52821339960482366376605511092945
140,1.52965805730754025439035803909817
141,1.53109243937063191987474039399512
142,1.53251669141199387160911298567067
143,1.53393095598341057604476880739267
144,1.53533537265621773133988180037088
145,1.53673007810399766271752147031289
146,1.53811520618243064422662157236208
147,1.53949088800641645218878036278552
148,1.54085725202458149814371924174083
149,1.54221442409127336163577163242093
150,1.54356252753614638370937464295651
151,1.54490168323143425600635027197318
152,1.54623200965699992591603046686077
153,1.54755362296325178945070244292015
154,1.54886663703201009375951975672127
155,1.55017116353540180868619648880390
156,1.55146731199286185790547000893113
157,1.55275518982631178118637184872744
158,1.55403490241358767166408619040366
159,1.5553065531401810875609540568682
160,1.5565702434493593033945993905077
161,1.5578260728907234251868076807945
162,1.5590741391672638601247648975722
163,1.5603145381809680242919570483817
164,1.5615473640770349564058737375551
165,1.5627727092867454701747758024870
166,1.5639906645690383943442429615079
167,1.5652013190508401673822262566729
168,1.5664047602661905115187508704012
169,1.5676010741942092852581443620188
170,1.5687903452959442957832070398791
171,1.5699726565501403053356099563809
172,1.5711480894879671392253040978032
173,1.5723167242267423402267167908458
174,1.5734786395026842567851640779677
175,1.5746339127027295954150500824475
176,1.5757826198954451907007550672703
177,1.5769248358610673021551877770294
178,1.5780606341206976427936939796585
179,1.5791900869646826366307902997145
180,1.5803132654802069056356581611028
181,1.5814302395781236908261885786918
182,1.5825410780190499610159677349877
183,1.5836458484387493187322030091269
184,1.5847446173728270072870767151696
185,1.5858374502807588918767054298560
186,1.5869244115692754504558321108250
187,1.5880055646151246445224734302905
188,1.5890809717872291783433031621656
189,1.5901506944682619526511883773684
190,1.5912147930756554416259407624682
191,1.5922733270820642964133077001957
192,1.5933263550352976411367566788635
193,1.5943739345777394522060096725557
194,1.5954161224652704520113115545178
195,1.5964529745857095431151968213216
196,1.5974845459767885722845503713867
197,1.5985108908436749008704310148805
198,1.5995320625760560487003030452352
199,1.6005481137647993546481437910478
200,1.6015590962182007077039288308345
201,1.6025650609778334431344316706010
202,1.6035660583340109027545047652145
203,1.6045621378408734418351764770446
204,1.6055533483311116305408858538617
205,1.6065397379303357536042990277719
206,1.6075213540711047710044009574467
207,1.6084982435066207602359537011370
208,1.6094704523241032177235759947719
209,1.6104380259578491248368284718876
210,1.6114010092019904434945773411815
211,1.6123594462229565768185259422135
212,1.6133133805716522058881142732964
213,1.6142628551953550722124853299833
214,1.6152079124493488814771354870736
215,1.6161485941082907432592709987192
216,1.6170849413773273185736866976828
217,1.6180169949029638611248255454890
218,1.6189447947836953614406145944355
219,1.6198683805804033138957329555681
220,1.6207877913265308727196590000047
221,1.6217030655380345686671982196064
222,1.6226142412231300651141611928290
223,1.6235213558918258084267101487487
224,1.6244244465652599391300096158665
225,1.6253235497848433416525381901819
226,1.6262187016212127063766775336930
227,1.6271099376830025981296896551920
228,1.6279972931254387087420860553022
229,1.6288808026587598303585968193746
230,1.6297605005564736382060702824112
231,1.6306364206634484934875520004823
232,1.6315085964038521166362110550147
233,1.6323770607889325787522711273206
234,1.6332418464246582417276468749381
235,1.6341029855192103259621681227975
236,1.6349605098903383368154179232508
237,1.6358144509725825283318436388151
238,1.6366648398243657210060143096179
239,1.6375117071349605239183655384037
240,1.6383550832313347599647197321723
241,1.6391949980848800531322190076033
242,1.6400314813180271455019058599246
243,1.6408645622107527226101506600371
244,1.6416942697069802214045191691836
245,1.6425206324208798203195283741515
246,1.6433436786430709992239593173152
247,1.6441634363467299654432101980968
248,1.6449799331936104888279468440782
249,1.6457931965399741275968485348468
250,1.6466032534424412961673251482712
251,1.6474101306637621986358369252547
252,1.6482138546785116106486231756282
253,1.6490144516787138304714430840783
254,1.6498119475793987730246466720831
255,1.6506063680240944763588880035492
256,1.6513977383902575725532601647010
257,1.6521860837946496629339855817826
258,1.6529714290986576780545584454534
259,1.6537537989135667544512460481768
260,1.6545332176057878418458519274436
261,1.6553097093020422870170770249603
262,1.6560832978945101643560011735312
263,1.6568540070459433677921905510950
264,1.6576218601947512065400027697753
265,1.6583868805600594574970887570643
266,1.6591490911467476148756466456652
267,1.6599085147504702782515877564430
268,1.6606651739626656065033522222020
269,1.6614190911755581785231043911810
270,1.6621702885871552454820398140482
271,1.6629187882062491221994571631533
272,1.6636646118574233781779865304680
273,1.6644077811860741853347346283940
274,1.6651483176634481951022956099791
275,1.6658862425917052520679671377076
276,1.6666215771090089416142473795925
277,1.6673543421946574835825877651814
278,1.6680845586742520864772075433036
279,1.6688122472249199821512540190438
280,1.6695374283805903353365114913891
281,1.6702601225373374317110048529948
282,1.6709803499587956011142668349624
283,1.6716981307816565287668335646623
284,1.6724134850212540694672748963702
285,1.6731264325772518895290244017339
286,1.6738369932394390826835816310742
287,1.6745451866936485936011492764749
288,1.6752510325278053313370492089753
289,1.6759545502381198658394126234323
290,1.6766557592354405132874588503830
291,1.6773546788517746223084142474917
292,1.6780513283469958912540883581036
293,1.6787457269157566253089896372474
294,1.6794378936946161228318147080947
295,1.6801278477694046805518994846063
296,1.6808156081828495664485509711224
297,1.6815011939424731374997514380349
298,1.6821846240287942807438315098507
299,1.6828659174038536059584336162503
300,1.6835450930200896924009968036597
301,1.6842221698295944591470644778398
302,1.6848971667937797146803447465934
303,1.6855701028934845462282727432742
304,1.6862409971395623816037134737985
305,1.6869098685839874451654318896159
306,1.6875767363315215016479331554724
307,1.6882416195519833710243306841438
308,1.6889045374931780350713400266786
309,1.6895655094945352211195781558955
310,1.6902245550015165090324772759306
311,1.6908816935808586960390302108863
312,1.6915369449367210765841486550615
313,1.6921903289278148222521922004617
314,1.6928418655856004292761696924199
315,1.6934915751336448983128514399154
316,1.6941394780082414613300181609858
317,1.6947855948804009547562587176331
318,1.6954299466793430306602221097687
319,1.6960725546176197766718905938273
320,1.6967134402180212445868016902609
321,1.6973526253424320526335400680560
322,1.6979901322228180738782212544527
323,1.6986259834945494408830529380024
324,1.6992602022322838443444714551396
325,1.6998928119886619883754540580706
326,1.7005238368360918581607747402196
327,1.7011533014119350439863711465680
328,1.7017812309674389690803117170530
329,1.7024076514208077552867506376137
330,1.7030325894148426252205142946052
331,1.7036560723796409300436933554875
332,1.7042781286009031937460925875544
333,1.7048987872944662569025638059749
334,1.7055180786877578950426462265789
335,1.7061360341089656922292098734193
336,1.7067526860848097435693845053264
337,1.7073680684479367658302264519788
338,1.7079822164550915366052269519115
339,1.7085951669173790847425655793335
340,1.7092069583441299761400990095231
341,1.7098176311020908403185318331737
342,1.7104272275919264354942712864259
343,1.7110357924443184132864671855880
344,1.7116433727383010954281426412081
345,1.7122500182448949255121005839602
346,1.7128557816995892397385558775513
347,1.7134607191078203180791196046097
348,1.7140648900882849710865037464165
349,1.7146683582597752655453260401419
350,1.7152711916782210647464643643178
351,1.7158734633318458893382290014894
352,1.7164752517038095420066383276596
353,1.7170766414134988501504672192656
354,1.7176777239498151747454914860722
355,1.7182785985124894217986831784534
356,1.7188793729807646410927223109737
357,1.7194801650329004217348609326602
358,1.7200811034450770860963004758775
359,1.7206823296047115884201413202665
360,1.7212839992813429074083011407777
361,1.7218862847085708228212634357525
362,1.7224893770437949122952844820750
363,1.7230934892895856344437255335254
364,1.7236988597827704294312511402537
365,1.7243057563864901190338443367545
366,1.7249144815591132223374220497295
367,1.7255253785255459358400599703536
368,1.7261388388462382456260086512635
369,1.7267553117745085510817039731065
370,1.7273753159245978048208566321312
371,1.7279994539575184426555653787231
372,1.7286284312541502972079908586806
373,1.7292630799237209652853430547046
374,1.7299043900516637059179195220672
375,1.7305535509220542776788401820821
376,1.7312120062186428137884402197561
377,1.7318815291898193088512951607007
378,1.7325643269366244344886895503934
379,1.7332631882141697025060415063224
380,1.7339816980432194069782858687140
381,1.7347245581638503422958423489751
382,1.7354980813765068436613300776570
383,1.7363109840519849155209619622302
384,1.7371757167441375514126520829788
385,1.7381108283104223067102815621847
386,1.7391454753471702720923558408344
387,1.7403288526108310482473194790765
388,1.7417525303763987724849085266032
389,1.7436137825622550884278967629964
390,1.7464550708838048136826544615255
391,1.7527704414137679155043317106409
