Eigenstate,Potential Energy
1,0.500000000034160766518108373036428596
2,0.64623093787409824591048025774483211
3,0.73633761035997163426524169021129797
4,0.79966527917851965789489458385720944
5,0.8480465776488972697320420781854613
6,0.8870660005271126080819905564755855
7,0.9197208292519654475947455443223008
8,0.9477838502007379161399986945665312
9,0.9723835623799091477920258103794919
10,0.9942802199381809563275804611014774
11,1.0140093930166836067507148676087761
12,1.0319621769201159347110551879562730
13,1.0484327017143417655572664360193840
14,1.0636476650825541016139437462815271
15,1.0777854481394616108508123840788925
16,1.090988920301734766283755428226648
17,1.103374272749510979435036385265532
18,1.115037269432594685833912665197967
19,1.126057770174435458825961379135236
20,1.136503068306064847614710792863374
21,1.146430396747793869862593786346440
22,1.155888839167953394648658242241566
23,1.164920807919418996821329087736846
24,1.173563201440033275978957446849842
25,1.181848321048532377458910944306181
26,1.189804604752133848713824761254223
27,1.197457220209112562140375990164542
28,1.204828548087840625515263759018401
29,1.211938579268739379130981341571284
30,1.218805243686104009027072746564087
31,1.225444684460822805346378402963411
32,1.231871487897113509915056251533560
33,1.238098877606751392871124312898814
34,1.244138879273717431913669359793957
35,1.250002461232999901985250405217674
36,1.255699655003803804616686242478713
37,1.261239659113338017630036797292874
38,1.266630928916931302747717165903005
39,1.271881254622379659136610355372338
40,1.276997829330606727372754714435874
41,1.281987308587968674594671929566888
42,1.286855862690542390112361570178867
43,1.291609222774249475827368248787250
44,1.296252721556574500320044307070255
45,1.300791329458066416467972477100999
46,1.305229686718675759870746551573853
47,1.309572132030503633029248607694681
48,1.313822728130952115983566447599562
49,1.317985284735603200220808948475607
50,1.32206337913603062901408014893045
51,1.32606037474228206488420026831198
52,1.32997943781142379057879334057882
53,1.33382355257109003141943023307452
54,1.33759553491941785541322537990258
55,1.34129804485927311501496419978835
56,1.34493359780459832430204207743484
57,1.34850457487951440020662004188608
58,1.35201323231601101015955154042727
59,1.35546171004330632122623391597620
60,1.35885203955093243811316612784938
61,1.36218615109803858991999958677768
62,1.36546588033310312039901550466776
63,1.36869297438100344746388260586831
64,1.37186909744808067776787723911768
65,1.37499583599030072219934047843325
66,1.37807470348476641908834446578465
67,1.38110714484057288059301617724510
68,1.38409454048124211692563724259976
69,1.38703821012766032235210745259949
70,1.38993941630751293863435405870059
71,1.39279936761461390785450812732882
72,1.39561922173922728417969239076042
73,1.39840008828842636772309702725917
74,1.40114303141371667510416404313920
75,1.40384907226151796020785791386522
76,1.40651919126065094188769472636455
77,1.40915433025967199693921018172866
78,1.41175539452573327849034192832464
79,1.41432325461559889996295936975955
80,1.41685874812850969911531267690850
81,1.41936268134973975519863962587099
82,1.42183583079292638170756448041305
83,1.42427894464856658341429012743815
84,1.42669274414544867466044695654526
85,1.42907792483122847970675468538336
86,1.43143515777784367055129061998652
87,1.43376509071700232682735152181014
88,1.43606834911055842465610332056862
89,1.43834553716020345916772132957992
90,1.44059723876056018867544848254430
91,1.44282401839944303643630317887992
92,1.44502642200876138839296797301376
93,1.44720497776927977023582369611457
94,1.44936019687220595838591566353034
95,1.45149257424035692547067365359341
96,1.45360258921145069874770044766839
97,1.45569070618588786782243462664983
98,1.45775737524121360371063539248990
99,1.45980303271529757910767120091152
100,1.46182810176012283931037688740826
101,1.46383299286794536908283933794837
102,1.46581810437146052603637656931168
103,1.46778382291950459748103769973745
104,1.46973052392971247299568397422060
105,1.47165857201945935120659075598240
106,1.47356832141632363502099343406929
107,1.47546011634923008760650537482101
108,1.47733429142135308185290560687475
109,1.47919117196579118251876360427264
110,1.48103107438496188014015817247884
111,1.48285430647459943458034789189564
112,1.48466116773318935246572031709260
113,1.48645194965761748695925922233668
114,1.48822693602576299056651835338550
115,1.48998640316672390316641759532065
116,1.49173062021931582581103373888741
117,1.49345984937945241783175576721529
118,1.49517434613697542368366161186730
119,1.49687435950246822224360384231884
120,1.49856013222456104904259209700911
121,1.50023190099819777466881933108119
122,1.50188989666431520944484351557994
123,1.50353434440135371155056825611997
124,1.50516546390900019595480073494502
125,1.50678346958453507525534953392612
126,1.50838857069213946622982209687874
127,1.50998097152549841801302194980128
128,1.51156087156401333062697976286210
129,1.51312846562292465935144241528661
130,1.51468394399762761855548255914938
131,1.51622749260244819449276201076348
132,1.51775929310413179936239554635263
133,1.51927952305028511735291635322062
134,1.52078835599300041742869118957091
135,1.52228596160787349927509290937625
136,1.52377250580862275128853791557586
137,1.52524815085750349155414823576248
138,1.52671305547169815076284516384736
139,1.52816737492586075011438687999854
140,1.52961126115097868128441178541325
141,1.53104486282971023804360775647230
142,1.53246832548834827585029265885872
143,1.53388179158555172556800900156910
144,1.53528540059797950782320675094166
145,1.53667928910295720675858734842306
146,1.53806359085829899318711144815185
147,1.53943843687939908418549463730004
148,1.54080395551370806813267184695241
149,1.54216027251269589612457817949658
150,1.54350751110140518061928436483946
151,1.54484579204569071554285277980989
152,1.54617523371723551700153284967110
153,1.54749595215643233426943902688562
154,1.54880806113321453026862349827724
155,1.55011167220591456750889947317127
156,1.55140689477822796582474828253432
157,1.55269383615435377848630307877215
158,1.55397260159238340475928981939568
159,1.5552432943560014117206885345439
160,1.5565060157645647028411059289996
161,1.5577608652416185294262519720653
162,1.5590079403619088059902149448536
163,1.5602473368969455828311746525924
164,1.5614791488591723123760090103002
165,1.5627034685447895094828286376054
166,1.5639203865752833212614322002959
167,1.5651299919377062387026616812678
168,1.5663323720237526390015817009252
169,1.5675276126676742206363534126057
170,1.5687157981830750742901244657097
171,1.5698970113986265840479428664887
172,1.5710713336927400254982046471379
173,1.5722388450272322630407004737910
174,1.5733996239800203898867101061098
175,1.5745537477768792956556372976970
176,1.5757012923222918678922983568392
177,1.5768423322294250880138715721636
178,1.5779769408492611760540073337418
179,1.5791051902989102291213640349301
180,1.5802271514891352999428681878553
181,1.5813428941511125640491977168630
182,1.5824524868624542709592040400360
183,1.5835559970725175286086043649426
184,1.5846534911270231625301485547497
185,1.5857450342920064578800097698896
186,1.5868306907771207529005954082669
187,1.5879105237583176842885641616569
188,1.5889845953999195207531706007088
189,1.5900529668761073158236970686866
190,1.5911156983918405309512520749145
191,1.5921728492032273514242017873740
192,1.5932244776373620772670024946543
193,1.5942706411116478929363963955478
194,1.5953113961526183565632943520636
195,1.5963467984142755410639014576007
196,1.5973769026959585189845740363036
197,1.5984017629597565663652891276340
198,1.5994214323474812475645910225659
199,1.6004359631972102148632830287948
200,1.6014454070594166630095693135942
201,1.6024498147126954150860912017629
202,1.6034492361790990158122441923227
203,1.6044437207390944869652945102711
204,1.6054333169461523597838679323366
205,1.6064180726409779496674235224792
206,1.6073980349653978918708236254006
207,1.6083732503759078088210302552956
208,1.6093437646568953304626637303597
209,1.6103096229335442104618834392634
210,1.6112708696844310338695242462231
211,1.6122275487538218752019358360927
212,1.6131797033636791340634310760592
213,1.6141273761253829262005599007296
214,1.6150706090511820056734879787403
215,1.6160094435653734243713965102718
216,1.6169439205152248833243474635719
217,1.6178740801816437348492246155777
218,1.6187999622896016079746300715925
219,1.6197216060183179300758351853525
220,1.6206390500112148528425399040601
221,1.6215523323856414848639898983962
222,1.6224614907423846281920187160611
223,1.6233665621749595797075909249034
224,1.6242675832786960565839283271952
225,1.6251645901596218023832185103104
226,1.6260576184431474117222228862032
227,1.6269467032825610163477225671344
228,1.6278318793673346428155621278241
229,1.6287131809312493939109242992978
230,1.6295906417603441400407433234473
231,1.6304642952006895098549809796812
232,1.6313341741659975890039116697608
233,1.6322003111450623125220135436790
234,1.6330627382090466968905015238892
235,1.6339214870186100828643288365539
236,1.6347765888308850878178463045934
237,1.6356280745063078877216963766595
238,1.6364759745153035597471632883351
239,1.6373203189448319210627369194785
240,1.6381611375047960172246192409446
241,1.6389984595343175414934160009455
242,1.6398323140078820410105686001706
243,1.6406627295413579405913428081941
244,1.6414897343978910723525564862483
245,1.6423133564936790842690983517566
246,1.6431336234036282462086666155670
247,1.6439505623668940352122598689911
248,1.6447642002923130805568181089047
249,1.6455745637637214370968687517569
250,1.6463816790451695709881705932173
251,1.6471855720860319572014043013152
252,1.6479862685260140867228256448346
253,1.6487837937000619550414966420368
254,1.6495781726431736881770320448223
255,1.6503694300951171856737795494409
256,1.6511575905050538653250932717796
257,1.6519426780360749003685626568178
258,1.6527247165696463932077479027998
259,1.6535037297099702885076765232707
260,1.6542797407882614113651744547188
261,1.6550527728669409436082469340341
262,1.6558228487437510629528153826331
263,1.6565899909557895949008721672399
264,1.6573542217834701275345076051714
265,1.6581155632544061137351334434754
266,1.6588740371472211278617469573205
267,1.6596296649952884894220546571126
268,1.6603824680904002867370737173019
269,1.6611324674863700697996683716970
270,1.6618796840025649357531986040400
271,1.6626241382273762902280566965871
272,1.6633658505216232633816942756564
273,1.6641048410218962230377992512822
274,1.6648411296438375932236450641410
275,1.6655747360853638529662253963876
276,1.6663056798298269929805333793008
277,1.6670339801491229135452464640684
278,1.6677596561067385174943018966018
279,1.6684827265607490007741569239006
280,1.6692032101667574334173172634001
281,1.6699211253807845197405025340041
282,1.6706364904621060340205185194400
283,1.6713493234760411440794355659317
284,1.6720596422966887792993402113772
285,1.6727674646096188503124649364431
286,1.6734728079145143450969187317135
287,1.6741756895277693607547007078690
288,1.6748761265850394727330788301595
289,1.6755741360437490895387540565470
290,1.6762697346855565254576406786700
291,1.6769629391187746322059149357974
292,1.6776537657807498744040574603762
293,1.6783422309402037546342575285467
294,1.6790283506995316249812515913236
295,1.6797121409970609721867420559684
296,1.6803936176092767619632675303731
297,1.6810727961530037741780605443249
298,1.6817496920875552456433317823107
299,1.6824243207168446233546031949522
300,1.6830966971914621787658629584301
301,1.6837668365107168945222704040513
302,1.6844347535246457165667626855832
303,1.6851004629359873447325129538850
304,1.6857639793021241393339304461982
305,1.6864253170369935722662512077632
306,1.6870844904129684858165459708487
307,1.6877415135627033411433137432114
308,1.6883964004809539348566194849588
309,1.6890491650263666729677350511915
310,1.6896998209232377373582762734248
311,1.6903483817632457396754372086268
312,1.6909948610071553757898992474375
313,1.6916392719864934735685588588671
314,1.6922816279051992382399822370765
315,1.6929219418412480149995457340869
316,1.6935602267482499445005674508332
317,1.6941964954570210498404100080046
318,1.6948307606771321062910449457145
319,1.6954630349984324353403551691224
320,1.6960933308925486243069836602911
321,1.6967216607143620904675442873863
322,1.6973480367034616041321062316430
323,1.6979724709855742847113806689078
324,1.6985949755739740469205329072085
325,1.6992155623708692591054391385142
326,1.6998342431687678509226829580186
327,1.7004510296518226911343020410293
328,1.7010659333971544247166589332557
329,1.7016789658761567441476608033077
330,1.7022901384557805265432992333590
331,1.7028994623997982752256321697267
332,1.7035069488700499269511883034052
333,1.7041126089276704033433035909140
334,1.7047164535342970905394912764183
335,1.7053184935532615619742701493186
336,1.7059187397507616023370530593806
337,1.7065172027970164049390835367631
338,1.7071138932674060013294120054420
339,1.7077088216435909876549341565943
340,1.7083019983146186390933322835721
341,1.7088934335780111259248722352158
342,1.7094831376408383283804842382106
343,1.7100711206207748880443634051570
344,1.7106573925471414895063845756941
345,1.7112419633619321915874870069702
346,1.7118248429208252829217968917335
347,1.7124060409941812272429077015249
348,1.7129855672680245100876418159809
349,1.7135634313450129318307376649961
350,1.7141396427453918893812086715700
351,1.7147142109079357341329369558509
352,1.7152871451908758885251734334057
353,1.7158584548728150055810929833176
354,1.7164281491536285858915897366919
355,1.7169962371553544173183542210523
356,1.7175627279230680471967963694604
357,1.7181276304257475260743819750853
358,1.7186909535571266669838174366497
359,1.7192527061365325653880243796604
360,1.7198128969097163177149242036886
361,1.7203715345496686833501098397383
362,1.7209286276574271716873483253293
363,1.7214841847628691498496262668258
364,1.7220382143254959950753160674752
365,1.7225907247352065281378999563186
366,1.7231417243130586054697973584111
367,1.7236912213120217620025202981420
368,1.7242392239177176934554016992517
369,1.7247857402491532106197327873457
370,1.7253307783594413788179849823344
371,1.7258743462365136958504703784086
372,1.7264164518038222649126637752173
373,1.7269571029210319292037039046540
374,1.7274963073847066767098002798221
375,1.7280340729289810067378522527418
376,1.7285704072262277144196401092013
377,1.7291053178877138824040627426965
378,1.7296388124642482471533190975021
379,1.7301708984468217796515274616851
380,1.7307015832672382372969065826007
381,1.7312308742987375624195173557341
382,1.7317587788566092456011654846044
383,1.7322853041988003284658233045692
384,1.7328104575265130096483582121278
385,1.7333342459847954752029492242489
386,1.7338566766631266121106032209709
387,1.7343777565959903542286097036450
388,1.7348974927634435974861925008728
389,1.7354158920916783590174833057866
390,1.7359329614535753693431203503813
391,1.7364487076692494145457358560224
392,1.7369631375065900368204296220877
393,1.7374762576817950668912142346008
394,1.7379880748598955693939125966560
395,1.7384985956552750581025418909483
396,1.7390078266321826318701649636386
397,1.7395157743052396611963750673608
398,1.7400224451399400335592421699816
399,1.7405278455531425233074720053061
400,1.7410319819135595860740846712590
401,1.7415348605422386266354874152125
402,1.7420364877130364854372077386760
403,1.7425368696530899645299242302054
404,1.7430360125432802860107544970204
405,1.7435339225186889484199090075123
406,1.7440306056690510901319929356742
407,1.7445260680392034764683189905075
408,1.7450203156295246137284513817099
409,1.7455133543963698512254466082034
410,1.7460051902525039858079198731053
411,1.7464958290675256288945043988648
412,1.7469852766682869186155036497843
413,1.7474735388393096561293270980771
414,1.7479606213231942899662005195502
415,1.7484465298210260323690768714051
416,1.7489312699927745372729523224731
417,1.7494148474576899884180093948032
418,1.7498972677946927608411041922961
419,1.7503785365427609342667669056599
420,1.7508586592013106403286546197475
421,1.7513376412305731958153131905286
422,1.7518154880519683035526132237063
423,1.7522922050484711570732476860242
424,1.7527677975649770628091013877089
425,1.7532422709086599591764666269663
426,1.7537156303493284394060048122800
427,1.7541878811197767627578169268243
428,1.7546590284161308678212748811542
429,1.7551290773981933002977855844241
430,1.7555980331897799173844376550879
431,1.7560659008790558724239400215525
432,1.7565326855188680293469773526995
433,1.7569983921270691448157062466992
434,1.7574630256868449160172765598794
435,1.7579265911470317177939983068898
436,1.7583890934224329301121004219339
437,1.7588505373941320172505388799815
438,1.7593109279098013407875033300549
439,1.7597702697840073876996970266339
440,1.7602285677985134848014464668260
441,1.7606858267025771593884945880870
442,1.7611420512132457097454664713350
443,1.7615972460156496332253873009033
444,1.7620514157632885312844393629253
445,1.7625045650783188221446005904916
446,1.7629566985518342854455972121843
447,1.7634078207441466080685653061564
448,1.7638579361850591493462891542487
449,1.7643070493741417661779737265557
450,1.7647551647809988505029344363028
451,1.7652022868455380822429851427024
452,1.7656484199782327390739122080841
453,1.7660935685603833061141011779603
454,1.7665377369443747744923002747888
455,1.7669809294539332526822306534014
456,1.7674231503843771876186385689212
457,1.7678644040028678913168133556589
458,1.7683046945486557689069423849760
459,1.7687440262333247620259146510723
460,1.7691824032410346499244264357207
461,1.7696198297287590580317064715253
462,1.7700563098265223870448098175867
463,1.7704918476376342663309643699181
464,1.7709264472389196925671264523975
465,1.7713601126809488223702326620800
466,1.7717928479882635496340453355356
467,1.7722246571596001481072717893536
468,1.7726555441681129948740166477581
469,1.7730855129615918514543959889344
470,1.7735145674626802270839371864745
471,1.7739427115690890913029900323658
472,1.7743699491538102334868275444360
473,1.7747962840653246202422108854598
474,1.7752217201278132546864601200003
475,1.7756462611413594603863890466110
476,1.7760699108821551037865507023518
477,1.7764926731027010881464654134680
478,1.7769145515320067949997479435649
479,1.7773355498757873625437067570443
480,1.7777556718166591955656535387074
481,1.7781749210143322578046876765879
482,1.7785933011058027155639241414818
483,1.7790108157055413125934546276800
484,1.7794274684056802960266829088245
485,1.7798432627762003702721015393890
486,1.7802582023651122636799971809542
487,1.7806722906986397567934803635535
488,1.7810855312813987686981492738223
489,1.7814979275965757295969124774658
490,1.7819094831061031026824693472856
491,1.7823202012508341895362640951096
492,1.7827300854507158071851303007265
493,1.7831391391049588117694241338174
494,1.7835473655922075628043599264118
495,1.7839547682707065204723667677027
496,1.7843613504784672203102526639586
497,1.7847671155334313107490352499015
498,1.7851720667336335987021362827243
499,1.7855762073573626004577416518402
500,1.785979540663320728285818129323
501,1.786382069890779858706699808862
502,1.786783798259739737506434060114
503,1.787184728971080689530461054205
504,1.787584865206718476994112796386
505,1.787984210129754153675667136890
506,1.788382766884624644976009844947
507,1.788780538597251901767435517098
508,1.789177528375190267884026169361
509,1.789573739307770292035019512254
510,1.789969174466245037264700378630
511,1.790363836903932118927352283802
512,1.790757729656355371258110676635
513,1.791150855741384758167295761759
514,1.791543218159375204612031836280
515,1.791934819893304722735654782749
516,1.792325663908910043059188134977
517,1.792715753154820825411513475633
518,1.793105090562694234936301926598
519,1.793493679047346665072841758941
520,1.793881521506885464470785701774
521,1.794268620822837463024840680157
522,1.794654979860278573193270059790
523,1.795040601467960903718396263633
